1744,1886,1838
1744,1819,1802
1909,1840,1803
2116,1937,1936
1975,1910,1937
1680,1831,1841
1791,1821,1919
1980,1831,1774
1808,1842,1739
1685,1837,1821
1827,1840,1744
1859,1841,1872
1923,1927,1936
1809,1868,1859
1795,1855,1841
1873,1885,1968
1967,1905,1856
1839,1877,1827
1839,1876,1819
1902,1859,1890
1941,1913,1904
1872,1846,1870
1822,1821,1847
1890,1825,1808
1890,1851,1782
1808,1861,1824
1873,1884,1897
1872,1887,1937
1820,1855,1901
1827,1840,1782
1904,1862,1861
1909,1881,1862
1864,1890,1888
1883,1866,1872
1949,1851,1838
1869,1845,1831
1755,1855,1915
1731,1831,1743
1865,1833,1918
1903,1900,1958
1915,1870,1893
1885,1855,1838
1840,1835,1840
1776,1845,1829
1856,1888,1840
1939,1845,1860
1919,1841,1866
2000,1910,1863
2002,1885,1835
1712,1787,1966
1649,1776,1712
1754,1836,1760
1873,1859,1866
1930,1856,1798
1869,1846,1840
1872,1849,1844
1909,1856,1809
1921,1822,1858
1846,1871,1851
1871,1890,1903
2002,1936,1965
1838,1843,1779
1699,1783,1681
1859,1840,1840
2009,1909,1883
1839,1815,1769
1750,1774,1766
1799,1805,1838
1904,1870,1860
1855,1865,1858
1945,1874,1911
1915,1863,2000
1823,1874,1866
1822,1860,1741
1831,1842,1775
1927,1847,1796
1843,1815,1778
1885,1889,1828
1931,1903,1917
2096,1867,1871
1716,1737,1744
1738,1838,1791
1875,1869,1851
1830,1820,1923
1703,1762,1680
1791,1843,1828
1813,1854,1912
1819,1872,1819
1831,1882,1923
1890,1857,1838
2047,1870,1906
1980,1831,1866
1910,1845,1750
1702,1812,1666
1729,1808,1815
1852,1895,1969
1887,1966,1963
1894,1904,2000
1895,1841,1797
1786,1765,1822
1839,1827,1840
2083,1917,1785
1825,1849,1787
1664,1807,1808
1757,1841,1955
1774,1825,1779
1844,1870,1770
2059,1966,1915
2059,1943,2009
1707,1789,1814
1651,1803,1738
1809,1859,1840
2093,1904,1858
1872,1857,1805
1721,1851,1835
1774,1839,1822
1899,1810,1839
1791,1805,1831
1813,1856,1904
1920,1920,1937
1975,1911,1842
1865,1825,1719
1760,1777,1803
1803,1823,1899
1948,1899,1846
1888,1894,1898
1776,1828,1664
1843,1822,1797
1808,1851,1930
1778,1866,1947
1773,1840,1813
1797,1839,1840
1872,1840,1731
1925,1879,1840
2032,1911,1927
1806,1856,1910
1710,1854,1751
1809,1870,1840
1879,1845,1821
1904,1827,1790
1899,1918,1954
1819,1874,1878
1983,1832,1811
1794,1789,1775
1727,1826,1776
1807,1863,1843
1858,1886,1915
1999,1887,1879
1968,1878,1811
1839,1878,1870
1745,1845,1934
1728,1808,1888
1850,1818,1839
1893,1830,1728
1886,1828,1771
1898,1856,1781
1805,1875,1823
1776,1849,1872
1842,1872,1877
2019,1872,1873
2032,1847,1819
1728,1840,1879
1657,1858,1878
1788,1863,1879
1818,1849,1837
1836,1839,1724
1814,1850,1782
1924,1891,1895
1941,1867,1891
1786,1856,1815
1744,1834,1796
1822,1827,1840
1851,1842,1902
1930,1871,1919
1987,1859,1812
1983,1881,1819
1907,1913,1854
1843,1887,1900
1845,1806,1795
1742,1840,1857
1936,1877,1873
1999,1891,1843
1771,1853,1787
1745,1803,1758
1754,1837,1875
1874,1904,1966
1873,1902,1863
1904,1899,1840
1887,1874,1807
1862,1881,1887
1910,1915,1920
2078,1925,1935
2032,1841,1817
1859,1823,1802
1785,1831,1787
1787,1858,1818
1812,1888,1889
1755,1872,1909
1891,1889,1932
1877,1859,1863
1837,1871,1776
1866,1863,1794
1983,1923,1893
2123,1994,1988
2012,1869,1856
1733,1778,1743
1744,1829,1811
1959,1895,1831
1921,1899,1867
1865,1863,1920
1765,1879,1886
1792,1837,1810
1813,1845,1807
1893,1906,1905
1891,1902,1888
1931,1881,1793
1920,1887,1825
1871,1885,1857
1849,1886,1873
1921,1893,1935
1779,1853,1855
1834,1856,1864
1872,1883,1827
1987,1971,1904
2059,1920,1882
1869,1843,1808
1811,1833,1759
1891,1856,1827
1925,1883,1939
1982,1872,1871
1947,1865,1824
1872,1875,1825
1885,1901,1920
1873,1897,1942
1822,1840,1829
1845,1825,1791
1808,1871,1845
1891,1904,1894
1943,1914,1881
1950,1862,1818
1871,1837,1872
1794,1843,1909
1815,1846,1871
1927,1855,1840
1941,1890,1872
2064,1936,1844
2074,1899,1955
1819,1785,1803
1683,1839,1798
1895,1918,1898
2065,1907,1907
2022,1901,1886
1718,1822,1808
1674,1821,1777
1910,1904,1875
1987,1870,1836
1895,1838,1850
1921,1861,1902
1791,1868,1892
1861,1901,1855
1877,1904,1841
1805,1850,1897
1905,1853,1922
1954,1906,1859
1897,1903,1808
1827,1870,1786
1799,1841,1889
1878,1840,1845
1875,1812,1771
1998,1873,1794
1941,1875,1983
1694,1808,1915
1923,1879,1792
1936,1857,1783
1888,1878,1886
1910,1894,1882
1825,1860,1840
1899,1872,1885
2031,1919,1889
1963,1870,1825
1788,1891,1889
1901,1874,1899
1807,1825,1831
1766,1851,1795
1808,1909,1853
1873,1873,1947
1925,1892,2005
1950,1882,1829
1845,1855,1767
1733,1835,1759
1818,1859,1824
1949,1869,1872
1940,1901,1786
1951,1857,1758
1887,1856,1856
1824,1867,1875
1831,1926,1875
1970,1904,1886
1856,1799,1835
1840,1844,1874
1860,1888,1831
1895,1847,1789
1902,1839,1831
1795,1851,1753
1840,1922,1819
1902,1876,1859
1856,1841,1964
1855,1835,1910
1936,1845,1691
1819,1872,1713
1759,1909,1907
1826,1870,1953
1877,1877,1894
1897,1846,1814
1872,1850,1790
1887,1872,1840
1821,1877,1952
1812,1823,1782
1902,1835,1728
1879,1881,1872
1867,1873,1904
1822,1828,1851
1884,1860,1808
1825,1872,1852
1926,1870,1901
1828,1845,1808
1842,1840,1961
1895,1891,1818
1969,1910,1763
1887,1872,1778
1737,1823,1883
1803,1844,1926
1911,1879,1840
1960,1872,1799
1855,1821,1791
1952,1846,1927
1949,1858,1903
1711,1815,1782
1783,1870,1823
1801,1827,1778
1808,1862,1760
1861,1845,1841
1882,1859,1921
1911,1884,1935
1871,1858,1871
1962,1858,1745
1955,1885,1815
1873,1866,1917
1744,1824,1834
1787,1855,1841
1866,1840,1789
1846,1843,1750
1855,1863,1890
1907,1891,1936
1941,1872,1845
1824,1799,1766
1927,1866,1835
1912,1881,1839
1959,1883,1943
1991,1863,1811
1808,1851,1742
1689,1863,1824
1803,1869,1860
1994,1903,2007
1929,1882,1887
1887,1872,1773
1870,1856,1827
1792,1807,1840
1703,1795,1818
1783,1855,1776
1865,1872,1839
1935,1882,1903
1962,1862,1815
1989,1871,1808
1929,1862,1920
1857,1875,1933
1746,1859,1875
1856,1865,1808
1870,1851,1814
1874,1853,1891
1883,1858,1904
1921,1889,1840
1861,1854,1875
1853,1835,1783
1887,1840,1750
1855,1847,1827
1855,1866,1930
1889,1863,1829
1891,1859,1811
1881,1797,1733
1879,1833,1827
1895,1891,1909
1923,1904,2015
1791,1853,1843
1771,1808,1767
1871,1855,1791
1909,1898,1825
1886,1893,1887
1900,1888,1872
1917,1850,1827
1914,1873,1819
1840,1856,1840
1949,1833,1840
1867,1799,1829
1840,1849,1751
1879,1868,1817
1903,1866,1982
1794,1862,1915
1790,1825,1744
1902,1808,1814
1904,1838,1840
1910,1871,1921
1863,1862,1920
1739,1819,1699
1761,1856,1807
1908,1886,1903
1971,1883,1881
2025,1835,1925
1836,1825,1782
1761,1863,1749
1807,1854,1813
1789,1844,1881
1829,1873,1857
1859,1861,1823
1942,1851,1904
2007,1840,1911
1872,1856,1769
1770,1890,1797
1757,1854,1824
1821,1819,1876
1920,1841,1857
1982,1859,1755
1875,1879,1843
1758,1823,1839
1824,1820,1867
1863,1880,1946
1858,1856,1900
1822,1840,1774
1889,1860,1813
1940,1857,1872
1926,1845,1799
1856,1852,1810
1941,1872,1920
1899,1877,1965
1765,1797,1770
1830,1821,1793
1821,1863,1840
1793,1840,1824
1806,1815,1764
1959,1858,1833
1936,1812,1807
1871,1840,1842
1825,1841,1781
1813,1836,1822
1818,1845,1871
1892,1897,1958
1934,1885,1914
1901,1862,1877
1824,1794,1793
1910,1853,1833
1970,1887,1834
1851,1851,1814
1808,1851,1803
1806,1843,1834
1808,1819,1809
1821,1814,1835
1894,1859,1913
1923,1868,1842
1946,1863,1789
1952,1864,1885
1840,1844,1889
1757,1856,1859
1789,1852,1825
1767,1817,1753
1905,1880,1840
2017,1857,1891
1886,1808,1871
1699,1813,1762
1775,1869,1754
1859,1847,1845
1904,1904,1917
1901,1839,1922
1827,1847,1842
1903,1859,1834
1946,1907,1856
1906,1814,1825
1905,1837,1775
1877,1827,1818
1766,1815,1808
1719,1851,1808
1807,1835,1839
1895,1825,1867
1907,1825,1828
1789,1809,1859
1895,1852,1911
1943,1855,1872
1904,1895,1844
1789,1846,1879
1859,1847,1861
1917,1851,1777
1837,1838,1818
1840,1902,1839
1871,1859,1872
1843,1840,1900
1872,1801,1779
1917,1858,1808
1895,1803,1875
1775,1824,1851
1741,1840,1855
1825,1859,1850
1903,1869,1920
1987,1892,1828
1984,1875,1741
1770,1802,1837
1731,1812,1887
1805,1829,1867
1841,1861,1854
1850,1844,1754
1902,1843,1885
1874,1879,1888
1906,1857,1756
1833,1856,1775
1889,1900,1939
1901,1861,1968
1860,1840,1874
1779,1802,1749
1747,1806,1715
1806,1817,1804
1815,1837,1911
1831,1839,1885
1885,1850,1917
2082,1861,1877
1939,1862,1730
1776,1776,1721
1643,1761,1835
1744,1871,1947
2067,1961,1950
1986,1848,1837
1727,1840,1721
1680,1777,1803
1873,1831,1952
1903,1862,1778
1952,1789,1673
1785,1865,1841
1712,1899,1871
1843,1883,1888
1862,1840,1811
1811,1776,1730
1776,1833,1767
1915,1836,1839
2021,1889,1878
1755,1807,1939
1696,1802,1889
1792,1835,1776
1861,1841,1730
1837,1804,1797
1943,1863,1791
2014,1936,1856
2002,1840,1759
1753,1765,1763
1655,1819,1915
1781,1843,1910
1843,1804,1776
1867,1877,1739
1789,1814,1750
1767,1776,1803
1841,1861,1878
2023,1884,2046
1919,1834,1799
1713,1792,1695
1734,1799,1797
1786,1808,1777
1849,1809,1693
1797,1815,1776
1861,1895,1981
1861,1887,2007
1876,1872,1933
1819,1815,1729
1769,1822,1737
1897,1919,1878
2081,1887,1898
1885,1785,1865
1920,1792,1771
1613,1788,1709
1589,1825,1806
1744,1835,1872
1815,1810,1829
1930,1883,1815
1901,1895,1842
1801,1778,1825
1822,1790,1914
1919,1894,1902
1898,1840,1781
1805,1830,1747
1771,1806,1805
1797,1873,1902
1999,1876,1937
1841,1780,1793
1740,1712,1680
1694,1795,1782
1809,1889,1933
1790,1842,1890
1749,1782,1779
1818,1874,1806
1949,1959,1933
1965,1846,1814
1871,1791,1785
1904,1814,1842
1907,1885,1798
1818,1810,1779
1829,1949,1874
1759,1767,1778
1791,1821,1886
1777,1829,1872
1840,1829,1815
1948,1859,1904
1804,1787,1777
1803,1849,1707
1882,1872,1851
1950,1806,1755
1860,1795,1843
1794,1847,1937
1835,1882,1853
1777,1867,1843
1709,1835,1785
1773,1823,1850
1917,1867,1907
1939,1870,1813
1851,1826,1682
1801,1776,1793
1827,1837,1942
1893,1892,1857
1941,1815,1755
1811,1773,1831
1757,1824,1929
1811,1873,1825
1886,1875,1802
1939,1881,1829
1781,1841,1932
1713,1828,1807
1899,1883,1817
1894,1827,1795
1862,1840,1893
1815,1851,1835
1800,1827,1801
1972,1890,1873
1943,1823,1795
1714,1842,1861
1747,1875,1904
1918,1883,1859
2039,1873,1770
1936,1818,1775
1666,1840,1876
1659,1843,1851
1819,1858,1870
1931,1904,1856
1955,1893,1849
1918,1847,1815
1809,1791,1861
1799,1840,1859
1822,1856,1766
1867,1872,1785
2015,1890,1879
1960,1906,2031
1872,1851,1893
1759,1757,1658
1810,1824,1745
1854,1910,1914
1798,1872,2009
1886,1873,1808
1821,1837,1759
1766,1846,1808
1872,1871,1841
1866,1863,1811
1776,1837,1834
1847,1859,1920
1991,1872,1958
2075,1904,1833
1851,1828,1776
1895,1830,1981
1833,1844,1837
1723,1844,1759
1770,1872,1813
1913,1887,1881
2081,1883,1843
1983,1830,1796
1691,1819,1790
1685,1838,1866
1884,1877,2020
1904,1861,1807
1854,1866,1744
1836,1858,1799
1909,1856,1906
1860,1845,1925
1878,1858,1901
1962,1872,1958
1851,1859,1781
1789,1824,1718
1871,1818,1838
1920,1860,1891
1859,1908,1849
1770,1878,1802
1809,1861,1826
1889,1869,1865
1861,1850,1819
1860,1851,1852
1936,1877,1895
1961,1866,1889
1915,1840,1920
2021,1841,1778
1859,1824,1829
1771,1814,1877
1760,1843,1920
1798,1874,1936
1895,1906,1888
1964,1888,1841
1899,1855,1797
1830,1856,1872
1770,1809,1811
1920,1907,1884
2018,1901,1927
1861,1776,1727
1829,1854,1830
1871,1879,1868
1845,1856,1803
1751,1807,1779
1753,1834,1855
1819,1869,1938
1945,1897,1859
2032,1899,1829
1895,1861,1859
1869,1850,1865
1856,1852,1885
1797,1851,1855
1819,1865,1807
1902,1856,1885
1943,1865,1869
2014,1886,1982
1801,1817,1869
1679,1837,1754
1878,1907,1749
1947,1859,1808
1820,1840,1901
1795,1839,1931
1850,1872,1879
1887,1902,1891
1926,1901,1905
1865,1856,1775
1821,1855,1738
1856,1855,1781
1983,1875,1882
1882,1891,1947
1872,1867,1929
1887,1851,1787
1920,1840,1808
1840,1844,1872
1893,1883,1888
1958,1911,1933
1835,1837,1846
1811,1822,1821
1925,1870,1830
2038,1936,1955
1781,1803,1841
1719,1842,1840
1781,1879,1852
1858,1872,1875
1863,1826,1873
1954,1855,1877
1987,1856,1850
1933,1865,1741
1899,1937,1919
1755,1851,1902
1727,1847,1839
1861,1887,1820
2005,1879,1836
1886,1856,1852
1828,1859,1895
1995,1911,1971
1953,1871,1872
1824,1851,1794
1823,1889,1862
1931,1883,1813
1967,1899,1875
1904,1883,1890
1763,1837,1824
1746,1843,1789
1899,1885,1887
2033,1917,1939
1974,1861,1954
1841,1845,1830
1837,1916,1932
1840,1906,1889
1950,1918,1879
1946,1874,1792
1979,1866,1879
1973,1854,1861
1795,1834,1744
1712,1875,1869
1808,1886,1970
1918,1894,1936
1984,1906,1867
2157,1920,1905
2085,1851,1785
1716,1821,1793
1664,1867,1820
1762,1882,1839
1856,1856,1867
1937,1902,1926
2037,1947,1885
1905,1865,1799
1871,1839,1911
1847,1854,1867
1823,1904,1871
1867,1906,1886
1986,1903,1883
2045,1899,1900
1883,1862,1811
1818,1845,1801
1868,1862,1862
1988,1904,2013
1922,1877,1877
1853,1869,1802
1874,1856,1711
1967,1875,1767
1931,1903,1873
1909,1884,1904
1818,1830,1811
1872,1894,1895
1870,1850,1905
1802,1857,1787
1920,1872,1913
1990,1919,1963
1926,1915,1863
1776,1840,1770
1790,1841,1806
1882,1872,1921
1914,1889,1915
1920,1882,1879
1975,1857,1838
1987,1894,1859
1843,1870,1773
1767,1846,1771
1852,1849,1878
1898,1869,1936
2000,1903,1927
2005,1821,1840
1968,1910,1904
1801,1878,1841
1728,1866,1786
1778,1867,1803
1921,1865,1818
1980,1870,1886
1936,1872,1947
1901,1855,1866
1904,1864,1818
1836,1883,1858
1808,1874,1838
1812,1862,1834
1881,1869,1887
1923,1865,1887
1899,1898,1901
1871,1872,1865
1941,1879,1875
1939,1867,1837
1897,1873,1889
1906,1884,1872
1969,1887,1872
1926,1827,1743
1942,1873,1825
1991,1883,1897
2013,1863,1917
1712,1806,1866
1723,1831,1808
1855,1858,1810
1891,1840,1882
1921,1868,1889
2035,1905,1795
1821,1856,1827
1742,1825,1822
1839,1856,1909
1973,1894,1892
2094,1871,1671
1805,1797,1739
1761,1874,1926
1895,1919,1934
1872,1855,1863
1939,1842,1811
1905,1843,1872
1855,1833,1819
1791,1843,1786
1837,1868,1806
1894,1891,1919
1831,1839,1856
1923,1824,1927
2181,1850,1904
1910,1850,1741
1655,1843,1783
1808,1869,1776
1965,1863,1853
1990,1870,1861
1834,1793,1826
1650,1794,1906
1760,1843,1964
1853,1856,1840
1964,1861,1803
2096,1872,1799
1904,1855,1792
1755,1831,1863
1793,1843,1824
1853,1829,1802
1842,1799,1811
1810,1849,1814
1886,1874,1750
1851,1849,1795
1877,1851,1873
1830,1821,1851
1822,1814,1806
1881,1835,1840
1925,1834,1865
1929,1846,1930
1934,1841,1989
1989,1836,1770
1971,1895,1776
1792,1858,1771
1716,1776,1725
1811,1807,1834
1907,1825,1922
1897,1865,1986
1808,1855,1731
1794,1849,1727
1872,1836,1776
2046,1836,1831
1833,1834,1827
1771,1829,1840
1792,1808,1872
1890,1824,1922
1936,1905,1872
1904,1852,1721
1843,1830,1765
1808,1787,1781
1859,1847,1888
1957,1893,1934
1922,1815,1840
1745,1795,1791
1739,1847,1872
1921,1894,1890
1934,1807,1776
1770,1831,1879
1779,1879,1887
1822,1903,1872
1877,1839,1773
1951,1802,1751
1943,1832,1857
1819,1872,1840
1754,1872,1818
1801,1866,1846
1886,1867,1862
1930,1873,1869
1885,1840,1850
2000,1897,1841
1851,1841,1719
1718,1826,1776
1776,1856,1904
1890,1875,1968
1887,1855,1907
1850,1858,1857
1867,1846,1792
1954,1872,1807
1856,1836,1731
1874,1885,1903
1880,1853,1933
1853,1882,1873
1783,1824,1775
1837,1874,1883
1920,1842,1904
1804,1811,1747
1840,1887,1821
1837,1879,1843
1819,1855,1811
1995,1869,1901
2022,1860,1808
1826,1840,1810
1769,1810,1790
1794,1821,1808
1870,1888,1911
2079,1923,1943
2065,1835,1808
1743,1728,1771
1641,1815,1764
1681,1858,1797
1791,1883,1862
1917,1874,1875
2178,1904,1856
1984,1843,1750
1680,1847,1925
1733,1845,1900
1805,1844,1843
1861,1843,1831
1862,1853,1805
1952,1853,1801
2125,1873,1904
1910,1871,1807
1701,1819,1751
1733,1841,1840
1765,1875,1867
1872,1853,1819
1935,1854,1843
2195,1907,1870
1995,1857,1862
1645,1804,1777
1653,1826,1831
1808,1860,1855
1883,1889,1840
2039,1892,1966
2292,1883,1792
1935,1883,1786
1651,1819,1802
1605,1797,1747
1733,1825,1855
1903,1889,1883
2002,1904,1840
1934,1805,1723
1813,1858,1853
1837,1883,1981
1824,1872,1967
1824,1829,1680
1862,1856,1722
1791,1893,1856
1931,1890,1936
1971,1853,1875
1883,1847,1807
1766,1839,1769
1730,1851,1817
1845,1829,1844
1925,1866,1929
1893,1846,1830
1839,1872,1818
1871,1858,1841
1986,1875,1884
1961,1853,1784
1817,1867,1807
1730,1873,1845
1831,1862,1851
1868,1850,1817
1865,1862,1803
1900,1895,1887
1968,1871,1897
1919,1821,1781
1771,1840,1818
1721,1845,1904
1841,1873,1853
1942,1859,1833
1935,1899,1875
1791,1809,1770
1811,1828,1795
1877,1880,1888
2005,1891,1862
1902,1875,1873
1796,1855,1835
1861,1870,1811
2039,1856,1813
1874,1815,1798
1731,1817,1909
1822,1877,1881
1904,1881,1861
1826,1805,1776
1822,1853,1841
1872,1849,1861
1889,1882,1841
1985,1877,1843
1888,1866,1850
1837,1818,1779
1858,1871,1856
1889,1882,1840
1879,1886,1918
1859,1833,1863
1802,1825,1773
1874,1831,1744
1872,1819,1815
1907,1872,1885
1898,1873,1938
1845,1811,1751
1857,1840,1823
1859,1847,1817
1907,1879,1844
1771,1885,1853
1885,1878,1933
1910,1872,1950
1921,1892,1868
1883,1841,1746
1855,1791,1776
1818,1810,1858
1840,1840,1760
1856,1821,1735
2043,1898,1894
1883,1872,1850
1700,1809,1802
1783,1845,1866
1723,1869,1903
1875,1869,1904
1862,1877,1882
1883,1893,1814
1945,1859,1855
1830,1815,1840
1847,1842,1794
1949,1827,1786
1931,1851,1842
1851,1823,1857
1798,1778,1788
1746,1821,1826
1767,1872,1919
1904,1914,1872
1872,1883,1835
1915,1856,1792
1967,1882,1924
1947,1869,1812
1779,1839,1747
1775,1863,1872
1851,1842,1925
1848,1837,1798
2000,1850,1741
1971,1844,1817
1757,1839,1928
1676,1839,1824
1751,1865,1808
1903,1862,1793
1936,1897,1882
2015,1855,1839
1867,1870,1933
1701,1830,1826
1807,1814,1773
1766,1842,1791
1870,1875,1872
1932,1870,1799
1911,1839,1762
1882,1847,1790
1885,1876,1879
1903,1887,1949
1861,1828,1866
1737,1808,1762
1804,1862,1776
1958,1897,1866
2011,1914,1896
1950,1872,1877
1786,1822,1805
1664,1803,1712
1730,1819,1776
1919,1882,1919
1949,1850,1838
1921,1831,1792
1836,1850,1883
1797,1856,1894
1819,1820,1810
1829,1840,1793
1842,1878,1910
1878,1888,1913
1914,1905,1788
1950,1871,1792
1874,1855,1887
1863,1840,1840
1984,1862,1819
2076,1918,1879
1902,1856,1875
1843,1860,1919
1633,1811,1795
1687,1814,1697
1901,1840,1777
1861,1808,1793
1893,1867,1884
1871,1870,1843
1824,1865,1841
1863,1867,1919
1889,1873,1863
1893,1838,1805
1852,1850,1775
1898,1870,1872
1924,1887,1867
1815,1841,1786
1783,1810,1841
1777,1841,1938
1909,1902,1929
1985,1897,1854
1853,1824,1746
1793,1830,1744
1859,1885,1810
1908,1872,1815
1873,1808,1772
1801,1829,1872
1809,1871,1900
1863,1895,1875
1899,1866,1891
1840,1843,1857
1833,1869,1905
1865,1882,1826
2021,1874,1879
1981,1837,1782
1721,1771,1699
1648,1825,1804
1797,1866,1890
1938,1894,1863
1883,1855,1841
1877,1873,1822
1958,1913,1930
1935,1875,1837
1807,1802,1839
1790,1792,1857
1854,1859,1842
1868,1909,1875
1839,1897,1872
1895,1852,1753
1883,1823,1728
1820,1856,1897
1788,1858,1943
1790,1857,1785
1847,1870,1810
1929,1899,1938
1961,1891,1934
1887,1869,1802
1819,1840,1751
1872,1840,1801
1863,1899,1948
1821,1840,1856
1863,1850,1863
1872,1856,1840
1911,1894,1834
1909,1878,1937
1807,1824,1749
1821,1840,1738
1840,1882,1849
1873,1917,1921
1898,1881,1904
1842,1871,1862
1841,1861,1821
1850,1823,1821
1870,1877,1920
1895,1884,1843
1949,1904,1813
1988,1903,1858
1878,1883,1870
1773,1883,1862
1760,1840,1791
1826,1841,1763
1872,1851,1867
1929,1901,1990
1958,1853,1844
1785,1845,1842
1689,1857,1799
1762,1879,1826
1873,1858,1824
2059,1910,1825
1803,1823,1826
1691,1834,1851
1776,1883,1891
1861,1879,1891
2064,1898,2039
2016,1851,1817
1905,1862,1664
1740,1830,1773
1734,1821,1891
1838,1858,1891
1860,1899,1855
1888,1955,1895
1957,1924,1888
1920,1837,1807
1838,1808,1751
1751,1823,1856
1808,1866,1969
1903,1894,1968
1879,1872,1776
1850,1855,1777
1853,1869,1878
1904,1904,1905
1923,1875,1857
1891,1833,1778
1881,1874,1842
1921,1841,1854
1930,1830,1808
1770,1872,1831
1675,1841,1935
1744,1831,1839
1839,1861,1789
1861,1840,1877
1930,1883,1920
1901,1869,1750
1775,1856,1798
1778,1872,1856
1869,1875,1898
1949,1893,1904
1883,1873,1857
1825,1844,1808
1847,1839,1876
1989,1851,1948
1943,1859,1869
1773,1755,1806
1777,1883,1781
1805,1834,1813
1895,1822,1867
1953,1899,1810
1901,1831,1808
1797,1887,1887
1776,1881,1870
1895,1857,1870
1955,1812,1941
1847,1857,1840
1886,1913,1866
1776,1862,1887
1799,1819,1819
1789,1846,1770
1891,1899,1854
1995,1887,1827
1936,1850,1787
1723,1839,1855
1707,1841,1894
1780,1811,1883
1867,1867,1872
1887,1819,1842
1859,1870,1813
1936,1862,1797
2032,1893,1823
1995,1899,1875
1759,1857,1842
1737,1844,1808
1918,1875,1898
1915,1845,1936
1782,1838,1825
1730,1833,1792
1835,1838,1882
1951,1871,1838
2078,1930,1889
1878,1873,1871
1759,1800,1882
1761,1849,1841
1835,1859,1801
2101,1917,1855
1943,1902,1826
1743,1809,1890
1696,1818,1867
1767,1808,1977
1866,1843,1799
1890,1856,1744
1914,1852,1858
1834,1856,1838
1825,1904,1820
1847,1849,1887
1919,1879,1887
1943,1929,1857
1871,1826,1886
1927,1917,1981
1957,1895,1791
1879,1841,1758
1851,1838,1914
1846,1871,1911
1934,1882,1783
1843,1802,1776
1856,1835,1820
1790,1782,1779
1793,1802,1847
1833,1869,1841
1837,1900,1947
1822,1852,1903
1938,1917,1911
1875,1859,1759
1871,1798,1801
1915,1819,1898
1833,1858,1858
1786,1879,1876
1898,1897,1895
1974,1903,1840
1994,1915,1773
1725,1794,1781
1746,1786,1856
1781,1808,1874
1853,1851,1862
1840,1823,1836
1855,1808,1808
1887,1830,1802
1911,1954,1846
1897,1890,1947
1834,1873,1863
1857,1856,1825
1862,1856,1867
1840,1831,1835
1860,1841,1919
1919,1879,1808
1947,1790,1915
1873,1790,1745
1840,1822,1807
1785,1868,1877
1776,1867,1839
1835,1829,1825
1963,1866,1852
1895,1871,1887
1811,1907,1933
1761,1858,1936
1835,1807,1841
2039,1872,1783
2091,1918,1765
1771,1845,1805
1723,1843,1889
1767,1815,1879
1830,1858,1796
1866,1899,1856
1934,1840,1884
1841,1808,1840
1838,1811,1795
1857,1836,1765
1920,1904,1974
1879,1824,1937
1854,1841,1731
1843,1853,1705
1772,1793,1844
1810,1823,1910
1894,1813,1849
1986,1935,1877
1830,1858,1873
1792,1807,1808
1855,1835,1750
1806,1846,1840
1809,1840,1840
1909,1859,1810
1840,1869,1831
1777,1825,1872
1829,1835,1931
1965,1883,1921
2015,1883,1850
1802,1815,1789
1832,1851,1867
1942,1872,1882
1924,1853,1817
1789,1833,1813
1715,1825,1798
1812,1871,1856
1867,1871,1818
1904,1842,1820
1895,1858,1888
1840,1799,1872
1846,1777,1845
1829,1867,1781
1822,1913,1849
1820,1911,1927
1840,1869,1898
1853,1897,1811
1955,1877,1779
1862,1872,1843
1785,1847,1838
1792,1911,1808
1815,1853,1843
1834,1839,1891
1898,1905,1913
1946,1892,1817
1920,1830,1817
1905,1860,1918
1806,1849,1840
1820,1836,1791
1937,1875,1859
1915,1870,1875
1775,1888,1857
1737,1865,1827
1969,1919,1919
1966,1840,1812
1839,1808,1776
1776,1849,1851
1767,1850,1840
1791,1854,1921
1891,1868,1888
1915,1840,1856
2000,1837,1831
1845,1843,1762
1744,1869,1831
1771,1867,1849
1839,1857,1899
1865,1872,1929
1903,1899,1904
1935,1885,1776
1915,1840,1728
1978,1855,1848
1935,1818,1817
1757,1819,1939
1807,1831,1859
1824,1856,1773
1833,1887,1882
1840,1872,1899
1872,1887,1867
1909,1897,1872
1909,1883,1894
1943,1870,1825
1769,1828,1731
1802,1879,1889
1845,1882,1885
1799,1811,1776
1799,1825,1873
1893,1851,1869
1936,1898,1893
1842,1857,1785
1844,1856,1798
1834,1860,1823
1858,1889,1869
1821,1855,1857
1820,1825,1825
1855,1867,1747
1879,1885,1792
1920,1895,1908
1975,1906,1952
1950,1863,1897
1817,1843,1791
1765,1817,1793
1744,1790,1885
1904,1849,1869
1977,1851,1808
1789,1842,1724
1771,1856,1775
1864,1907,1904
1866,1889,1887
1840,1872,1872
1861,1877,1885
1984,1930,1927
1936,1889,1874
1771,1808,1834
1821,1821,1919
1920,1872,1923
1847,1839,1797
1808,1849,1727
1854,1857,1787
1919,1840,1817
1991,1872,1782
1898,1865,1803
1750,1866,1937
1801,1882,1963
1881,1874,1840
1904,1845,1811
1986,1888,1952
2032,1899,1966
1786,1849,1866
1717,1826,1809
1822,1840,1776
1798,1835,1764
1799,1817,1804
1865,1826,1791
1802,1858,1840
1810,1877,1936
1902,1915,1899
1845,1872,1913
1904,1855,1826
1858,1845,1815
1936,1878,1919
1904,1872,1856
1797,1843,1777
1925,1900,1821
1845,1872,1877
1794,1861,1920
1764,1808,1806
1856,1819,1774
1895,1873,1830
1811,1872,1840
1872,1867,1875
1961,1863,1829
1872,1863,1821
1874,1878,1937
1879,1851,1841
1822,1866,1817
1797,1876,1834
1840,1856,1797
1872,1869,1866
1833,1841,1845
1823,1860,1870
1920,1872,1861
2038,1910,1892
1839,1843,1818
1702,1827,1808
1762,1817,1791
1927,1835,1968
1871,1875,1915
1860,1894,1776
1886,1917,1791
1846,1867,1861
1840,1871,1917
1889,1855,1877
1869,1829,1853
1927,1838,1791
1873,1884,1809
1763,1863,1843
1758,1833,1853
1874,1853,1793
1933,1889,1895
1877,1882,1843
1807,1869,1795
1826,1871,1843
1862,1873,1876
1881,1882,1871
1883,1890,1846
1939,1872,1840
1936,1814,1791
1836,1824,1799
1723,1829,1819
1835,1883,1827
1967,1898,1863
1881,1871,1805
1857,1885,1935
1866,1838,1904
1872,1816,1711
1834,1851,1724
