1363,1712,1799
1460,1742,1759
1577,1721,1856
1641,1747,1877
1614,1675,1904
1490,1678,1840
1366,1619,1722
1361,1693,1760
1578,1710,1875
1456,1615,1795
1376,1651,1823
1535,1693,2013
1744,1779,1999
1690,1690,1810
1389,1569,1703
1319,1687,1856
1439,1726,1879
1465,1688,1891
1520,1713,1913
1680,1743,1818
1648,1717,1886
1429,1693,1765
1354,1597,1715
1411,1719,1844
1631,1774,1919
1707,1787,1906
1562,1559,1705
1469,1632,1815
1408,1689,1909
1393,1636,1904
1415,1654,1879
1657,1680,1886
1756,1823,1978
1576,1701,1920
1392,1630,1710
1461,1711,1771
1357,1744,1881
1357,1687,1877
1510,1697,1803
1653,1712,1946
1533,1792,2021
1552,1790,1946
1433,1674,1811
1488,1776,1955
1648,1767,2006
1567,1669,1808
1457,1609,1649
1475,1789,1808
1738,1869,1995
1807,1704,1813
1294,1584,1664
1152,1679,1857
1268,1680,1899
1395,1722,1827
1485,1723,1776
1776,1799,1892
1727,1759,2030
1357,1745,1940
1459,1726,1825
1477,1747,1850
1625,1783,1994
1520,1777,1893
1471,1711,1843
1558,1748,1851
1643,1727,1827
1728,1762,1858
1534,1758,1843
1399,1788,1866
1405,1769,1843
1463,1805,1856
1362,1755,1781
1488,1790,1896
1655,1840,1967
1734,1852,1926
1681,1749,1804
1431,1717,1739
1372,1768,1839
1479,1744,1829
1415,1737,1791
1493,1795,1904
1905,1844,1871
1655,1753,1878
1254,1686,1788
1303,1795,1822
1572,1924,1991
1751,1849,2064
1532,1743,1775
1485,1765,1829
1511,1813,1868
1579,1794,1838
1524,1899,1902
1890,1856,1947
1622,1767,1858
1252,1742,1733
1201,1648,1708
1462,1771,1872
1658,1889,2034
1624,1886,1975
1718,1871,1942
1591,1711,1808
1397,1709,1744
1393,1763,1744
1451,1742,1741
1478,1793,1845
1652,1917,1968
1753,1874,2032
1779,1831,1980
1375,1655,1714
1331,1717,1670
1424,1724,1722
1459,1751,1830
1525,1836,1926
1616,1905,1968
1586,1856,1891
1583,1859,1839
1712,1890,1902
1695,1776,1928
1488,1749,1785
1337,1731,1782
1424,1691,1857
1603,1824,1925
1676,1846,1863
1562,1826,1793
1680,1839,2006
1895,1948,2086
1485,1676,1627
1223,1709,1651
1360,1749,1794
1535,1829,1891
1556,1826,1872
1502,1790,1872
1596,1891,1950
1914,1983,2076
1652,1824,1797
1312,1661,1601
1382,1744,1789
1561,1821,1920
1585,1832,1899
1503,1771,1840
1679,1868,1951
1733,1865,1984
1568,1767,1812
1419,1684,1744
1491,1753,1885
1689,1887,2100
1653,1836,1935
1535,1776,1741
1626,1822,1801
1637,1829,1889
1574,1809,1858
1535,1744,1875
1636,1824,1904
1872,1921,1945
1822,1808,1922
1367,1681,1776
1432,1745,1781
1637,1853,1929
1661,1760,1919
1641,1687,1778
1670,1841,1907
1835,1871,2059
1679,1799,1942
1583,1744,1776
1618,1732,1823
1663,1801,1919
1634,1792,1933
1616,1767,1930
1695,1795,1964
1826,1776,1951
1893,1797,1969
1712,1739,1865
1530,1726,1846
1620,1783,1908
1675,1776,1905
1670,1742,1879
1776,1761,1914
1818,1798,1971
1742,1727,1904
1658,1722,1885
1719,1786,1955
1818,1835,2007
1786,1777,1980
1780,1715,1934
1739,1747,1929
1803,1805,1895
1752,1797,1869
1738,1761,1863
1776,1757,1927
1898,1808,1919
1822,1745,1924
1657,1719,1921
1711,1774,1983
1776,1775,1975
1781,1742,1904
1908,1809,1949
1870,1728,1933
1759,1717,1957
1678,1707,1921
1691,1700,1886
1794,1714,1918
1872,1776,2006
1835,1782,2026
1731,1728,1910
1743,1701,1858
1853,1751,1961
1849,1723,1949
1753,1663,1831
1804,1775,1936
1879,1813,2071
1826,1777,1984
1738,1715,1937
1792,1728,1951
1896,1781,1999
1841,1767,1968
1759,1724,1899
1792,1738,1945
1879,1785,1990
1856,1776,1957
1795,1727,1915
1808,1762,1988
1869,1851,2025
1797,1774,1899
1758,1712,1871
1904,1781,1998
2006,1802,1930
1876,1762,1923
1614,1746,1857
1665,1669,1860
1863,1731,1974
1897,1696,1966
1861,1713,1862
1875,1809,2007
1872,1810,2061
1818,1760,1959
1776,1703,1908
1878,1715,1937
1963,1764,2042
1908,1721,1969
1851,1696,1934
1907,1728,2001
2032,1819,2116
1932,1754,1991
1831,1609,1871
1885,1648,1936
1989,1725,2032
1963,1698,1974
1903,1651,1920
2015,1680,2034
2059,1790,2083
1910,1659,1926
1856,1584,1890
1968,1654,2014
2029,1730,2043
1973,1626,1936
1926,1603,1907
1997,1663,1997
2038,1648,2012
2035,1616,2006
1991,1575,1993
2103,1669,2043
2114,1696,2027
1999,1564,1925
1997,1535,1921
2127,1674,2076
2107,1662,2006
2018,1535,1410
2007,1517,68
2319,1733,1392
2458,1891,2737
2374,1888,2061
2349,1931,0
2544,2071,2475
2701,2160,2122
2710,2192,1181
2738,2231,383
2832,2305,2450
2881,2326,0
2800,2255,0
2736,2147,0
2731,2126,1447
2781,2138,2114
2758,2084,2037
2711,2010,1850
2753,2002,1795
2898,2021,1808
2859,1924,1819
2727,1807,1827
2636,1799,1830
2667,1854,1826
2687,1840,1830
2559,1761,1827
2481,1671,1827
2538,1682,1831
2497,1647,1824
2409,1599,1833
2429,1632,1830
2464,1650,1834
2422,1618,1829
2375,1589,1826
2368,1638,1831
2390,1616,1829
2352,1585,1826
2298,1558,1833
2343,1606,1829
2448,1671,1831
2348,1600,1825
2227,1535,1829
2266,1600,1827
2327,1607,1830
2266,1558,1839
2206,1534,1820
2286,1563,1872
2302,1607,1984
2224,1599,1914
2253,1616,1785
2279,1611,1904
2209,1610,1876
2198,1605,1806
2275,1589,1785
2192,1573,1825
2141,1612,1825
2163,1616,1814
2159,1583,1837
2194,1617,1852
2241,1670,1798
2197,1650,1815
2146,1613,1809
2192,1607,1792
2257,1680,1805
2238,1678,1808
2239,1653,1808
2183,1639,1811
2187,1670,1837
2155,1652,1805
2182,1646,1835
2240,1659,1856
2364,1701,1826
2319,1712,1823
1969,1594,1824
2176,1743,1829
2193,1739,1826
2006,1618,1850
2009,1615,1826
2146,1698,1825
2231,1748,1851
2192,1717,1822
2126,1632,1794
2160,1676,1830
2265,1761,1829
2214,1745,1851
2032,1685,1904
2020,1680,1994
2171,1753,2083
2256,1755,1999
2333,1710,1968
2099,1675,1882
2053,1717,1938
2096,1702,1981
2115,1665,1922
2209,1712,2001
2267,1740,2029
2262,1794,2107
2110,1701,1945
2079,1697,1951
2195,1798,2067
2094,1718,2027
2022,1679,1873
2171,1721,1958
2303,1759,1938
2610,1849,2256
2448,1819,2277
1735,1664,1930
1819,1696,1866
2017,1750,2064
2128,1702,1958
2311,1734,1878
2273,1806,2060
1933,1754,2080
1962,1769,1969
2156,1741,1689
2161,1761,1227
2253,1830,1611
2334,1795,1901
2099,1741,1919
1968,1767,1827
2117,1824,1807
2115,1792,1815
2067,1764,1828
2174,1786,1806
2292,1811,1823
2286,1760,1854
1961,1732,1833
2085,1868,1847
2059,1779,1808
2122,1729,1808
2093,1795,1852
2082,1840,1807
2303,1795,1795
2183,1781,1859
2277,1883,1827
2310,1803,1883
1849,1733,1820
1766,1724,1818
2019,1789,1831
2047,1793,1827
2047,1776,1765
2080,1798,1835
2317,1888,1826
2303,1924,1745
2179,1867,1826
2113,1754,1829
2137,1758,1827
1872,1789,1825
1873,1844,1821
2023,1872,1683
2123,1888,1606
2256,1905,1691
2310,1920,1758
2007,1834,1726
2142,1923,1696
2501,1910,1617
1933,1741,1660
1636,1750,1728
1885,1872,1778
2201,1965,1851
2326,1927,1791
2126,1849,1648
2065,1859,1686
2289,1901,1695
2224,1819,1670
1963,1805,1691
1850,1850,1840
1929,1898,1886
2079,1890,1782
2282,1890,1702
2352,1860,1685
1921,1872,1773
2016,1911,1901
2119,1824,1831
2381,1878,1721
1880,1850,1808
1706,1839,1865
1873,1840,1808
2128,1890,1872
2339,1936,1879
2331,1874,1774
2146,1840,1721
1904,1853,1753
2223,1942,1968
2235,1788,1724
1882,1804,1702
2047,1925,1808
2034,1839,1905
1904,1858,1936
2027,1898,1858
2470,1936,1857
2431,1905,1805
1811,1856,1857
1840,1828,1713
2127,1840,1742
2026,1824,1765
2046,1903,1904
2349,1958,2047
2064,1808,1767
1809,1830,1840
2035,1898,1787
2339,1904,1876
2143,1849,1871
1797,1807,1802
1867,1826,1840
2112,1811,1850
2459,1954,1778
2315,1923,1811
1977,1806,1845
1833,1826,1849
2029,1861,1904
2128,1888,2000
2033,1877,1850
2107,1903,1776
2547,2000,1869
2178,1789,1807
1835,1797,1911
1937,1874,1913
2030,1815,1808
2063,1893,1883
2039,1856,1854
2144,1850,1766
2129,1924,1919
2170,1969,2059
2087,1887,1945
1949,1765,1703
2028,1843,1750
2288,1932,1936
2320,1904,2011
1873,1819,1858
1771,1840,1847
2000,1930,1939
2186,1935,1907
2165,1837,1796
2274,1904,1941
2372,1954,1931
1907,1780,1765
1795,1750,1755
1853,1872,1901
2075,1958,2032
2131,1967,1974
2325,1941,1963
2246,1854,1819
1950,1843,1839
2096,1868,1821
2194,1784,1745
2002,1841,1979
1958,1920,2012
2029,1894,1937
2265,1851,1835
2200,1813,1830
2064,1876,1955
1874,1890,1916
2098,1897,1861
2413,1928,1856
2005,1840,1873
1814,1807,1889
1932,1861,1899
2097,1850,1863
2112,1833,1830
2089,1852,1869
2125,1853,1847
2223,1883,1942
2270,1906,1987
2043,1893,1904
1838,1796,1777
1986,1856,1801
2443,2001,2099
2149,1831,1957
1712,1687,1700
1846,1799,1763
2187,1888,1921
2153,1873,1918
2123,1875,1835
2003,1849,1878
2146,1885,1923
2095,1869,1865
2145,1919,1877
2287,1926,1943
2112,1856,1941
1766,1759,1797
1763,1777,1782
2105,1889,1878
2352,1923,1973
2111,1834,1847
2023,1827,1777
2369,1858,1845
2040,1831,1970
1861,1850,1856
2113,1892,1821
2171,1893,1981
1982,1827,1928
1983,1822,1933
2144,1859,1954
2037,1857,1815
2063,1887,1855
2037,1825,1867
2114,1879,1839
2303,1905,1874
2070,1846,1910
1927,1837,1851
2036,1894,1968
2178,1869,1905
2018,1818,1829
1894,1819,1878
2071,1870,1899
2289,1904,1916
2241,1894,1874
1966,1844,1820
1813,1845,1872
1998,1842,1965
2106,1870,1985
2071,1840,1847
2017,1831,1803
2043,1857,1861
2208,1907,1990
2428,1939,1899
1954,1756,1791
1821,1803,1866
1983,1904,1894
2160,1873,1920
2268,1814,1821
2165,1872,1852
1991,1882,1921
1968,1881,1941
2103,1866,1919
2157,1859,1901
2129,1859,1924
1994,1846,1857
2153,1847,1774
2016,1854,1862
1904,1867,1958
2064,1872,2001
2064,1833,1830
2096,1840,1813
2133,1861,1857
2125,1885,1900
1974,1858,1933
2000,1824,1842
2101,1869,1904
2070,1875,1875
2003,1841,1852
2128,1856,1899
2208,1863,1904
2123,1842,1947
1791,1776,1774
1865,1783,1738
2030,1867,1891
2166,1882,1970
2201,1856,1877
2109,1877,1889
1875,1811,1835
1886,1812,1827
1942,1821,1840
2079,1886,1929
2128,1876,1898
2128,1841,1813
1967,1767,1739
1931,1830,1875
2027,1877,1990
2191,1878,1867
2045,1840,1784
1843,1796,1827
1838,1815,1863
1981,1840,1825
2128,1891,1901
2129,1871,1878
2039,1854,1831
1931,1857,1813
1990,1810,1815
1968,1818,1817
1939,1865,1914
1915,1904,1919
1939,1887,1893
2045,1867,1794
2126,1846,1815
2067,1854,1845
1930,1885,1895
1968,1871,1859
2226,1915,1915
2027,1837,1846
1763,1781,1775
1888,1858,1877
2096,1920,1957
2160,1943,1897
2142,1906,1767
2053,1822,1742
1794,1842,1930
1727,1842,1883
1843,1823,1798
2160,1905,1833
2095,1867,1872
1947,1888,1885
2018,1846,1733
1986,1830,1766
1998,1911,1968
1985,1868,1859
1915,1839,1776
2112,1901,1842
2113,1887,1882
1856,1812,1857
1801,1789,1743
1917,1861,1856
2128,1961,1937
1988,1850,1781
1952,1815,1787
1920,1859,1870
2023,1936,1898
2082,1936,1825
2068,1872,1840
1858,1811,1854
1845,1885,1953
1871,1867,1819
1936,1854,1776
2047,1854,1792
2126,1855,1776
1936,1913,1930
1841,1889,1903
1875,1863,1826
1990,1921,1920
1983,1902,1846
2008,1861,1759
1989,1884,1903
1998,1959,1954
1946,1898,1819
1901,1819,1766
1980,1887,1858
2153,1957,1952
2030,1851,1773
1771,1787,1680
1799,1823,1746
1968,1878,1867
2043,1894,1883
2000,1870,1830
1990,1863,1811
1877,1873,1857
1805,1848,1840
1840,1836,1792
2067,1936,1823
2061,1898,1850
1886,1833,1813
1872,1811,1776
2087,1894,1848
2079,1892,1837
1730,1841,1826
1741,1831,1814
1918,1861,1835
2156,1942,1879
1984,1840,1771
1856,1805,1787
2123,1943,1932
2002,1894,1891
1808,1847,1801
1857,1865,1792
1824,1849,1876
1998,1923,1909
2003,1902,1885
1929,1875,1780
2058,1894,1737
1882,1869,1808
1750,1835,1808
1789,1811,1759
1969,1930,1903
2112,1927,1936
2221,1901,1866
1926,1824,1823
1666,1827,1801
1757,1904,1830
1892,1921,1899
2032,1909,1846
2096,1872,1798
1910,1899,1801
1834,1872,1804
1915,1861,1728
1955,1853,1774
1951,1902,1937
2047,1885,1943
1957,1851,1814
1794,1911,1878
1777,1901,1926
1845,1873,1837
2004,1866,1743
1973,1861,1839
1878,1863,1865
1817,1855,1834
1968,1846,1765
2157,1923,1830
1863,1904,1951
1778,1882,1926
1792,1843,1772
1851,1879,1781
2021,1936,1863
2041,1875,1849
1842,1840,1849
1798,1856,1836
1873,1915,1929
1925,1905,1808
1914,1873,1781
1997,1856,1790
2110,1909,1847
1872,1861,1862
1715,1762,1762
1862,1832,1815
1925,1897,1921
1859,1904,1914
1839,1849,1786
1998,1856,1807
2099,1895,1905
1826,1877,1826
1718,1833,1713
1776,1839,1754
1989,1936,1905
2029,1889,1863
2125,1851,1772
1917,1834,1751
1717,1840,1861
1804,1887,1907
1808,1840,1797
1841,1865,1834
1975,1939,1935
1965,1918,1872
1915,1820,1754
2046,1856,1809
1904,1863,1878
1783,1840,1776
1765,1814,1719
2015,1909,1830
2058,1878,1894
1806,1829,1808
1880,1781,1699
1799,1840,1821
1757,1882,1944
1821,1904,1922
1905,1895,1817
2018,1908,1918
2032,1892,1999
1921,1867,1786
1766,1872,1735
1862,1907,1840
1984,1904,1881
2119,1871,1822
1923,1778,1743
1682,1813,1787
1808,1904,1883
1888,1851,1774
1936,1792,1654
1839,1874,1899
1859,1952,2015
1819,1886,1883
1851,1858,1783
2054,1936,1872
2368,1939,1842
1719,1727,1761
1466,1739,1718
1718,1798,1775
1984,1902,1875
2092,1934,1910
1922,1859,1762
1851,1835,1808
1856,1904,1890
1839,1860,1839
1825,1886,1885
1990,1910,1936
2057,1906,1824
2110,1906,1831
1763,1760,1691
1584,1742,1760
1787,1865,1902
1812,1895,1841
1821,1879,1835
2096,1881,1865
2035,1858,1840
1813,1827,1851
1781,1808,1809
1890,1897,1878
2031,1970,1929
2075,1931,1856
1770,1840,1808
1563,1741,1712
1753,1872,1842
1921,1904,1889
2013,1837,1728
1817,1806,1697
1813,1904,1911
2097,1929,2081
2096,1904,1915
1691,1854,1739
1713,1838,1773
1769,1832,1750
1768,1842,1776
1920,1883,1792
1913,1895,1890
1785,1862,1878
1747,1837,1738
2010,1888,1872
2101,1872,1864
1863,1930,1891
1751,1938,1921
1835,1853,1859
1946,1931,1862
1792,1894,1751
1760,1829,1711
1749,1887,1824
1890,1907,1923
2000,1957,1920
1904,1829,1781
1783,1854,1833
1899,1885,1901
1977,1901,1837
1936,1862,1760
1919,1899,1791
1893,1927,1984
1959,1838,1866
1712,1818,1776
1654,1872,1867
1919,1921,1936
1975,1922,1893
1895,1853,1787
1835,1852,1815
1982,1895,1863
1839,1862,1840
1713,1826,1862
1815,1924,1933
2014,1851,1891
1941,1895,1786
1795,1856,1813
1834,1946,1856
1919,1943,1937
1971,1922,1984
1901,1867,1819
1906,1910,1776
1909,1927,1873
1987,1911,1815
1840,1837,1769
1786,1840,1844
1824,1913,1903
1914,1881,1845
1856,1847,1815
1959,1899,1840
1875,1879,1829
1885,1892,1952
1810,1813,1840
1777,1899,1789
1915,1885,1808
1909,1904,1851
2110,1978,1986
1859,1841,1872
1679,1910,1825
1699,1859,1806
1803,1851,1775
1942,1874,1806
2064,1902,1824
2032,1879,1874
1826,1833,1889
1694,1848,1882
1820,1886,1844
1851,1890,1799
1840,1875,1809
1954,1855,1851
1936,1899,1925
2020,1952,2014
1969,1815,1728
1767,1777,1527
1691,1843,1926
1767,1906,2062
1824,1853,1857
1920,1919,1795
1940,1843,1853
1913,1798,1828
1840,1812,1744
1869,1908,1849
1879,1949,1999
1796,1909,1904
1774,1837,1774
1840,1849,1768
2047,1897,1925
2035,1877,1869
1871,1847,1753
1805,1847,1850
1814,1873,1903
1889,1834,1791
1793,1822,1763
1791,1869,1850
1899,1908,1979
1958,1910,1968
2162,1847,1759
1957,1825,1738
1650,1867,1890
1635,1807,1828
1733,1801,1773
1869,1850,1802
2112,1975,1881
2228,1935,1918
1671,1804,1712
1584,1793,1831
1815,1875,1909
1923,1951,1904
1950,1919,1846
1967,1776,1728
1893,1921,1850
1795,1840,1902
1821,1827,1822
1743,1829,1830
1857,1871,1923
1903,1849,1877
1886,1851,1734
1924,1830,1770
1967,1916,1887
1934,1885,1891
1770,1808,1819
1728,1831,1805
1968,1915,1830
1921,1859,1791
1745,1788,1835
1850,1872,1910
1734,1853,1841
1712,1853,1850
1845,1841,1819
2030,1866,1799
1983,1893,1883
1802,1827,1835
1779,1872,1862
1893,1883,1840
1999,1862,1803
1766,1791,1766
1712,1782,1744
1918,1914,1974
2009,1904,1983
1745,1803,1793
1709,1778,1699
1808,1857,1803
1966,1920,1957
2047,1901,1900
1808,1863,1791
1712,1823,1725
1873,1881,1914
2018,1822,1788
1767,1766,1666
1660,1846,1839
1775,1919,1991
1872,1859,1952
1810,1824,1798
1883,1887,1806
1897,1911,1872
1854,1873,1871
1872,1813,1804
1889,1846,1813
2022,1901,1875
1842,1866,1851
1774,1792,1735
1808,1852,1869
2000,1948,1968
1855,1856,1794
1694,1792,1710
1811,1828,1809
1893,1888,1850
1904,1905,1871
1860,1853,1839
1810,1831,1853
1863,1901,1920
1830,1878,1856
1798,1857,1797
1989,1881,1882
2105,1917,1905
1887,1858,1817
1731,1819,1776
1691,1817,1859
1834,1858,1840
1822,1847,1783
1785,1834,1785
1872,1867,1856
2006,1923,1923
1901,1889,1840
1802,1817,1751
1854,1863,1857
2005,1936,1953
1878,1831,1841
1712,1781,1776
1753,1851,1787
1877,1887,1859
1954,1872,1856
2055,1859,1830
2064,1842,1823
1808,1857,1889
1695,1855,1854
1703,1747,1685
1811,1810,1746
1894,1926,1925
1891,1936,1963
1791,1819,1826
1857,1821,1802
1914,1873,1888
1875,1889,1909
1770,1842,1840
1840,1870,1776
2046,1915,1887
2173,1882,1855
1770,1807,1764
1669,1807,1749
1776,1869,1891
1869,1846,1874
1801,1835,1807
1842,1863,1823
1991,1920,1901
1982,1904,1872
1905,1847,1863
1744,1840,1808
1814,1892,1858
2005,1887,1855
1919,1831,1763
1811,1803,1762
1889,1872,1923
1938,1857,1899
1776,1823,1776
1837,1872,1872
1875,1845,1813
1808,1869,1845
1807,1840,1857
1841,1837,1827
1872,1858,1858
1866,1894,1868
1958,1883,1875
1978,1870,1827
1823,1866,1840
1794,1847,1862
1840,1834,1818
1842,1871,1834
1866,1872,1834
2039,1904,1884
2083,1867,1802
1695,1786,1797
1783,1867,1904
1938,1886,1872
1903,1834,1729
1822,1853,1801
1862,1869,1886
1872,1884,1894
1825,1863,1862
1931,1905,1881
1859,1870,1888
1846,1867,1904
1798,1840,1766
1885,1904,1810
1936,1871,1795
1818,1830,1792
1794,1835,1919
1883,1856,1803
1826,1872,1758
1744,1841,1822
1824,1802,1815
1863,1854,1942
2087,1938,1941
1949,1845,1823
1679,1808,1771
1659,1812,1758
1872,1883,1861
1947,1897,1941
1923,1839,1831
1791,1811,1779
1840,1845,1841
1807,1818,1850
1770,1825,1864
1801,1840,1804
1963,1938,1900
2022,1922,1975
1872,1794,1745
1721,1840,1756
1878,1915,1925
1814,1856,1872
1758,1824,1828
1921,1830,1735
1979,1857,1860
1929,1841,1871
1730,1811,1795
1726,1874,1812
1855,1911,1895
1830,1867,1803
1950,1840,1750
1947,1840,1822
1793,1851,1856
1835,1904,1889
1803,1840,1870
1863,1822,1792
2009,1891,1033
1846,1790,416
1689,1772,1184
1775,1840,97
1947,1910,0
1906,1872,0
1915,1859,671
1903,1871,1586
1791,1856,1941
1958,1917,1903
2023,1842,1686
1719,1778,1488
1717,1834,1689
1774,1840,1305
1783,1840,725
1811,1857,1307
2024,1904,2106
2005,1870,2310
1931,1792,2027
1958,1859,1970
1793,1835,2029
1664,1858,2085
1829,1845,2055
1921,1865,2098
1814,1840,2011
1883,1858,2080
1841,1779,1952
1770,1813,2128
1783,1860,2128
1825,1839,2064
1667,1808,1982
1786,1851,2045
1947,1895,2127
1825,1826,2070
1775,1812,2090
1843,1808,2006
1821,1835,1942
1839,1885,2082
1849,1823,2036
1789,1807,1963
1814,1851,2023
1887,1865,2045
1802,1825,2093
1813,1827,1893
1897,1898,1408
1866,1888,1622
1775,1807,1748
1730,1808,1907
1935,1895,1878
1955,1875,1869
1824,1821,1820
1792,1843,1854
1791,1877,1841
1881,1856,1825
1760,1778,1841
1775,1844,1861
1858,1889,1859
1899,1861,1805
1826,1813,1861
1825,1873,1798
1865,1886,1823
1811,1808,1815
1728,1794,1812
1777,1851,1824
1934,1891,1826
1978,1867,1859
1728,1787,1790
1675,1815,1840
1889,1887,1846
1872,1868,1832
1780,1811,1829
1845,1826,1833
2031,1905,1775
1876,1840,1837
1520,1762,1835
1625,1811,1823
1899,1878,1835
2004,1881,1808
1883,1833,1829
1696,1805,1794
1808,1862,1819
1864,1862,1872
1887,1858,1834
1961,1831,1858
1778,1838,1904
1726,1839,1803
1733,1808,1742
1831,1818,1835
2096,1891,1902
1950,1865,1943
1573,1755,1775
1603,1789,1747
1818,1868,1855
1922,1875,1845
1853,1841,1791
1855,1805,1858
1781,1828,1867
1819,1861,1965
1787,1815,1827
1742,1806,1853
1846,1867,1891
1815,1876,1888
1778,1850,1913
1795,1790,1894
1925,1856,1930
1793,1871,1847
1842,1847,1824
1918,1808,1772
1838,1818,1874
1746,1795,1833
1722,1792,1842
1737,1810,1893
1897,1906,1985
1923,1861,1919
1831,1835,1863
1794,1812,1853
1831,1872,1934
1893,1907,1931
1829,1826,1778
1669,1765,1712
1761,1840,1893
1888,1842,1822
1813,1795,1835
1808,1853,1890
1937,1851,1946
1821,1786,1776
1722,1808,1859
1736,1815,1906
1887,1868,1907
1899,1824,1914
1809,1795,1888
1857,1828,1838
1879,1881,1914
1790,1840,1865
1713,1796,1710
1756,1831,1943
1802,1858,1984
1849,1851,1894
1915,1830,1807
1904,1816,1819
1774,1855,1910
1754,1837,1895
1799,1751,1786
1791,1729,1767
1852,1829,1947
1926,1875,2003
1854,1826,1846
1779,1789,1744
1802,1801,1819
1794,1790,1913
1760,1788,1888
1755,1778,1857
1902,1827,1930
1931,1820,1878
1842,1764,1829
1776,1782,1729
1895,1819,1810
1893,1830,1857
1703,1780,1887
1728,1792,1899
1872,1824,1911
1859,1808,1923
1826,1789,1831
1871,1811,1909
1943,1794,1882
1929,1796,1869
1729,1786,1821
1699,1763,1809
1781,1790,1904
1849,1793,1904
1789,1754,1793
1815,1797,1840
1936,1840,1904
2032,1838,1936
1911,1782,1872
1828,1754,1806
1662,1807,1911
1764,1849,1987
1810,1784,1887
1793,1783,1913
1865,1829,1901
1854,1803,1852
1890,1760,1703
1787,1776,1802
1743,1829,1920
1872,1811,1895
1930,1756,1727
1839,1776,1904
1793,1835,1971
1837,1868,1965
1800,1814,1874
1870,1808,1883
1861,1825,1825
1799,1792,1581
1715,1776,1621
1851,1831,1000
1939,1841,0
1878,1819,751
1805,1804,1878
1813,1843,2102
1974,1872,1929
1859,1830,1814
1728,1766,1797
1741,1792,1823
1957,1843,1833
1926,1818,1829
1806,1787,1831
1839,1845,1831
1891,1895,1831
1809,1832,1828
1776,1767,1826
1817,1814,1834
1887,1854,1832
1775,1835,1830
1728,1776,1830
1803,1824,1830
1968,1850,1830
1909,1828,1825
1840,1822,1829
1850,1793,1833
1874,1842,1827
1814,1831,1830
1824,1810,1827
1990,1848,1831
1825,1856,1833
1652,1839,1827
1803,1813,1827
1891,1807,1833
1838,1818,1829
1697,1813,1830
1683,1808,1826
1856,1840,1849
1987,1868,1914
1871,1852,1925
1907,1824,1847
1825,1809,1720
1714,1865,1943
1751,1869,1968
1833,1835,1879
1936,1855,1871
1904,1835,1920
1786,1826,1877
1660,1789,1828
1783,1821,1881
2082,1891,1926
1925,1842,1823
1686,1759,1767
1777,1784,1822
2016,1862,1942
1925,1862,1919
1728,1809,1890
1744,1820,1850
1777,1840,1863
1803,1869,1920
1847,1840,1881
1949,1856,1878
1887,1857,1909
1787,1835,1897
1765,1796,1872
1835,1787,1840
1850,1850,1833
1872,1835,1829
1824,1840,1862
1904,1870,1892
1858,1872,1970
1846,1834,1903
1797,1781,1802
1765,1825,1850
1829,1873,1872
1856,1879,1906
1913,1887,1908
1877,1825,1835
1921,1840,1893
1870,1879,1893
1712,1793,1787
1808,1851,1847
1915,1883,1918
1808,1863,1923
1814,1798,1792
1790,1830,1847
1830,1903,2045
1911,1890,1968
1827,1822,1837
1773,1853,1857
1904,1893,1910
1973,1863,1923
1975,1871,1895
1680,1825,1866
1661,1877,1887
1807,1873,1804
1867,1880,1845
1967,1903,1937
1810,1909,1968
1930,1827,1872
1744,1808,1783
1707,1850,1860
1875,1907,1984
1909,1889,1941
1799,1817,1834
1923,1876,1903
1936,1902,1892
1781,1861,1810
1712,1859,1797
1728,1890,1882
1943,1930,1920
1984,1886,1870
1884,1847,1791
1683,1837,1851
1809,1883,1954
1937,1869,1877
1840,1835,1791
1771,1859,1851
1872,1909,1903
1857,1916,1947
1885,1888,1907
1859,1863,1873
1894,1884,1835
1797,1885,1827
1799,1840,1749
1968,1862,1884
1789,1859,1938
1739,1858,1850
1716,1846,1802
1833,1873,1882
1908,1866,1838
1884,1904,1939
1755,1846,1877
1851,1911,1887
1923,1903,1877
1805,1899,1840
1719,1841,1808
1847,1861,1805
1920,1904,1927
1845,1873,1920
1831,1859,1834
1813,1858,1789
1874,1875,1883
1857,1895,1884
1730,1869,1890
1728,1872,1872
1909,1933,1968
1909,1917,1907
1902,1844,1738
1735,1840,1808
1793,1936,1961
1901,1949,1983
1870,1872,1794
1844,1819,1741
1781,1869,1872
1855,1894,1939
1818,1855,1819
1891,1856,1836
1987,1946,1923
1873,1911,1874
1665,1818,1799
1777,1872,1840
1968,1921,1918
1839,1879,1889
1734,1856,1830
1810,1881,1845
1961,1948,1925
1980,1959,1975
1819,1867,1799
1821,1840,1715
1751,1856,1858
1806,1885,1956
1819,1876,1844
1791,1861,1821
1813,1886,1845
1898,1921,1899
1930,1911,1889
1906,1913,1913
1838,1858,1855
1819,1847,1840
1781,1869,1857
1845,1936,1862
1856,1918,1906
1856,1904,1535
1936,1870,1619
1926,1869,1773
1827,1937,2007
1754,1885,1913
1808,1904,1906
1778,1865,1856
1858,1874,1858
1879,1895,1923
1830,1859,1891
1845,1851,1866
1835,1904,1903
1829,1887,1852
1783,1858,1790
1874,1872,1867
2061,1889,1872
1959,1910,1902
1690,1862,1861
1773,1918,1927
1936,1911,1871
1806,1883,1856
1866,1885,1870
1886,1899,1919
1806,1865,1891
1772,1847,1866
1712,1833,1861
1869,1888,1920
1985,1925,1910
2023,1888,1783
1870,1845,1796
1675,1869,1911
1731,1917,1936
1857,1936,1915
1899,1861,1786
1925,1833,1756
1888,1919,1915
1867,1893,1886
1798,1810,1703
1825,1871,1808
1984,1945,1958
1923,1859,1895
1791,1845,1840
1782,1913,1873
1802,1907,1979
1815,1856,1904
1842,1840,1787
1866,1863,1776
1841,1904,1923
1911,1919,1921
1971,1885,1855
1813,1840,1855
1759,1872,1904
1798,1903,1882
1936,1901,1861
1893,1881,1850
1858,1933,1937
1814,1888,1872
1761,1844,1814
1847,1845,1819
1983,1919,1953
2021,1941,1975
1751,1822,1755
1776,1834,1790
1887,1934,1957
1921,1955,1961
1797,1853,1830
1728,1861,1808
1819,1904,1919
1962,1914,1894
1836,1870,1787
1755,1868,1850
1872,1919,1936
1931,1904,1904
1854,1872,1809
1757,1840,1843
1813,1923,1974
