1778,1788,1756
1535,1795,1840
1507,1793,1744
1744,1883,1753
1724,1843,1757
1614,1793,1775
1798,1802,1760
1738,1788,1734
1598,1815,1790
1827,1870,1792
1947,1859,1815
1670,1802,1845
1535,1840,1776
1705,1851,1789
1675,1808,1722
1653,1808,1749
1797,1840,1809
1904,1829,1785
1744,1840,1814
1586,1803,1749
1594,1825,1777
1741,1835,1835
1924,1821,1762
1910,1845,1786
1709,1834,1808
1602,1808,1786
1696,1839,1852
1805,1852,1840
1789,1851,1760
1872,1808,1744
1725,1863,1822
1494,1793,1798
1621,1767,1773
1815,1808,1734
1904,1837,1756
1666,1840,1853
1617,1825,1861
1702,1856,1851
1773,1872,1862
1759,1870,1856
1808,1840,1776
1936,1861,1823
1787,1856,1840
1645,1819,1854
1728,1783,1774
1756,1825,1776
1840,1887,1781
1758,1840,1750
1713,1803,1776
1781,1845,1874
1872,1890,1855
1706,1840,1781
1665,1808,1791
1840,1830,1847
1749,1872,1872
1793,1923,1908
1818,1875,1870
1755,1791,1762
1706,1776,1744
1809,1873,1845
1859,1837,1805
1871,1863,1778
1808,1875,1859
1686,1831,1819
1648,1837,1773
1779,1883,1882
1819,1872,1913
1721,1823,1894
1670,1782,1729
1826,1874,1827
1828,1901,1903
1739,1857,1872
1782,1853,1834
1879,1863,1854
1857,1891,1889
1781,1857,1808
1753,1814,1782
1850,1840,1787
1950,1878,1785
1843,1866,1893
1650,1838,1967
1713,1881,1956
1904,1878,1774
1794,1857,1819
1647,1795,1856
1714,1827,1855
1840,1879,1870
1933,1841,1793
1951,1861,1872
1787,1856,1843
1792,1859,1818
1793,1855,1869
1825,1885,1936
1858,1904,1935
1931,1958,1943
1870,1890,1813
1674,1793,1771
1755,1817,1783
1836,1856,1812
1855,1827,1851
1859,1844,1857
1911,1913,1911
1802,1873,1879
1785,1853,1840
1936,1903,1872
1889,1856,1827
1834,1858,1813
1923,1887,1840
1891,1840,1801
1746,1791,1854
1655,1840,1955
1710,1855,1898
1858,1865,1810
2005,1853,1834
1813,1905,1952
1839,1904,1961
1722,1794,1744
1892,1865,1789
1965,1887,1835
1918,1905,1866
1867,1808,1892
1654,1785,1821
1631,1873,1869
1809,1914,1925
2143,1931,1904
1936,1838,1840
1705,1835,1818
1787,1865,1850
1980,1891,1872
1883,1808,1790
1895,1925,1936
1840,1885,1889
1715,1837,1899
1759,1900,1962
1830,1905,1889
1785,1853,1734
1797,1857,1796
2017,1922,1927
1999,1886,1895
1751,1825,1759
1802,1829,1827
1968,1923,1890
2081,1969,2000
1843,1833,1839
1614,1790,1712
1857,1863,1847
1968,1900,1968
1905,1888,1887
1719,1837,1922
2083,1979,1985
2033,1898,1823
1564,1783,1714
1600,1795,1767
1840,1856,1901
1995,1915,1923
1840,1885,1883
1912,1856,1758
1885,1874,1895
1785,1899,1959
1814,1845,1851
1781,1829,1824
1921,1911,1968
2111,1967,1938
1887,1868,1806
1776,1818,1853
1808,1856,1894
1906,1872,1904
2035,1905,1846
1815,1841,1826
1722,1792,1743
1919,1868,1824
1865,1886,1939
1918,1959,2009
1907,1853,1858
1891,1817,1817
1799,1863,1840
1770,1841,1895
1969,1908,1871
1930,1871,1818
1857,1841,1883
1923,1858,1904
1771,1858,1882
1835,1888,1839
1894,1861,1808
1964,1894,1865
2012,1893,1920
1957,1856,1843
1725,1829,1778
1776,1851,1797
1845,1873,1890
1904,1858,1863
1921,1885,1840
1854,1890,1935
1808,1877,1946
1909,1861,1847
2155,1933,1820
1872,1850,1958
1655,1803,1846
1695,1808,1775
1968,1875,1806
2027,1862,1779
1824,1851,1875
1754,1878,1888
1821,1829,1879
1892,1874,1850
1959,1895,1871
1954,1898,1911
1819,1871,1874
1873,1863,1827
1988,1877,1867
2122,1893,1885
2243,1857,1759
1712,1744,1793
1403,1783,1917
1610,1855,1887
1859,1850,1773
1910,1885,1832
2000,1875,1883
1974,1862,1919
1947,1875,1903
1984,1886,1852
1915,1867,1840
1856,1861,1859
1808,1803,1741
1870,1836,1836
1795,1835,1870
1762,1842,1899
1856,1851,1836
1940,1878,1879
1988,1846,1814
1983,1895,1871
1791,1863,1903
1803,1876,1914
1959,1904,1929
1938,1870,1853
1819,1843,1827
1799,1861,1841
2099,1917,1847
2166,1805,1794
1849,1807,1830
1671,1792,1788
1798,1872,1872
2105,1966,1871
1849,1877,1923
1717,1835,1894
1767,1859,1891
1822,1859,1871
1973,1918,1837
2166,1904,1783
1847,1808,1809
1674,1838,1909
1740,1813,1862
1947,1830,1793
1982,1840,1745
1920,1882,1875
1888,1891,1939
1973,1900,1986
1986,1901,1885
1781,1842,1797
1825,1863,1797
1909,1860,1855
1877,1850,1890
1857,1886,1897
1799,1843,1840
1867,1810,1767
1955,1791,1683
1915,1879,1883
1893,1929,1936
1970,1872,1907
1915,1870,1897
1913,1873,1859
1981,1911,1899
1920,1806,1747
1738,1824,1860
1770,1887,1927
1805,1877,1874
1872,1840,1842
2005,1840,1781
2039,1920,1840
1837,1888,1898
1734,1837,1824
1825,1847,1842
2032,1918,1904
1995,1897,1899
1865,1856,1801
1856,1847,1825
1872,1858,1927
1926,1853,1829
1888,1859,1838
1956,1875,1851
1901,1897,1885
1882,1871,1814
1855,1847,1806
1827,1853,1834
1823,1865,1879
1817,1857,1901
1941,1853,1870
2096,1895,1841
2084,1878,1840
1827,1859,1889
1828,1828,1807
1862,1810,1823
1814,1869,1846
1763,1872,1840
1872,1852,1824
1919,1867,1869
1828,1884,1890
1872,1872,1846
2033,1857,1873
1889,1818,1755
1798,1846,1855
1907,1894,1915
2037,1844,1829
1904,1902,1882
1877,1879,1847
1910,1872,1883
1809,1815,1840
1774,1834,1802
1781,1877,1794
1863,1798,1804
2006,1861,1837
1983,1830,1841
1914,1889,1874
1811,1904,1862
2005,1903,1875
2074,1872,1808
1788,1808,1859
1618,1856,1886
1845,1857,1841
2097,1856,1783
1744,1776,1781
1687,1851,1849
1851,1853,1821
1910,1840,1850
1904,1873,1862
1914,1847,1872
1925,1904,1904
1945,1869,1884
1882,1755,1817
1969,1874,1827
2058,1856,1810
1762,1871,1749
1711,1859,1809
1897,1870,1829
1937,1842,1831
1853,1810,1858
1843,1837,1808
1995,1877,1909
1936,1854,1892
1723,1841,1707
1706,1799,1778
1830,1881,1868
1957,1855,1829
1923,1836,1819
1795,1781,1826
1763,1879,1830
1897,1842,1847
1867,1846,1871
1894,1841,1909
1905,1838,1859
1847,1823,1747
1946,1872,1879
1893,1839,1856
1840,1845,1755
1787,1829,1754
1943,1823,1808
1920,1856,1872
1885,1836,1828
1778,1802,1826
1730,1811,1823
1843,1862,1840
2021,1871,1872
1893,1837,1840
1744,1811,1805
1843,1907,1823
1838,1867,1834
1882,1794,1803
1916,1823,1813
1949,1839,1794
1765,1846,1840
1777,1835,1841
1901,1823,1837
1959,1904,1910
1794,1873,1899
1710,1776,1825
1774,1858,1755
2095,1889,1767
1983,1904,1723
1801,1821,1826
1722,1884,1915
1911,1817,1888
1914,1892,1824
1776,1826,1822
1807,1824,1819
1863,1786,1818
1856,1853,1780
1920,1861,1818
1947,1857,1789
1776,1782,1857
1796,1840,1916
1907,1866,1862
1919,1849,1829
1863,1847,1769
1794,1915,1845
1757,1857,1845
1856,1935,1869
1929,1867,1799
2021,1844,1744
2174,1891,1808
1794,1811,1844
1619,1827,1898
1747,1825,1857
1839,1859,1855
1860,1841,1801
1899,1850,1806
2067,1883,1874
1946,1871,1846
1768,1865,1827
1750,1915,1845
1840,1885,1797
2011,1819,1754
1907,1859,1811
1988,1930,1840
1851,1873,1842
1700,1833,1882
1693,1822,1856
1808,1849,1791
1936,1879,1819
2009,1904,1778
1857,1923,1867
1790,1905,1899
1871,1799,1744
1870,1847,1776
1865,1891,1872
1908,1899,1907
1949,1859,1822
1970,1845,1763
1829,1781,1798
1733,1840,1904
1805,1904,1829
1871,1808,1741
1877,1831,1773
1856,1872,1859
1871,1904,1919
1967,1853,1808
2092,1844,1761
1856,1825,1840
1737,1826,1852
1785,1808,1859
1865,1836,1820
1941,1826,1791
1932,1855,1872
1877,1859,1867
1759,1808,1844
1851,1913,1841
1844,1872,1824
1979,1901,1793
1937,1841,1779
1890,1883,1857
1836,1882,1905
1793,1797,1808
1857,1807,1834
1809,1881,1829
1843,1906,1806
1973,1765,1757
1971,1874,1873
1843,1783,1861
1803,1828,1815
1968,1872,1776
1899,1882,1819
1695,1872,1897
1814,1873,1878
2042,1831,1808
1937,1808,1754
1861,1872,1871
1856,1856,1881
1803,1808,1856
1801,1844,1827
1840,1847,1681
1745,1879,1824
1806,1869,1898
1967,1904,1917
1986,1885,1837
1809,1846,1869
1836,1854,1839
1767,1814,1795
1877,1840,1881
1968,1822,1786
1925,1853,1796
1791,1862,1811
1770,1881,1857
1966,1859,1819
1812,1837,1853
1692,1847,1871
1872,1876,1874
1968,1886,1910
1866,1813,1785
1915,1871,1787
1950,1811,1749
1749,1773,1755
1712,1831,1870
1830,1849,1905
1830,1844,1877
1865,1874,1803
1799,1856,1821
1774,1858,1873
1847,1872,1831
1856,1831,1783
1891,1835,1856
2000,1853,1855
2042,1846,1818
2105,1856,1799
1841,1764,1651
1631,1758,1813
1701,1871,1956
1781,1905,2000
1853,1838,1851
1779,1794,1680
1782,1831,1853
1975,1861,1879
2143,1891,1863
1835,1817,1827
1567,1801,1783
1614,1811,1763
1936,1866,1776
1961,1859,1841
1767,1869,1943
1783,1841,1844
1951,1818,1765
1858,1814,1858
1786,1849,1819
2000,1825,1769
2093,1811,1787
1631,1811,1820
1619,1887,1905
1728,1840,1830
2047,1853,1794
2135,1839,1791
1616,1803,1847
1579,1871,1899
1748,1862,1890
1819,1821,1861
1869,1842,1809
1904,1856,1776
2256,1875,1845
2208,1842,1775
1535,1782,1827
1433,1827,1834
1607,1817,1808
1795,1835,1837
2118,1863,1775
2681,1936,1789
1791,1755,1766
1143,1785,1852
1411,1840,1874
1847,1860,1801
2240,1865,1803
1843,1809,1866
1653,1825,1880
1717,1840,1811
1807,1837,1809
1865,1851,1840
1886,1875,1866
1861,1869,1840
1856,1840,1825
1872,1850,1879
1870,1885,1825
1866,1884,1808
1842,1855,1811
1863,1853,1840
1888,1862,1859
1878,1865,1838
1856,1833,1819
1854,1835,1839
1870,1855,1854
1874,1875,1857
1872,1846,1835
1875,1841,1840
1888,1873,1850
1881,1867,1845
1855,1840,1825
1868,1853,1851
1893,1860,1870
1883,1849,1848
1870,1822,1824
1872,1819,1838
1874,1840,1846
1876,1840,1825
1889,1831,1846
1910,1840,1876
1920,1861,1890
1903,1856,1872
1893,1842,1833
1904,1848,1862
1911,1866,1883
1911,1856,1872
1919,1839,1870
1937,1840,1883
1939,1855,1901
1929,1861,1889
1917,1839,1862
1924,1834,1869
1953,1845,1903
1962,1845,1905
1938,1839,1898
1954,1835,1921
1971,1842,1939
1961,1836,1928
1936,1817,1904
1954,1830,1926
1999,1844,1963
1996,1834,1954
1983,1809,1935
1990,1813,1949
2001,1834,1963
1984,1826,1949
1973,1808,1936
1990,1824,1959
2028,1835,1978
2023,1825,1974
2009,1808,1965
2017,1812,1988
2030,1827,2003
2023,1825,1982
2006,1808,1951
2026,1819,1998
2039,1838,2012
2042,1831,1999
2036,1824,1989
2059,1835,2013
2071,1857,2000
2062,1853,1963
2034,1839,2006
2047,1833,2032
2074,1846,2066
2078,1913,2017
2081,1927,2014
2083,1847,1991
2096,1840,2006
2077,1851,1995
2078,1867,1986
2102,1882,2023
2110,1953,2077
2129,2085,2071
2095,1871,2032
2064,1705,2000
2092,1766,2009
2119,1859,2037
2119,1879,2041
2135,2063,2059
2146,1971,2128
2082,1727,2002
2118,1733,1991
2159,1631,2096
2130,1843,2134
2117,2059,2046
2259,1997,2146
2211,1854,2089
2014,1751,1973
1994,1829,1946
2063,1821,1938
2107,1799,2021
2147,1841,2087
2139,1853,2041
2126,1812,2007
2119,1871,2016
2121,1904,2027
2118,1907,2035
2113,1891,2026
2107,1845,2000
2126,1889,2065
2117,1961,2034
2099,1933,2007
2096,1914,1998
2108,1887,2031
2069,1923,1989
2096,1968,1958
2107,1962,2030
2111,1977,2021
2193,2086,2014
2224,2015,1821
2016,1825,2000
1990,1837,2035
2043,1908,1997
2078,1931,1973
2107,1943,2003
2087,1950,1999
2069,1923,2000
2093,1904,2003
2119,2002,2080
2080,1986,2037
2078,1914,2073
2114,1907,2198
2116,1979,2181
2097,2094,2234
2021,1872,2176
2009,1761,2243
2062,1891,2363
2144,1997,2405
2117,1835,2352
2063,1827,2409
2153,1898,2481
2320,1936,2468
2358,1906,2466
1922,1886,2593
1858,1945,2559
2001,1943,2647
2080,1931,2616
2083,1913,2559
2128,1967,2640
2178,2192,2727
2100,1972,2559
2046,1738,2559
2142,1868,2654
2351,2097,2768
2287,2071,2841
2013,1885,2672
1989,1867,2667
2127,1961,2768
2243,2055,2892
2336,2115,2966
2183,2000,2815
2070,1911,2685
2257,2114,2854
2657,2594,3184
2353,2292,2993
1889,1593,2500
2041,1731,2559
2166,1846,2699
2319,2033,2836
2397,2355,2997
2016,2037,2699
1941,1663,2533
2087,1741,2558
2391,1995,2774
2521,2097,2765
2112,1903,2619
2047,1899,2704
2035,1847,2689
2091,1806,2629
2272,1872,2583
2328,1927,2532
2913,2176,2800
2800,2022,2640
1685,1683,2352
1493,1749,2510
1883,1887,2615
2109,1882,2559
2333,1935,2601
2509,1956,2763
2124,1948,2634
1795,1970,2699
1935,1858,2614
1893,1819,2521
1993,1987,2815
2132,1878,2711
2117,1802,2735
2217,1893,2829
2192,1840,2661
1955,1869,2824
1821,1794,2837
1949,1840,2798
1949,1787,2749
1668,1711,2667
1871,1802,2851
2135,1808,2881
2071,1779,2850
1893,1795,2806
2130,1932,2961
1920,1779,2674
1763,1717,2559
2062,1782,2686
1971,1759,2710
1655,1719,2640
1801,1802,2688
2114,1870,2595
2008,1781,2546
1664,1710,2496
1801,1825,2544
1954,1823,2195
1910,1829,2308
2029,1861,2293
2035,1778,2163
2066,1801,2092
1695,1680,1870
1584,1740,1883
1837,1842,1977
1953,1840,2011
1957,1815,1990
1886,1851,2015
1847,1840,1839
1855,1794,1617
2003,1878,1845
1975,1872,1948
1733,1791,1669
1712,1750,1582
1970,1817,1627
2065,1830,1680
1974,1857,1739
2045,1931,1741
1766,1781,1664
1599,1766,1671
1807,1831,1582
1954,1825,1535
1856,1812,1511
1856,1760,1472
2099,1791,1635
1918,1745,1617
1485,1680,1395
1483,1755,1408
1812,1801,1600
2044,1818,1558
1711,1680,1335
1584,1681,1387
1808,1748,1419
1821,1779,1505
1673,1715,1582
1648,1638,1392
1886,1712,1302
1712,1675,1280
1801,1723,1399
1921,1712,1467
1414,1631,1358
1283,1664,1207
1495,1675,1259
1904,1687,1303
1943,1747,1438
1679,1695,1397
1744,1651,1264
1783,1671,1392
1623,1650,1287
1566,1603,1280
1529,1530,1231
1406,1535,1294
1575,1631,1286
1669,1690,1204
1682,1690,1392
1563,1612,1310
1357,1601,1171
1802,1744,1296
2288,1755,1202
1397,1415,950
1011,1495,959
1510,1655,1195
1686,1552,1200
1474,1535,1087
1437,1649,1091
1535,1646,1038
2403,1791,1179
1569,1430,904
909,1461,890
1023,1564,897
1645,1622,967
2011,1670,1104
1535,1600,1079
1296,1605,1088
1639,1661,1091
1670,1617,944
1619,1616,1088
1598,1566,1049
1535,1635,977
1774,1616,935
1456,1522,832
1469,1590,950
1484,1584,1098
1286,1588,1060
1473,1648,1093
1634,1616,1091
1574,1579,1077
1507,1634,1014
1487,1626,1135
1411,1635,1082
1424,1570,1023
1591,1600,1073
1855,1689,1127
1558,1617,1164
1458,1631,1261
1485,1659,1200
1488,1658,1071
1491,1635,943
1535,1658,925
1472,1645,923
1521,1614,930
1630,1616,787
1871,1666,767
1751,1620,732
1487,1661,900
1523,1744,1005
1887,1706,742
1505,1563,714
1088,1616,667
1186,1647,708
1675,1660,752
1684,1664,663
1507,1675,734
1655,1689,734
1584,1657,674
1509,1713,738
1778,1786,867
1691,1742,834
1362,1636,785
1384,1651,753
1524,1680,698
1778,1742,851
1744,1680,939
1458,1615,745
1482,1696,671
2006,1756,816
1587,1674,798
1309,1717,947
1440,1798,975
1992,1868,1091
1725,1667,879
1376,1618,755
1518,1703,889
1552,1795,928
1783,1794,969
1694,1707,1021
1361,1701,992
1426,1751,1055
1649,1731,1043
1854,1831,1088
1711,1808,1184
1397,1727,978
1426,1721,930
1723,1798,1043
1680,1759,1162
1535,1774,1152
1535,1778,1119
1597,1776,1111
1713,1729,1035
1812,1751,1079
1676,1783,1247
1663,1826,1359
1830,1909,1315
1520,1782,1184
1425,1714,1207
1683,1733,1195
1921,1854,1282
1638,1822,1289
1488,1798,1312
1482,1785,1266
1735,1821,1343
1584,1766,1261
1437,1754,1306
1460,1783,1381
1713,1856,1466
1837,1808,1419
1682,1799,1387
1492,1810,1335
1575,1840,1391
1694,1806,1442
1771,1803,1466
1664,1796,1371
1760,1904,1425
1936,1890,1474
1871,1714,1456
1420,1687,1351
1429,1868,1563
1730,1911,1559
1716,1852,1583
1711,1823,1515
1936,1865,1558
1573,1809,1487
1407,1808,1467
1630,1889,1666
1890,1885,1682
1759,1822,1443
1651,1837,1488
1597,1865,1699
1657,1823,1694
1729,1866,1675
1727,1824,1578
1530,1861,1600
1712,1882,1651
1850,1895,1745
1901,1872,1682
1744,1836,1560
1613,1872,1723
1727,1898,1798
1753,1872,1647
1755,1890,1666
1708,1869,1727
1644,1840,1769
1700,1849,1765
1860,1865,1748
1693,1881,1759
1579,1845,1705
1603,1840,1678
1984,1929,1791
2018,1903,1755
1584,1856,1803
1552,1851,1820
1573,1840,1728
1728,1901,1847
1909,1899,1867
1695,1847,1801
1669,1872,1831
1809,1897,1837
2027,1959,1888
1803,1865,1803
1793,1902,1835
1680,1847,1824
1686,1834,1835
1711,1862,1872
1676,1872,1856
1907,1962,1915
1759,1881,1877
1627,1868,1840
1717,1892,1828
1781,1919,1941
1651,1845,1875
1751,1825,1849
1953,1861,1877
1645,1898,1950
1697,1915,1946
1678,1847,1845
1715,1872,1866
1822,1933,1958
1807,1920,1929
1783,1877,1915
1900,1863,1938
1910,1893,1971
1584,1895,1968
1653,1901,1921
1857,1920,1959
1904,1886,1979
1900,1883,1947
1773,1850,2038
1646,1886,2006
1783,1936,1957
2000,1930,1902
1927,1867,1926
1646,1855,1935
1601,1893,1959
1745,1920,2015
1837,1903,2031
1805,1921,2080
1817,1902,1952
1782,1878,1895
1686,1863,1927
1721,1904,2053
1962,1975,2119
2010,1904,2064
1787,1876,1994
1642,1867,1957
1933,1971,2016
1984,1923,1979
1809,1904,2062
1615,1877,1965
1669,1907,2000
1818,1939,2022
1898,1903,2010
1888,1903,1877
1938,1904,2009
1859,1953,2160
1776,1959,2143
1638,1900,1993
1888,1949,2026
1983,1843,1929
1791,1833,1863
1668,1888,2033
1792,1972,2121
1910,1944,2035
2071,1950,2034
1861,1878,1982
1571,1863,2001
1791,1927,1997
2074,1935,2064
1747,1847,2099
1569,1854,2083
1696,1863,1933
2090,1990,2032
2022,1930,2047
1646,1890,1998
1609,1874,2007
1838,1917,2060
2021,1879,2094
2085,1890,1999
1708,1888,1969
1590,1879,2041
1677,1869,2042
1789,1913,2096
1845,1950,2073
1926,1931,2059
2077,1859,2047
2095,1926,1990
1759,1941,2039
1791,1941,2041
1931,1845,1975
1877,1909,2074
1783,1905,2032
1845,1889,1958
1818,1840,1931
1681,1908,2075
1770,1933,2163
1865,1887,2089
1842,1889,2025
1914,1903,2023
2032,1937,2128
2032,1904,2064
1812,1872,2017
1653,1850,1968
1715,1855,1939
1901,1874,2018
1974,1914,2028
1808,1925,1998
1761,1913,2013
1871,1905,2046
1911,1872,2006
1958,1930,2091
1979,1912,2016
1920,1921,2081
1781,1895,2089
1695,1873,2007
1895,1898,1988
1917,1875,1930
1871,1855,2064
1833,1919,2145
1919,1922,2065
1917,1879,1982
1775,1855,2046
1827,1941,2070
2342,2031,2046
1973,1758,1822
1570,1759,1934
1563,1882,2089
1875,1905,2089
2064,1957,2091
1859,1903,1991
1713,1895,1972
1873,1918,1987
2020,1963,2009
1815,1930,2070
1712,1802,2002
2144,2010,2131
2064,1875,2033
1739,1824,1821
1729,1851,1953
1921,1985,2099
1904,1834,1970
1776,1866,1981
1807,1970,2091
1977,1919,2035
1862,1875,1968
1870,1906,1973
2031,1945,2037
2113,1901,2017
1873,1883,1931
1654,1835,1981
1697,1862,2053
1877,1895,2009
1989,1921,1998
1830,1872,1974
1786,1854,1949
1836,1904,1968
1947,1935,2069
1938,1879,1966
1887,1867,1918
1918,1897,2032
1966,1924,2054
2103,1929,1988
2011,1883,1903
1766,1823,1905
1878,1861,2000
1872,1923,2147
1697,1873,2021
1767,1835,1866
1840,1874,1925
1910,1895,1974
1926,1909,1936
1967,1897,1936
1969,1923,2025
2038,1904,2082
1846,1831,1851
1762,1821,1840
1738,1887,1921
1771,1901,1995
1904,1941,2032
2011,1895,2010
1971,1896,1975
1887,1818,1942
1938,1824,1921
1965,1899,1930
1831,1852,1955
1868,1872,1938
1786,1921,2011
1808,1919,1987
1930,1840,1874
1849,1846,1891
1784,1865,1929
1918,1882,2018
1936,1866,1936
1854,1842,1901
1959,1936,1972
2010,1951,1947
2032,1909,1934
1919,1904,1984
1770,1872,1936
1655,1856,1811
1776,1786,1813
1911,1837,1901
1946,1904,2064
1846,1904,1990
1894,1828,1894
1938,1911,1838
1911,1855,1872
1859,1921,1862
2057,1916,2038
2023,1822,2021
1664,1850,1906
1648,1876,1881
1831,1875,1875
1885,1834,1914
1954,1843,1963
1929,1917,1969
2027,1940,1941
1914,1862,1860
1743,1805,1817
1798,1869,1887
1842,1858,1919
1865,1792,1846
1999,1872,1915
1971,1914,2039
1929,1828,1951
1904,1857,1815
2109,1895,1915
1954,1807,1966
1664,1843,1795
1600,1813,1757
1759,1786,1831
2031,1892,1917
1966,1872,1942
1807,1829,1957
1791,1840,1895
1862,1866,1909
1938,1862,1868
1907,1827,1902
2035,1887,1920
2009,1842,1936
1750,1786,1743
1615,1801,1773
1746,1873,1918
1983,1850,1966
2077,1813,1857
1794,1862,1799
1715,1919,1902
2034,1883,1938
2214,1873,1903
1697,1856,1838
1535,1815,1840
1807,1861,1866
2123,1904,1926
1863,1872,1833
1728,1794,1860
1904,1839,1907
2038,1758,1822
1912,1776,1784
1796,1923,1946
1771,1922,1951
1788,1831,1861
1883,1808,1786
1979,1917,1913
2044,1904,1872
1825,1811,1825
1705,1818,1872
1783,1844,1866
1931,1866,1858
1941,1833,1798
1861,1863,1885
1875,1853,1930
2000,1874,1868
1892,1822,1785
1892,1841,1924
1814,1824,1895
1934,1974,1889
1967,1877,1776
1697,1788,1805
1695,1841,1883
1936,1891,1892
1909,1822,1810
1906,1829,1909
1898,1801,1843
1873,1856,1838
1776,1819,1798
1840,1806,1889
1883,1872,1870
1929,1863,1855
1818,1808,1757
1829,1798,1830
1806,1854,1895
1811,1886,1876
1915,1869,1856
2193,1881,1973
1915,1781,1857
1683,1821,1819
1746,1835,1773
1909,1837,1814
1856,1831,1792
1721,1837,1834
1920,1825,1814
2017,1826,1846
1850,1838,1903
1759,1867,1891
1901,1879,1849
1837,1797,1840
1865,1857,1886
2013,1937,1905
2163,1889,1789
1770,1731,1712
1535,1797,1898
1712,1841,1834
1920,1845,1793
2154,1904,1886
2022,1828,1819
1899,1821,1855
1699,1801,1875
1714,1870,1871
1875,1859,1867
2001,1847,1875
1834,1791,1774
1750,1827,1782
1792,1856,1827
1856,1874,1847
1883,1811,1838
1890,1850,1914
1984,1889,1935
1989,1825,1882
1776,1778,1694
1925,1816,1713
2124,1890,1829
1968,1857,1799
1535,1821,1867
1694,1831,1883
1862,1847,1901
1858,1840,1891
1958,1859,1830
2046,1852,1846
1813,1801,1831
1664,1837,1810
1779,1851,1766
2061,1829,1741
1972,1822,1841
1831,1899,1953
1823,1913,1932
1887,1843,1810
1913,1824,1786
1840,1824,1829
1813,1821,1838
1813,1807,1775
1923,1859,1795
1790,1843,1886
1772,1855,1901
2006,1908,1870
2141,1917,1873
1869,1826,1798
1584,1757,1755
1691,1817,1827
1930,1853,1866
2133,1845,1805
1905,1803,1781
1762,1839,1854
1712,1873,1919
1815,1857,1854
1863,1891,1799
1870,1840,1795
1904,1812,1797
1839,1881,1879
1883,1888,1961
1945,1894,1903
1850,1829,1722
1863,1809,1730
1861,1813,1791
1936,1831,1776
1897,1862,1824
1889,1840,1767
1798,1827,1773
1861,1905,1994
1881,1891,2017
1747,1808,1808
1710,1789,1723
1771,1856,1787
1926,1911,1911
1987,1865,1852
1907,1813,1711
1859,1841,1711
1796,1847,1868
1746,1845,1885
1863,1853,1861
2096,1845,1895
1947,1827,1873
1806,1891,1855
1920,1942,1895
1942,1856,1802
1796,1775,1793
1735,1793,1775
1757,1817,1821
1985,1833,1808
2222,1856,1734
1941,1824,1783
1591,1834,1841
1643,1871,1908
1797,1850,1917
1823,1866,1856
2061,1898,1873
2014,1856,1808
1860,1859,1854
1746,1809,1829
1823,1829,1797
1914,1808,1737
1810,1805,1749
1862,1894,1904
1906,1867,1914
1854,1811,1814
1794,1843,1810
1803,1858,1843
1941,1904,1906
1920,1870,1873
1835,1824,1774
1858,1819,1790
1829,1805,1767
1829,1834,1821
1927,1872,1947
1920,1904,1895
1883,1879,1783
1945,1885,1869
1744,1823,1831
1710,1809,1776
1821,1808,1735
2034,1894,1891
2088,1904,1856
1862,1834,1747
1690,1767,1782
1671,1801,1834
1754,1882,1841
1904,1904,1858
2064,1867,1872
2100,1859,1891
1920,1841,1885
1709,1821,1802
1673,1797,1755
1796,1809,1779
2139,1919,1878
2005,1885,1887
1732,1746,1770
1675,1792,1699
1929,1883,1799
1895,1840,1938
1815,1839,1908
1814,1811,1817
1847,1861,1849
1923,1909,1866
1917,1839,1847
1823,1840,1794
1795,1848,1804
1814,1837,1830
1848,1866,1840
1914,1837,1887
1911,1814,1793
2002,1882,1904
1853,1820,1869
1757,1838,1813
1823,1869,1795
1770,1872,1807
1856,1845,1817
1955,1840,1835
1870,1853,1856
1907,1827,1786
1846,1857,1857
1873,1904,1904
1931,1855,1831
1921,1837,1821
1783,1822,1851
1802,1825,1850
1872,1872,1832
1786,1899,1867
1731,1842,1853
1853,1828,1761
1958,1915,1856
1895,1879,1931
1845,1808,1770
1935,1852,1815
1887,1839,1807
1743,1879,1973
1863,1907,1843
1913,1845,1772
1792,1809,1801
1744,1835,1900
1872,1842,1806
1959,1838,1831
1817,1847,1808
1916,1901,1828
1850,1856,1872
1819,1871,1934
1885,1844,1815
1824,1808,1712
1845,1856,1885
1863,1850,1891
1808,1861,1846
1834,1870,1760
1931,1840,1765
1871,1791,1825
1888,1891,1966
1958,1867,1822
1854,1840,1749
1774,1823,1881
1782,1835,1884
1866,1857,1881
1904,1851,1918
1894,1811,1805
1872,1860,1744
1891,1883,1906
1831,1838,1897
1842,1865,1798
1938,1855,1744
1841,1858,1825
1827,1840,1826
1885,1843,1874
1971,1852,1893
1893,1843,1849
1718,1822,1829
1685,1830,1761
1814,1873,1846
1971,1887,1856
2005,1841,1853
1805,1840,1843
1712,1814,1813
1782,1855,1849
1927,1841,1827
1947,1816,1795
1786,1827,1850
1903,1921,1915
1887,1872,1776
1947,1831,1771
1856,1837,1870
1700,1855,1856
1691,1833,1731
1856,1840,1795
1963,1857,1807
1904,1843,1839
2062,1903,1915
2030,1887,1904
1652,1759,1782
1556,1808,1802
1728,1872,1835
1904,1861,1872
1958,1875,1867
2115,1851,1791
1835,1855,1829
1712,1867,1893
1843,1887,1840
1841,1840,1773
1914,1843,1837
1846,1795,1831
1861,1871,1872
1875,1905,1906
1879,1825,1742
1958,1862,1856
1782,1819,1815
1703,1827,1833
1890,1831,1774
1920,1833,1819
1947,1879,1815
1773,1863,1825
1740,1878,1946
1968,1905,1920
1955,1831,1730
1801,1803,1698
1776,1857,1805
1797,1819,1859
1854,1829,1901
1826,1856,1793
1858,1849,1772
1871,1869,1883
1847,1872,1983
1893,1851,1843
1845,1856,1745
1853,1884,1879
1916,1872,1885
1869,1828,1761
1930,1824,1860
1783,1863,1867
1744,1867,1890
1872,1840,1846
1875,1831,1786
1898,1853,1834
1924,1866,1876
1870,1856,1757
1763,1807,1767
1799,1841,1861
1843,1861,1899
1876,1887,1779
1951,1883,1822
1813,1840,1885
1792,1847,1898
1799,1847,1808
1861,1886,1777
1865,1866,1808
1925,1846,1858
1982,1840,1780
1893,1821,1733
