1950,1779,1873
1891,1737,1851
1840,1711,1862
1920,1761,1894
1972,1783,1883
1899,1741,1851
1872,1713,1851
1897,1731,1871
1919,1745,1856
1889,1712,1829
1865,1695,1844
1904,1740,1868
1904,1763,1856
1863,1718,1823
1840,1687,1840
1886,1734,1856
1899,1746,1840
1840,1706,1814
1808,1683,1844
1853,1728,1856
1895,1757,1854
1808,1712,1822
1776,1680,1821
1828,1719,1841
1886,1747,1824
1823,1699,1792
1751,1675,1797
1842,1712,1834
1872,1742,1823
1815,1695,1785
1801,1676,1805
1826,1723,1833
1846,1735,1819
1806,1685,1779
1763,1669,1792
1807,1712,1809
1805,1743,1808
1800,1687,1779
1789,1664,1785
1776,1706,1808
1822,1729,1802
1778,1687,1770
1760,1664,1776
1793,1705,1801
1840,1732,1792
1773,1691,1767
1758,1679,1777
1786,1696,1795
1767,1706,1778
1751,1675,1747
1682,1664,1772
1763,1715,1801
1808,1735,1783
1792,1690,1744
1694,1660,1767
1798,1699,1792
1776,1727,1772
1794,1694,1746
1729,1671,1763
1810,1701,1778
1783,1715,1767
1775,1671,1744
1696,1655,1756
1798,1696,1783
1808,1722,1774
1727,1682,1734
1701,1659,1744
1723,1705,1781
1781,1733,1773
1726,1691,1732
1705,1679,1746
1744,1706,1775
1767,1733,1766
1751,1697,1744
1621,1677,1751
1767,1703,1771
1776,1727,1744
1731,1704,1731
1711,1695,1769
1742,1724,1785
1767,1733,1758
1718,1700,1729
1698,1694,1759
1728,1712,1783
1753,1729,1765
1712,1702,1725
1699,1683,1759
1712,1723,1777
1798,1729,1759
1747,1706,1728
1730,1680,1742
1719,1721,1778
1742,1744,1770
1683,1712,1739
1591,1694,1747
1695,1724,1770
1766,1745,1754
1664,1709,1729
1695,1690,1744
1667,1731,1773
1764,1757,1757
1698,1711,1719
1692,1680,1739
1712,1723,1767
1733,1762,1765
1694,1718,1727
1588,1701,1730
1702,1725,1759
1757,1744,1754
1674,1715,1728
1665,1705,1738
1703,1746,1782
1743,1776,1773
1683,1714,1726
1725,1687,1737
1699,1730,1771
1721,1762,1761
1670,1723,1719
1649,1697,1737
1703,1739,1761
1728,1771,1773
1682,1734,1744
1653,1699,1744
1690,1739,1775
1730,1776,1765
1651,1734,1744
1655,1691,1744
1676,1741,1776
1753,1767,1759
1622,1717,1723
1615,1712,1731
1682,1753,1776
1724,1776,1774
1698,1737,1728
1717,1715,1742
1689,1759,1783
1746,1793,1781
1659,1751,1748
1665,1707,1745
1678,1746,1774
1710,1787,1767
1675,1747,1741
1653,1729,1756
1714,1763,1799
1743,1785,1781
1680,1744,1747
1647,1718,1746
1686,1747,1776
1729,1779,1769
1694,1750,1740
1664,1728,1746
1698,1763,1776
1728,1793,1777
1681,1744,1749
1643,1728,1744
1681,1780,1761
1730,1822,1777
1687,1754,1746
1648,1723,1755
1687,1772,1789
1734,1805,1776
1698,1776,1746
1654,1743,1751
1687,1779,1777
1727,1808,1774
1680,1775,1745
1652,1743,1754
1689,1776,1786
1728,1809,1781
1691,1792,1761
1666,1756,1771
1712,1782,1794
1735,1811,1791
1683,1777,1761
1650,1769,1767
1691,1781,1795
1723,1808,1785
1678,1762,1751
1647,1737,1745
1700,1780,1803
1743,1819,1807
1697,1831,1776
1659,1809,1778
1680,1768,1796
1728,1788,1790
1691,1793,1771
1674,1810,1783
1719,1803,1824
1771,1803,1831
1705,1775,1783
1611,1760,1744
1687,1863,1798
1772,1839,1833
1790,1933,1858
1678,1770,1795
1639,1602,1760
1709,1712,1783
1682,1753,1776
1680,1785,1807
1751,1762,1840
1810,1844,1853
1669,1808,1759
1616,1951,1738
1671,1701,1732
1698,1580,1755
1667,1703,1755
1646,1719,1767
1689,1831,1825
1744,1859,1817
1679,1777,1741
1639,1811,1778
1702,1967,1831
1722,1990,1805
1668,1893,1739
1649,1938,1769
1679,2141,1831
1667,2025,1775
1615,1887,1738
1632,1995,1775
1674,2283,1781
1745,2431,1802
1739,2490,1793
1591,2559,1683
1584,2608,1715
1697,2825,1773
1662,3021,1731
1634,3338,1767
1744,3630,1795
1743,3787,1697
1584,3889,1664
1463,4095,1745
1526,4095,1763
1613,4095,1739
1583,4095,1712
1535,4095,1681
1584,4095,1722
1603,4095,1692
1535,4095,1664
1486,4095,1664
1520,4095,1681
1526,4095,1616
1506,4095,1589
1479,4095,1619
1520,4095,1677
1563,4095,1675
1520,4095,1645
1509,4095,1648
1570,4095,1695
1598,4095,1703
1578,4095,1619
1456,4095,1591
1488,4095,1691
1599,4095,1729
1563,4095,1675
1493,4095,1644
1535,4095,1674
1683,4095,1749
1711,4095,1699
1638,4095,1648
1457,4095,1573
1458,4095,1627
1535,4095,1737
1573,4095,1695
1801,4095,1818
1843,4095,1803
1435,4095,1526
1431,4095,1623
1488,4095,1687
1598,4095,1706
1877,4095,1882
1763,4095,1803
1446,4095,1595
1408,4095,1379
1396,4095,1479
1535,4095,1689
1573,4095,1712
1498,4095,1711
1474,4095,1535
1496,4095,1655
1513,4095,1659
1555,4095,1614
1527,4095,1530
1520,4095,1495
1493,4095,1634
1502,4095,1653
1411,4095,1591
1404,4095,1516
1535,4095,1648
1700,4095,1705
1534,4095,1518
1441,4095,1515
1501,4095,1535
1664,4095,1499
1568,4095,1628
1535,4095,1707
1527,4095,1523
1392,4095,1391
1431,4095,1305
1664,4095,1573
1627,4095,1625
1455,4095,1337
1486,4095,1445
1610,4095,1690
1680,4095,1719
1616,4095,1492
1478,4095,1375
1200,4095,1495
1346,4095,1565
1535,4095,1623
1749,4095,1651
1708,4095,1648
1600,3699,1429
1392,3376,1433
1345,3245,1467
1433,3167,1562
1583,3236,1658
1535,3296,1643
1584,3070,1571
1455,2753,1447
1329,2673,1421
1506,2736,1527
1600,2661,1573
1487,2476,1593
1578,2370,1493
1761,2377,1535
1504,2317,1799
1338,2256,1675
1419,2065,1507
1593,2087,1500
1557,1964,1509
1511,1961,1561
1554,1805,1535
1766,1966,1782
1584,1675,1686
1280,1418,1505
1250,1395,1453
1435,1441,1573
1481,1344,1458
1531,1351,1584
1488,1206,1502
1578,1154,1527
1615,1123,1669
1250,878,1469
1281,794,1418
1570,821,1535
1423,767,1488
1331,713,1559
1293,592,1488
1423,600,1469
1484,575,1456
1344,398,1568
1323,403,1633
1479,439,1509
1493,287,1312
1487,272,1570
1519,296,1642
1577,269,1607
1325,123,1385
1159,0,1397
1216,71,1510
1429,52,1573
1535,18,1487
1409,0,1469
1311,0,1535
1362,0,1717
1637,0,1632
1360,0,1333
1161,0,1456
1339,0,1520
1488,0,1557
1401,0,1535
1387,0,1554
1591,0,1632
1423,0,1503
1270,0,1505
1355,0,1680
1401,0,1574
1449,0,1585
1576,0,1535
1511,0,1492
1377,0,1535
1301,0,1565
1296,0,1601
1439,0,1661
1594,0,1654
1777,0,1610
1488,0,1493
1163,0,1535
1327,0,1642
1642,0,1664
1535,0,1535
1366,0,1645
1447,0,1639
1488,0,1659
1525,0,1665
1823,0,1717
1866,0,1728
1121,0,1535
1158,0,1510
1680,0,1645
1654,0,1622
1357,0,1621
1310,0,1662
1494,0,1755
1726,0,1782
1745,0,1676
1493,0,1611
1489,0,1682
1671,0,1733
1695,0,1650
1370,0,1616
1363,0,1732
1520,0,1791
1525,0,1703
1535,0,1655
1650,0,1711
1677,0,1745
1678,0,1790
1638,0,1814
1502,0,1718
1584,0,1693
1721,0,1680
1592,0,1757
1535,0,1770
1615,0,1791
1610,0,1762
1583,0,1712
1699,0,1776
1832,0,1854
1617,0,1773
1515,0,1739
1616,0,1781
1728,0,1819
1709,0,1783
1655,0,1775
1679,0,1834
1743,0,1845
1723,0,1806
1668,0,1787
1707,0,1830
1763,0,1853
1739,0,1824
1688,0,1805
1730,0,1838
1797,0,1855
1765,0,1815
1743,0,1818
1873,0,1843
1883,0,1904
1699,0,1840
1654,0,1805
1878,0,1806
2002,0,1871
1734,0,1904
1631,0,1822
1850,0,1881
1977,37,1972
1904,91,1966
1728,0,1855
1995,16,1776
3093,267,1973
1846,39,1940
960,0,1823
1520,131,1939
1873,194,1895
1835,190,1856
2036,254,1869
2514,480,2142
2255,365,2030
2858,405,1831
1297,33,1642
919,231,1990
1518,412,2111
1898,421,1901
1919,400,1810
1895,470,1905
1984,579,2005
1918,572,1981
1915,485,1914
2006,567,1899
2161,697,2046
1889,623,1971
1679,557,1857
1711,618,1893
1906,758,2017
2058,759,1993
2073,710,1902
2123,778,1920
2030,815,1943
1845,784,1899
1821,751,1872
1771,774,1957
1959,918,2015
2093,960,1941
1751,816,1913
1723,868,1936
1877,963,1950
1914,976,1909
2064,982,1891
2471,1101,1993
2223,1134,2032
1558,991,1918
1499,893,1769
2080,1100,1941
2158,1198,2068
1744,1104,1921
1625,1061,1811
1977,1163,1886
2675,1317,2061
1936,1149,1808
1477,1119,1847
1646,1195,1936
1891,1296,1957
2178,1314,1838
2046,1170,1911
1808,1295,2023
1834,1350,1933
2066,1431,1928
2331,1439,1893
1764,1284,1862
1618,1345,1877
1922,1455,1921
2025,1392,1824
1979,1424,1921
1888,1526,2081
1781,1472,1923
2032,1472,1815
2118,1489,1791
1964,1647,2026
1887,1615,2038
1950,1509,1839
1783,1516,1766
1801,1648,1909
1808,1644,1949
1885,1599,1916
2000,1648,1984
2091,1764,1915
1970,1707,1851
1855,1655,1857
2037,1743,1921
2068,1801,1915
1798,1715,1843
1671,1691,1863
1871,1806,1991
2010,1845,1936
2000,1815,1829
2065,1840,1906
2001,1797,1902
1908,1840,1902
1828,1840,1847
1787,1802,1780
1936,1905,1937
2085,1968,2045
2160,1945,1917
1872,1836,1794
1760,1823,1859
2099,2112,1991
2064,2030,1941
1695,1808,1781
1776,1857,1778
2016,1966,1756
2241,2046,1861
1855,1959,1993
1658,1968,1998
1830,2036,1933
1965,2037,1843
1972,1969,1799
2032,2024,1851
2119,2151,1963
1862,2002,1808
1757,1951,1797
1933,2043,1865
1955,2129,1874
1961,2114,1890
1839,2045,1878
1887,2087,1889
1968,2151,1903
1949,2141,1877
1931,2096,1840
1914,2098,1851
1915,2158,1874
1937,2163,1877
1903,2160,1878
1889,2134,1826
1991,2221,1882
2047,2222,1877
1873,2130,1823
1838,2160,1856
1965,2234,1925
1979,2203,1801
1872,2160,1771
2020,2247,1904
1985,2275,1952
1874,2240,1869
1837,2198,1823
1862,2192,1827
1973,2262,1847
2016,2303,1895
1936,2215,1815
1934,2204,1852
1929,2292,1961
1855,2266,1867
1892,2225,1793
1910,2240,1910
1991,2378,1939
1985,2362,1851
1878,2239,1775
1942,2294,1873
2032,2363,1904
1943,2294,1800
1855,2227,1774
1840,2258,1840
1926,2375,1920
1985,2346,1871
1979,2274,1842
1886,2287,1856
1926,2352,1884
1943,2338,1823
1921,2314,1872
1987,2350,1975
2031,2383,1930
1981,2377,1808
1895,2310,1794
1867,2276,1761
1904,2350,1839
1923,2368,1888
1862,2324,1834
1919,2343,1887
2079,2382,1917
2027,2367,1874
1879,2290,1809
1882,2344,1909
1927,2423,1955
1936,2345,1862
1920,2273,1786
2033,2389,1981
2061,2433,1938
1876,2363,1793
1826,2311,1776
1922,2320,1830
2043,2382,1901
1997,2383,1931
1912,2290,1783
1905,2320,1826
2047,2429,1855
2033,2373,1845
1902,2275,1808
1890,2309,1904
1969,2405,1998
1934,2384,1851
1904,2324,1803
1927,2323,1846
1991,2394,1927
2026,2365,1856
1951,2320,1811
1937,2341,1881
1995,2389,1953
1951,2374,1859
1905,2299,1742
1947,2342,1873
2027,2433,1989
2011,2379,1903
1934,2326,1862
1961,2329,1871
2031,2389,1879
1983,2371,1871
1869,2288,1830
1872,2276,1831
1995,2383,1904
2045,2359,1841
1949,2325,1839
1872,2320,1840
1965,2386,1886
2045,2385,1907
2030,2310,1840
1957,2289,1909
1978,2390,1941
1987,2382,1837
1856,2295,1815
1838,2281,1844
2053,2378,1984
2091,2352,1808
1913,2278,1812
1877,2306,1874
1953,2321,1860
2041,2357,1897
1987,2314,1885
1962,2290,1904
1967,2317,1897
1925,2314,1851
1882,2273,1829
2001,2327,1930
2009,2336,1921
1927,2309,1819
1861,2243,1807
2005,2285,1935
2192,2356,1998
1955,2299,1914
1826,2227,1815
1906,2238,1875
2084,2337,1921
1968,2307,1904
1905,2224,1856
1906,2224,1840
1964,2299,1902
2017,2297,1899
2018,2261,1904
1978,2226,1931
1931,2263,1891
1921,2246,1824
1930,2192,1759
1932,2213,1877
2011,2272,1935
1968,2241,1899
1924,2226,1900
1933,2228,1865
1968,2255,1883
1968,2238,1837
1919,2192,1835
1997,2233,1920
2034,2277,1961
1909,2195,1821
1861,2160,1823
1935,2199,1908
2007,2247,1919
2058,2235,1856
1983,2143,1811
1909,2147,1839
1940,2243,1970
1959,2197,1872
1936,2117,1774
1994,2140,1825
1952,2233,1904
1923,2237,1968
1887,2115,1823
1890,2111,1811
2000,2167,1825
1939,2176,1906
1871,2135,1864
1950,2128,1805
2039,2197,1891
1987,2202,1931
1913,2128,1811
1915,2096,1867
1936,2126,1801
1970,2177,1873
1915,2119,1855
1919,2109,1883
2064,2185,1922
1942,2125,1814
1893,2081,1808
1899,2075,1872
1978,2126,1868
2044,2166,1921
2000,2112,1869
2060,2111,1893
1985,2135,1879
1802,2086,1819
1792,2031,1805
1881,2068,1839
2015,2129,1917
2013,2114,1879
1907,2045,1816
1842,2027,1776
1974,2096,1808
2073,2095,1822
1972,2027,1827
1830,2025,1855
1948,2150,1957
1962,2093,1889
1890,2000,1792
1852,2029,1862
1954,2112,1926
2058,2109,1927
1914,1989,1802
1785,1987,1745
1875,2077,1827
1946,2077,1866
1936,2019,1766
1957,2045,1847
2055,2094,1934
1953,2028,1843
1809,2006,1840
1871,2030,1888
2055,2080,1962
2070,2035,1819
1836,1973,1744
1862,1979,1819
1951,2038,1861
1982,2038,1874
1919,1981,1833
1871,1954,1764
1937,2027,1855
1995,2029,1888
1937,1997,1866
1829,1942,1794
1919,1986,1811
1921,1983,1855
1917,1969,1833
2010,1997,1839
2063,2028,1873
1846,1965,1814
1791,1923,1795
1891,1966,1847
1997,2013,1879
1966,2000,1822
1822,1919,1766
1939,1993,1888
2111,2019,1937
1836,1925,1787
1776,1894,1775
1931,1908,1822
2011,1968,1881
2007,2000,1891
1840,1920,1787
1808,1931,1819
1892,1975,1874
1813,1971,1849
1894,1906,1792
1873,1938,1845
1961,1983,1909
1920,1953,1829
1829,1893,1792
1878,1913,1856
2017,2006,1897
1874,1955,1808
1776,1879,1790
1902,1901,1821
1989,1972,1905
1959,1968,1893
1843,1895,1852
1771,1857,1817
1984,1962,1853
2067,1968,1870
1872,1862,1833
1776,1882,1814
1889,1918,1815
1924,1899,1871
1872,1874,1861
1969,1904,1841
1887,1942,1886
1873,1962,1858
1869,1906,1836
1898,1877,1820
1989,1939,1837
2020,1954,1916
1783,1831,1744
1813,1832,1777
2016,1893,1853
1963,1904,1875
1878,1825,1830
1845,1859,1811
1855,1879,1778
1998,1993,1883
1942,1865,1779
1904,1867,1859
1907,1890,1811
1834,1856,1810
1838,1826,1799
1862,1805,1843
1838,1872,1903
1945,1968,1893
1887,1840,1850
1769,1773,1753
1847,1872,1798
1919,1922,1793
1921,1868,1894
1886,1831,1904
1851,1854,1881
1846,1819,1810
1839,1839,1791
1841,1872,1853
1937,1947,1947
1949,1903,1877
1930,1819,1821
1779,1771,1763
1829,1817,1819
1775,1870,1856
1855,1829,1831
2059,1845,1847
1993,1872,1865
1786,1827,1789
1673,1778,1775
2015,1863,1907
2047,1839,1835
1803,1830,1847
1631,1743,1771
1849,1744,1791
2160,1906,1934
1755,1829,1787
1662,1783,1785
1813,1799,1790
1856,1856,1947
1872,1806,1882
1847,1776,1792
2000,1778,1763
1936,1843,1765
1643,1810,1881
1694,1746,1775
1941,1779,1804
1978,1866,1849
1773,1827,1810
1715,1769,1820
1955,1797,1817
1871,1811,1869
1861,1830,1922
2027,1799,1810
1959,1795,1763
1866,1789,1872
1719,1808,1776
1723,1744,1725
1805,1722,1728
1950,1845,1899
1926,1891,1933
1744,1772,1803
1657,1744,1755
1839,1817,1849
2017,1856,1920
1926,1741,1771
1655,1713,1787
1670,1801,1843
1872,1820,1786
1859,1782,1741
1745,1758,1818
1845,1834,1892
1872,1777,1763
1791,1744,1810
1871,1794,1892
1785,1829,1830
1802,1810,1869
1804,1741,1877
1831,1756,1718
1999,1840,1796
1729,1747,1747
1659,1712,1773
1712,1745,1782
1847,1791,1794
1945,1887,1845
1920,1763,1851
1692,1715,1889
1713,1810,1919
1805,1840,1798
1841,1745,1673
1931,1806,1821
1891,1791,1840
1869,1729,1789
1810,1709,1779
1764,1712,1794
1823,1808,1872
1843,1781,1757
1858,1769,1875
1819,1730,1840
1766,1798,1827
1856,1859,1858
1850,1746,1719
1779,1686,1712
1821,1696,1867
1863,1792,1943
1783,1762,1769
1641,1769,1776
1838,1813,1791
1877,1838,1847
1905,1767,1789
1913,1749,1747
1706,1733,1776
1634,1762,1792
1799,1744,1716
1819,1718,1733
1760,1805,1813
1835,1772,1826
1890,1691,1757
1766,1712,1745
1712,1743,1775
1744,1808,1794
1783,1766,1776
1712,1712,1783
1890,1758,1818
1793,1739,1773
1647,1681,1671
1512,1747,1743
1760,1847,1872
2033,1877,1903
1840,1759,1744
1743,1692,1685
1825,1747,1713
2027,1833,1830
1677,1727,1889
1535,1702,1819
1750,1749,1675
1759,1749,1733
1696,1746,1719
1840,1793,1831
2167,1827,1911
1751,1709,1744
1458,1725,1677
1645,1786,1828
1936,1842,1886
1816,1830,1808
1674,1718,1717
1806,1743,1808
1890,1819,1776
1786,1831,1756
1716,1744,1776
1792,1753,1823
1942,1809,1715
1922,1876,1920
1680,1741,1766
1589,1634,1630
1745,1753,1728
1871,1824,1899
1814,1809,1985
1632,1775,1783
1730,1856,1709
1827,1824,1730
1854,1776,1763
1813,1766,1858
1722,1755,1840
1702,1810,1830
1756,1767,1872
1814,1853,1792
1967,1801,1728
1903,1758,1719
1706,1746,1859
1712,1772,1771
1843,1810,1717
1899,1857,1745
1722,1754,1748
1630,1748,1806
1734,1787,1877
1841,1841,1798
1974,1819,1789
1905,1776,1770
1669,1767,1744
1653,1790,1777
1718,1763,1799
1713,1755,1807
1806,1815,1824
1855,1856,1813
1787,1766,1732
1664,1750,1747
1904,1826,1837
1951,1825,1814
1739,1754,1788
1712,1759,1744
1803,1792,1776
1812,1799,1771
1840,1793,1789
1841,1841,1872
1701,1827,1887
1751,1847,1794
1842,1771,1686
1815,1766,1750
1744,1782,1877
1805,1832,1859
1869,1763,1789
1731,1793,1776
1794,1847,1741
1872,1883,1807
1806,1783,1839
1760,1728,1841
1845,1802,1866
1841,1893,1866
1604,1739,1674
1661,1687,1679
1815,1808,1791
1980,1917,1894
1979,1843,1872
1693,1756,1758
1753,1849,1832
1920,1879,1927
1773,1761,1758
1623,1744,1744
1794,1851,1904
1910,1836,1857
1861,1776,1723
1760,1776,1744
1920,1851,1883
1904,1861,1875
1759,1789,1799
1635,1793,1840
1980,1946,1981
1807,1803,1689
1567,1744,1674
1747,1767,1766
1990,1859,1956
1840,1805,1920
1675,1845,1811
1792,1831,1795
2093,1891,1856
1951,1846,1854
1631,1835,1793
1734,1809,1792
1886,1856,1765
1789,1883,1918
1712,1799,1873
1926,1855,1892
2274,1904,1809
1758,1795,1776
1465,1859,1850
1766,1760,1763
1849,1801,1842
1781,1904,1913
1635,1899,1905
1719,1866,1843
1903,1854,1887
2011,1936,1847
1937,1824,1762
1807,1780,1726
1797,1872,1875
1844,1936,1956
1792,1809,1695
1805,1808,1838
1808,1833,1945
1834,1892,1855
1776,1803,1742
1810,1859,1939
1843,1900,1839
1855,1859,1776
1866,1842,1831
1872,1829,1728
1954,1935,2009
1795,1859,1923
1577,1781,1744
1631,1791,1728
2005,1915,1929
2091,1926,1781
1808,1872,1815
1791,1851,1884
1872,1850,1815
1846,1847,1759
1659,1791,1847
1687,1797,1849
1918,1876,1894
1954,1984,1914
1826,1841,1810
1879,1799,1789
1975,1829,1845
1701,1851,1818
1839,1840,1840
1763,1843,1780
1777,1954,1835
1761,1863,1871
1906,1747,1830
1917,1834,1795
1790,1917,1933
1867,1909,1977
1887,1833,1842
1857,1809,1744
1793,1877,1774
1763,1863,1836
1761,1833,1812
1887,1794,1770
1968,1934,1975
1883,1863,2028
1824,1898,1834
1773,1847,1744
1751,1840,1792
1808,1854,1744
1800,1883,1853
1826,1885,1857
1878,1899,1913
1905,1926,1846
1872,1833,1818
1830,1853,1819
1908,1920,1946
1904,1875,1969
1824,1815,1840
1815,1814,1763
2030,1942,1835
2023,1914,1795
1701,1791,1791
1678,1811,1920
1808,1892,1947
1903,1920,1840
1891,1821,1809
1885,1793,1865
1875,1883,1849
1985,1942,1893
1776,1826,1775
1815,1817,1741
2026,1911,1854
1902,1929,1870
1668,1792,1804
1754,1795,1869
1897,1856,1927
2080,1931,1850
1830,1856,1712
1746,1856,1903
1872,1840,1910
1877,1804,1860
1808,1828,1797
1859,1892,1855
1863,1831,1881
2014,1949,1899
1790,1859,1755
1642,1734,1704
1759,1872,1899
1943,1943,2033
2262,2004,1995
1995,1795,1807
1596,1826,1727
1582,1842,1743
1771,1846,1771
2169,1785,1780
1900,1839,1808
1710,1859,1913
1656,1826,1869
1761,1828,1970
2039,1937,1946
2067,1907,1894
1808,1807,1773
1753,1738,1711
1961,1915,1891
1887,1911,1840
1682,1869,1808
1779,1803,1741
1970,1818,1876
1924,1917,1959
1888,1901,1854
1777,1771,1728
1876,1840,1859
1908,1904,1942
1733,1849,1872
1755,1810,1773
1904,1851,1808
1999,1866,1889
1826,1847,1825
1789,1778,1735
2093,1941,1942
1920,1924,2022
1623,1649,1722
1647,1707,1668
1955,1840,1967
2076,1905,1964
1935,1866,1767
1759,1795,1733
1732,1887,1905
1921,1931,1938
1914,1840,1834
1797,1775,1751
1855,1865,1863
1851,1886,1915
1871,1826,1872
1910,1827,1738
2030,1968,1860
1838,1885,1913
1734,1831,1776
1719,1695,1757
1954,1810,1835
2064,1857,1929
1831,1834,1919
1631,1807,1828
1761,1842,1781
1990,1927,1872
2038,1901,1862
1811,1808,1833
1823,1846,1781
1907,1825,1827
1913,1849,1836
1758,1744,1808
1751,1846,1884
1904,1911,1931
1968,1877,1838
1885,1766,1751
1917,1728,1840
1925,1873,1919
1867,1824,1779
1950,1840,1869
1757,1836,1874
1728,1853,1840
1789,1808,1759
1890,1787,1753
2111,1889,1947
1937,1829,1968
1739,1806,1856
1632,1728,1746
1809,1876,1840
2018,1933,1822
1971,1845,1791
1744,1760,1840
1770,1818,1882
1789,1847,1805
1971,1869,1885
2147,1834,1904
1856,1824,1766
1764,1869,1806
1873,1904,1875
1727,1791,1903
1708,1819,1821
2029,1923,1797
2010,1727,1738
1744,1744,1852
1785,1835,1883
1941,1930,1834
1958,1858,1815
1905,1853,1918
1878,1887,1918
1818,1839,1763
1803,1744,1671
1712,1690,1712
1920,1831,1919
2019,1909,1930
1787,1842,1822
1725,1796,1795
1871,1863,1909
1982,1917,1869
1847,1793,1801
1867,1806,1825
1979,1901,1899
2042,1958,1981
1936,1775,1819
1766,1715,1649
1826,1803,1674
1968,1853,1872
1715,1819,1920
1828,1818,1958
1870,1797,1775
1974,1913,1843
1953,1843,1838
1749,1769,1826
1765,1803,1887
1936,1967,1939
2178,1968,1895
1905,1718,1706
1776,1776,1810
1800,1849,1862
1823,1817,1905
1872,1802,1905
1897,1837,1749
1851,1891,1769
1999,1872,1955
1839,1791,1858
1840,1872,1790
1982,1904,1859
1755,1768,1801
1799,1765,1873
1818,1776,1839
1840,1856,1929
1955,1843,1886
1891,1856,1808
1825,1879,1840
1844,1871,1872
1965,1829,1744
2256,1804,1825
1725,1749,1872
1635,1887,1894
1797,1829,1797
1845,1801,1811
1952,1897,1924
2079,1934,1975
1798,1755,1767
1618,1744,1712
1786,1878,1866
2065,1897,1871
2105,1835,1806
1774,1744,1921
1727,1807,1863
1818,1877,1726
1918,1871,1780
1968,1813,1935
1856,1883,1923
1853,1865,1887
1879,1779,1745
1771,1745,1771
1761,1862,1866
1936,1919,1926
2118,1843,1807
1935,1791,1741
1906,1887,1939
2033,1987,1993
1665,1767,1718
1535,1689,1712
1787,1803,1847
2250,1917,1767
1858,1825,1831
1647,1799,1959
1940,1865,1840
1904,1873,1820
1786,1872,1844
1869,1875,1885
1914,1847,1902
1877,1826,1874
1879,1789,1787
1894,1814,1763
1946,1840,1743
1997,1904,1879
1830,1813,1834
1638,1712,1821
1725,1808,1793
1965,1968,1938
1941,1894,1940
1885,1771,1763
1843,1792,1725
1939,1904,1936
1809,1823,1827
1746,1755,1723
1794,1828,1837
1926,1901,1945
1850,1885,1803
1911,1846,1719
1899,1834,1958
1821,1854,1983
1741,1821,1761
1786,1761,1635
2027,1877,1861
2011,1882,1872
1831,1835,1825
1682,1741,1690
1763,1797,1826
1891,1917,1951
1970,1871,1904
1855,1779,1791
1930,1814,1725
1969,1889,1758
1783,1902,1878
1660,1791,1869
1777,1769,1824
1851,1899,1864
2081,1893,1835
1895,1850,1819
1812,1869,1841
1806,1806,1808
1840,1803,1699
1935,1818,1753
1920,1877,1966
1923,1946,1921
1762,1885,1863
1872,1807,1807
1937,1822,1837
1967,1986,1916
1808,1837,1806
1840,1747,1740
1953,1838,1865
1888,1852,1869
1941,1888,1817
1908,1886,1762
1801,1894,1753
1742,1778,1697
1717,1718,1790
1765,1731,1779
1891,1925,1872
1949,1936,1922
1952,1859,1863
1802,1788,1819
1739,1877,1872
1954,2009,1982
2066,1899,1923
1771,1747,1662
1869,1793,1724
2019,1899,1955
1872,1825,1830
1724,1807,1839
1745,1858,1901
1859,1934,1884
1907,1883,1888
1863,1827,1799
1955,1885,1904
2009,1937,1889
1904,1815,1779
1742,1779,1723
1754,1821,1793
1850,1898,1883
1872,1821,1841
1983,1826,1834
2021,1920,1878
1734,1872,1872
1766,1889,1891
1967,1865,1842
1806,1847,1819
1927,1847,1904
1833,1788,1776
1905,1823,1759
1810,1863,1825
1840,1920,1887
1866,1872,1839
1856,1818,1787
1965,1900,1883
1902,1930,1887
1865,1893,1934
1934,1818,1886
1902,1840,1775
1835,1889,1785
1847,1845,1776
1853,1777,1969
1862,1810,1993
1853,1918,1760
1937,2032,1837
1802,1869,1797
2057,1879,1950
1983,1829,1776
1707,1774,1683
1618,1810,1835
1913,1862,1845
2109,1888,1840
1776,1842,1862
1739,1855,1814
1866,1834,1882
2000,1950,1905
2073,2015,1933
2013,1818,1838
1659,1751,1730
1633,1841,1826
1856,1902,1851
1927,1821,1673
1970,1862,1872
1975,1943,2026
1908,1845,1800
1839,1766,1697
1913,1895,1931
1934,2010,2075
1791,1874,1867
1693,1769,1659
1792,1827,1744
1882,1920,1857
1977,1876,1793
2169,1890,1753
2129,1842,1872
1791,1844,1934
1575,1883,1927
1680,1872,1891
1820,1851,1827
2082,1973,1881
1949,1840,1840
1630,1745,1779
1789,1862,1831
2128,1990,1922
1904,1885,1879
1750,1773,1722
1851,1873,1813
1937,1994,1936
1867,1855,1821
1867,1789,1691
1898,1872,1869
1872,1930,1875
1767,1847,1779
1819,1813,1826
2064,1877,1837
1975,1953,1866
1766,1856,1850
1721,1773,1709
2079,1961,1925
2077,1952,1854
1695,1806,1776
1607,1799,1795
1855,1898,1943
1964,1936,1954
2066,1953,1839
1936,1793,1831
1744,1775,1839
1791,1909,1865
1815,1907,1862
2037,1881,1837
1945,1872,1789
1807,1856,1758
1887,1899,1899
1866,1839,1911
1878,1842,1890
2001,1886,1777
1974,1910,1872
1813,1856,1921
1778,1838,1857
1818,1906,1917
1895,1857,1824
1936,1846,1776
2010,1939,1887
2013,1927,1929
1796,1814,1825
1687,1809,1825
1872,1885,1815
1933,1923,1783
1845,1884,1839
1943,1849,1922
1910,1806,1797
1859,1815,1713
1963,1920,1927
1930,1840,1777
1893,1872,1851
1734,1855,1843
1713,1867,1851
1841,1885,1837
2000,1883,1842
2091,1936,1843
1893,1853,1822
1698,1680,1706
1843,1829,1797
2043,1953,1907
1998,1942,1965
1776,1829,1813
1711,1838,1803
1750,1884,1830
1907,1916,1936
1965,1878,1921
1871,1823,1847
1909,1809,1730
2062,1895,1760
1929,1835,1875
1808,1855,1855
1825,1920,1839
1899,1865,1859
1779,1819,1827
1811,1840,1818
2044,1975,1933
