2028,1877,1853
1634,1753,1744
1569,1776,1801
1699,1840,1855
1997,1883,1890
1940,1853,1847
1753,1809,1845
1680,1839,1840
1828,1870,1879
2071,1840,1806
1931,1815,1776
1697,1839,1851
1748,1858,1829
1808,1808,1851
1771,1823,1891
1875,1852,1866
1821,1824,1827
1825,1838,1751
1797,1810,1827
1894,1878,1913
2007,1871,1853
1810,1778,1795
1744,1799,1862
1934,1904,1962
2045,1889,1792
2118,1842,1696
1811,1746,1767
1662,1794,1894
1488,1820,1880
1615,1812,1846
1826,1846,1856
2097,1886,1842
2002,1854,1811
2027,1843,1862
2039,1878,1843
1745,1818,1790
1589,1808,1789
1595,1796,1839
1823,1791,1833
1868,1862,1817
1753,1838,1827
1904,1906,1921
2173,1916,1915
1791,1798,1824
1632,1838,1751
1710,1831,1763
1927,1863,1882
2016,1842,1822
1813,1840,1823
1807,1887,1921
1870,1861,1865
1855,1818,1811
1877,1825,1830
1903,1827,1808
1789,1829,1831
1757,1889,1934
1936,1900,1850
2014,1841,1772
1932,1824,1790
1747,1798,1771
1635,1863,1877
1729,1874,1897
1837,1843,1885
1895,1830,1822
1953,1857,1825
2128,1870,1902
1833,1789,1793
1619,1827,1835
1712,1850,1875
1861,1840,1825
1897,1847,1849
1856,1826,1869
1754,1871,1842
1809,1863,1856
1925,1872,1854
1968,1862,1872
1878,1778,1805
1984,1846,1787
1889,1873,1904
1713,1842,1905
1671,1835,1869
2000,1909,1873
2099,1858,1764
1744,1775,1780
1665,1808,1873
1747,1859,1845
1961,1908,1879
2066,1870,1815
1840,1797,1729
1691,1789,1773
1838,1874,1950
1844,1855,1945
1851,1781,1775
1905,1805,1827
1761,1872,1838
1846,1926,1939
1908,1903,1903
1918,1808,1776
1843,1793,1760
1917,1883,1821
1918,1888,1838
1680,1821,1809
1705,1841,1905
1815,1869,1903
1935,1846,1815
1984,1851,1766
1877,1871,1821
1826,1852,1859
1766,1850,1850
1778,1865,1809
1933,1857,1830
2106,1883,1806
1936,1840,1749
1669,1811,1776
1757,1818,1873
1919,1873,1895
1955,1920,1909
1876,1902,1823
1826,1831,1776
1905,1872,1791
1809,1860,1808
1723,1821,1755
1828,1871,1798
1875,1887,1950
1792,1831,1802
1867,1815,1802
1917,1868,1834
1917,1844,1858
1879,1874,1842
1801,1861,1821
1767,1847,1824
1827,1911,1872
1790,1884,1895
1775,1823,1815
1871,1865,1859
2064,1885,1802
1917,1846,1747
1733,1803,1840
1774,1847,1867
2064,1942,1909
2085,1924,1915
1919,1883,1868
1648,1778,1781
1693,1855,1830
1967,1866,1808
2025,1823,1759
1685,1809,1814
1582,1881,1951
1748,1887,1924
1914,1869,1883
2064,1895,1866
2108,1877,1858
1857,1846,1842
1734,1857,1810
1749,1842,1794
1761,1808,1871
1825,1849,1847
1813,1861,1807
2128,1947,1878
2055,1903,1787
1777,1829,1853
1703,1799,1844
1766,1840,1882
1840,1871,1870
1968,1913,1822
2147,1905,1835
1904,1840,1849
1701,1828,1872
1680,1797,1738
1906,1858,1818
1877,1814,1839
1797,1879,1883
1781,1919,1885
1903,1877,1780
1987,1879,1791
1946,1876,1886
1921,1861,1856
1879,1855,1823
1680,1813,1771
1795,1913,1927
1879,1887,1853
1861,1790,1783
1955,1840,1776
1983,1917,1863
2033,1930,1850
1715,1799,1686
1582,1786,1822
1723,1851,1950
1899,1904,1877
1905,1873,1824
2011,1855,1776
1922,1865,1799
1776,1861,1849
1833,1859,1919
1758,1866,1925
1808,1843,1873
1978,1888,1835
2108,1872,1776
1935,1851,1802
1777,1868,1855
1776,1873,1875
1920,1785,1744
1794,1797,1837
1775,1904,1921
1856,1890,1940
2025,1870,1787
2042,1872,1799
1792,1827,1860
1701,1833,1890
1889,1902,1846
1793,1824,1797
1809,1843,1827
1804,1849,1885
1877,1843,1886
1863,1840,1884
1776,1837,1861
1839,1863,1793
2037,1878,1849
1999,1870,1861
1776,1872,1870
1737,1858,1865
1782,1811,1779
1884,1840,1838
1977,1858,1821
1927,1856,1854
1839,1799,1773
1769,1818,1824
1856,1916,1967
1862,1850,1872
1898,1808,1797
1840,1794,1835
1834,1872,1874
1863,1872,1797
1853,1826,1753
1916,1885,1874
2038,1856,1818
1867,1883,1959
1584,1789,1831
1637,1776,1750
1835,1843,1769
1957,1889,1812
1937,1799,1743
1855,1863,1863
1865,1903,2078
1866,1901,1920
1774,1847,1721
1854,1842,1743
1966,1890,1905
2014,1904,1889
1899,1810,1781
1727,1776,1731
1790,1855,1840
1877,1833,1789
1855,1831,1825
1872,1870,1859
2019,1898,1901
1813,1886,1962
1707,1843,1808
1744,1840,1839
2000,1846,1817
1872,1854,1831
1907,1855,1865
2099,1877,1822
1822,1841,1813
1575,1819,1805
1680,1857,1826
1798,1857,1830
2028,1902,1866
2098,1922,1941
1888,1841,1861
1655,1786,1811
1834,1876,1819
2066,1889,1754
1924,1805,1822
1729,1793,1937
1885,1936,1964
1815,1872,1821
1744,1791,1731
1874,1874,1824
1927,1883,1904
1893,1895,1888
1882,1841,1825
1691,1805,1817
1837,1841,1907
1999,1925,1871
2014,1879,1815
1813,1830,1809
1655,1840,1855
1863,1851,1857
2352,1907,1853
2003,1807,1775
1599,1849,1899
1645,1904,1920
1758,1855,1811
1811,1834,1794
1997,1870,1837
2002,1835,1808
1927,1871,1849
1895,1858,1904
1921,1849,1823
1825,1855,1751
2003,1866,1743
1854,1841,1893
1732,1803,1872
1811,1906,1945
1951,1882,1918
1792,1817,1804
1746,1842,1748
1834,1903,1869
2006,1882,1858
1958,1861,1819
1758,1862,1854
1748,1840,1849
1854,1825,1802
2022,1856,1845
2127,1884,1770
1771,1840,1760
1709,1799,1856
1954,1875,2000
1866,1904,1920
1705,1838,1771
1936,1855,1794
2107,1839,1866
1884,1840,1846
1798,1872,1821
1866,1826,1798
1905,1835,1785
1839,1856,1830
1738,1840,1870
1781,1837,1891
1844,1867,1859
1865,1857,1742
1794,1872,1840
1807,1871,1886
1954,1863,1883
2075,1890,1831
2143,1925,1857
1802,1805,1854
1739,1790,1744
1781,1861,1829
1767,1872,1827
1815,1851,1826
1848,1878,1943
1921,1889,1920
2017,1825,1769
1873,1795,1648
1779,1847,1834
1712,1859,1968
1771,1879,1979
1872,1881,1871
1967,1895,1840
2046,1922,1847
1882,1879,1859
1699,1803,1847
1943,1858,1830
1951,1857,1802
1798,1899,1904
1747,1792,1715
1883,1839,1715
2070,1923,1951
1775,1855,1913
1626,1835,1902
1776,1841,1825
1917,1869,1836
1958,1862,1808
1787,1828,1815
1712,1853,1911
1878,1877,1915
2011,1888,1886
2281,1872,1686
1904,1815,1708
1462,1808,1810
1667,1827,1888
1680,1840,1935
1813,1883,1904
2086,1904,1903
1999,1857,1799
1648,1792,1757
1712,1840,1820
1872,1867,1846
2047,1887,1878
2037,1826,1763
1918,1881,1893
1725,1838,1876
1807,1838,1824
1869,1844,1823
1771,1838,1856
1837,1895,1894
1841,1844,1778
1875,1872,1855
1837,1855,1846
1718,1849,1906
1853,1856,1874
1962,1839,1791
1894,1851,1809
1833,1865,1828
1755,1843,1815
1930,1830,1833
1872,1840,1950
1891,1889,1918
1834,1823,1776
1905,1788,1747
1747,1811,1865
1706,1872,1909
1872,1888,1904
2073,1872,1879
2140,1884,1815
1742,1862,1855
1694,1794,1803
1870,1805,1820
1936,1872,1820
1855,1840,1808
1776,1840,1815
1815,1859,1902
1790,1866,1885
1840,1857,1856
1938,1860,1791
1907,1805,1753
1884,1873,1933
1783,1898,1947
1805,1895,1943
1847,1851,1852
2003,1872,1802
2037,1870,1728
1872,1840,1828
1667,1825,1851
1714,1851,1872
1822,1899,1895
1958,1874,1856
2073,1872,1794
1845,1809,1789
1853,1872,1869
1805,1821,1861
1825,1840,1867
1857,1872,1871
1885,1882,1850
1847,1847,1840
1807,1859,1867
1776,1847,1835
1813,1840,1889
1911,1874,1834
1948,1921,1888
1910,1872,1828
1860,1855,1836
1824,1859,1814
1839,1819,1809
1923,1882,1872
1955,1853,1807
1811,1871,1849
1826,1895,1870
1857,1840,1813
1963,1840,1856
1795,1775,1805
1757,1866,1786
1901,1904,1828
1925,1879,1873
1755,1849,1857
1815,1840,1829
1871,1860,1823
1981,1927,1933
1851,1855,1825
1777,1798,1721
1891,1857,1867
1999,1935,1901
1954,1885,1835
1744,1836,1807
1744,1851,1891
1807,1836,1814
1826,1840,1801
1851,1872,1822
1886,1851,1838
1899,1861,1808
1861,1877,1826
1867,1880,1868
1876,1853,1875
1893,1856,1840
1919,1862,1811
1943,1846,1795
2047,1936,1883
2007,1872,1822
1866,1857,1919
1840,1811,1861
1743,1802,1823
1821,1879,1863
1806,1861,1813
1773,1856,1814
1909,1840,1824
1779,1833,1782
1850,1868,1846
1922,1894,1909
1882,1877,1856
1808,1857,1821
1840,1860,1855
1875,1847,1865
1935,1860,1892
1817,1859,1861
1789,1831,1825
1907,1805,1821
1967,1872,1829
1895,1913,1829
1969,1878,1838
1845,1814,1882
1781,1807,1802
1808,1872,1806
1982,1933,1859
1833,1839,1851
2018,1856,1914
1914,1850,1904
1721,1862,1831
1697,1840,1812
1766,1830,1795
1854,1829,1815
1813,1872,1875
1795,1860,1867
1920,1852,1794
2081,1889,1833
1948,1872,1807
1737,1834,1843
1626,1822,1818
1782,1904,1884
1905,1864,1835
1879,1810,1804
2021,1894,1857
2070,1890,1891
1771,1842,1834
1727,1879,1850
1797,1831,1857
1809,1827,1791
1851,1838,1744
1855,1863,1842
1985,1910,1942
1920,1870,1835
1822,1850,1843
1793,1834,1846
1869,1843,1867
1995,1855,1795
1926,1890,1885
1777,1824,1868
1777,1857,1870
1952,1922,1915
1875,1827,1727
1712,1809,1776
1767,1843,1847
2066,1878,1872
2131,1899,1853
1776,1808,1838
1583,1822,1876
1712,1861,1889
1846,1873,1869
1919,1867,1808
2017,1889,1894
1965,1826,1817
1930,1827,1843
1887,1818,1744
1773,1845,1817
1769,1887,1936
1811,1839,1812
1920,1859,1856
1831,1855,1889
1910,1899,1920
1984,1888,1863
1729,1834,1813
1695,1853,1793
1924,1907,1863
1950,1840,1744
2121,1925,1855
1810,1787,1823
1729,1866,1878
1905,1942,1874
1868,1826,1859
1839,1808,1833
1887,1786,1796
1779,1906,1847
1706,1825,1875
1710,1798,1789
2039,1909,1810
1867,1908,1809
1662,1767,1799
1756,1862,1865
2003,1884,1902
1825,1847,1856
1826,1859,1840
1889,1829,1750
1862,1883,1808
1904,1856,1840
1771,1805,1796
1754,1840,1909
1892,1822,1851
2033,1847,1778
2004,1904,1851
1606,1812,1830
1623,1794,1808
1941,1891,1856
1855,1817,1817
1847,1853,1889
1843,1813,1824
1700,1872,1817
1972,1879,1919
1937,1840,1791
1664,1796,1770
1723,1821,1842
1938,1856,1837
1855,1813,1791
1780,1862,1859
1798,1920,1905
1874,1868,1840
1951,1808,1767
1788,1813,1771
1762,1856,1885
1936,1873,1878
1835,1854,1879
1750,1840,1875
1755,1883,1844
1847,1855,1840
2163,1790,1789
2200,1904,1834
1643,1889,1899
1509,1878,1933
1728,1855,1859
1949,1874,1831
2397,1931,1943
2222,1798,1712
1456,1754,1731
1337,1830,1915
1645,1863,1890
1910,1867,1858
2212,1883,1831
2039,1872,1797
2062,1911,1853
1648,1803,1762
1516,1745,1745
1776,1823,1869
1844,1866,1904
1822,1871,1870
1942,1867,1853
2066,1885,1886
1875,1841,1800
1821,1841,1795
1685,1824,1867
1670,1840,1874
1804,1872,1858
2027,1911,1824
2188,1843,1807
1774,1806,1787
1661,1770,1790
1747,1835,1705
1843,1890,1894
2000,1885,1922
2001,1865,1856
1722,1839,1830
1742,1841,1786
1808,1901,1840
1781,1808,1857
1853,1810,1841
2007,1904,1847
1950,1873,1874
1783,1822,1813
1687,1834,1791
1806,1900,1797
1864,1853,1799
1878,1808,1794
1862,1838,1839
1863,1840,1831
1898,1980,1938
2019,1883,1872
2083,1904,1781
1840,1815,1708
1629,1807,1806
1751,1821,1858
1936,1889,1936
1809,1839,1791
1771,1859,1792
1842,1855,1795
1870,1853,1837
1876,1840,1834
1904,1802,1815
2033,1903,1879
2355,1849,1775
1584,1806,1808
1374,1865,1883
1588,1858,1858
1785,1795,1814
1966,1808,1805
2032,1920,1803
1906,1895,1808
1793,1822,1851
1855,1936,1883
1792,1807,1846
1777,1833,1786
1811,1791,1759
1920,1789,1858
1967,1899,1855
1999,1915,1840
1904,1851,1819
1792,1856,1839
1733,1829,1794
1815,1853,1883
1811,1851,1869
1894,1838,1835
1906,1809,1780
1890,1781,1841
1840,1785,1805
1821,1795,1827
1943,1865,1839
2021,1885,1839
1817,1815,1804
1586,1808,1817
1745,1871,1825
1901,1863,1843
1872,1809,1778
1909,1906,1883
1979,1827,1834
1819,1803,1831
1650,1807,1809
1776,1843,1875
1887,1882,1857
1878,1840,1822
1782,1789,1847
1828,1870,1877
2150,1943,1903
2103,1948,1822
1741,1803,1792
1650,1776,1791
1807,1841,1846
2021,1853,1842
1942,1795,1652
1697,1803,1797
1770,1903,1963
1826,1903,1951
1781,1741,1877
1939,1877,1871
1946,1902,1847
1847,1872,1817
1762,1841,1806
1985,1871,1861
2047,1881,1819
1719,1825,1765
1584,1782,1794
1733,1821,1898
1950,1904,1932
2059,1881,1843
1923,1792,1777
1719,1808,1824
1744,1865,1890
1865,1873,1862
1983,1897,1856
1959,1791,1730
2045,1873,1819
1744,1892,1858
1635,1846,1838
1709,1828,1847
1828,1840,1813
2093,1839,1809
2033,1847,1801
1676,1828,1829
1633,1848,1894
1819,1869,1877
1980,1855,1889
2020,1860,1864
2054,1937,1824
1958,1812,1728
1601,1781,1746
1596,1811,1803
1808,1871,1905
1894,1895,1913
1904,1849,1837
1860,1811,1808
1895,1860,1837
1907,1887,1877
1920,1863,1815
1874,1886,1835
1767,1871,1857
1761,1808,1769
1741,1781,1762
1802,1847,1843
1918,1849,1836
1933,1829,1827
1776,1812,1871
1755,1838,1863
1926,1901,1846
1984,1886,1798
1907,1840,1794
1775,1865,1899
1889,1899,1968
1854,1859,1822
1781,1811,1770
1811,1855,1829
1895,1900,1871
1793,1840,1797
1841,1860,1841
1873,1854,1856
1813,1857,1829
1810,1872,1847
1835,1849,1863
1947,1838,1810
2044,1903,1822
1872,1863,1799
1835,1881,1860
1871,1893,1893
1826,1856,1827
1809,1830,1751
1861,1842,1755
1843,1857,1858
1840,1870,1899
1907,1872,1855
1910,1817,1738
1773,1779,1756
1680,1846,1901
1762,1890,1937
2008,1910,1907
2013,1832,1787
1807,1827,1738
1702,1844,1780
1829,1878,1799
1902,1861,1892
1826,1865,1943
1841,1853,1813
1863,1863,1818
1904,1890,1849
2082,1891,1895
1936,1803,1750
1754,1785,1827
1743,1872,1878
1853,1897,1853
1806,1849,1865
1835,1830,1834
1902,1830,1792
1943,1852,1766
1862,1824,1811
1731,1872,1902
1811,1872,1873
2112,1919,1865
1982,1841,1780
1791,1871,1873
1675,1805,1811
1642,1813,1862
1738,1856,1888
1819,1841,1808
1943,1856,1808
2014,1895,1891
1930,1845,1840
1873,1776,1727
1855,1873,1782
1822,1826,1835
1999,1899,1901
2016,1920,1899
1733,1820,1819
1645,1814,1808
1775,1843,1889
1901,1841,1934
1950,1842,1807
1965,1843,1712
2003,1863,1781
1748,1839,1872
1659,1822,1931
1938,1945,1959
2025,1867,1774
1785,1808,1694
1819,1856,1904
1814,1882,1905
1732,1845,1806
1731,1792,1789
1850,1833,1833
2014,1894,1846
1958,1829,1750
1840,1804,1763
1827,1855,1890
1827,1905,1920
1757,1877,1838
1782,1855,1824
1899,1821,1840
1911,1844,1871
1835,1873,1850
1893,1875,1810
1897,1843,1796
1909,1880,1883
1801,1855,1859
1833,1814,1863
1969,1872,1857
2013,1855,1695
1840,1879,1744
1719,1870,1866
1856,1874,1907
2000,1875,1855
1786,1809,1728
1665,1799,1743
1879,1894,1903
1903,1883,1870
1874,1863,1762
1829,1831,1837
1853,1792,1781
1780,1848,1846
1808,1907,1942
1916,1888,1872
1905,1841,1809
1931,1814,1660
1831,1847,1875
1731,1869,2011
1958,1875,1917
1893,1865,1680
1722,1847,1783
1779,1783,1820
1837,1843,1830
1904,1918,1939
2032,1936,1894
1792,1851,1791
1750,1835,1892
1927,1882,1823
1951,1840,1753
1706,1780,1740
1612,1810,1873
1765,1871,1946
2003,1869,1809
1942,1871,1817
1770,1899,1889
1904,1887,1844
1874,1856,1770
1788,1819,1805
1744,1808,1808
1911,1872,1878
1738,1855,1861
1697,1889,1857
1808,1847,1880
2129,1855,1808
1969,1874,1776
1702,1840,1779
1637,1798,1795
1899,1862,1803
2151,1898,1827
1870,1833,1876
1568,1840,1850
1633,1856,1840
1938,1873,1803
1961,1825,1857
1835,1809,1854
2057,1907,1885
1878,1839,1787
1535,1794,1827
1637,1821,1866
1995,1920,1892
1984,1876,1776
1713,1818,1808
1774,1861,1883
2096,1859,1793
1833,1790,1902
1741,1775,1792
1747,1853,1856
2022,1895,1861
1979,1834,1805
1613,1817,1840
1504,1821,1857
1690,1849,1822
1970,1896,1859
1984,1835,1788
1920,1841,1791
2006,1881,1883
1821,1833,1832
1679,1798,1815
1724,1822,1851
1995,1895,1872
2365,1866,1797
2259,1853,1791
1296,1751,1789
1230,1831,1807
1770,1879,1841
1939,1869,1807
1935,1846,1856
1952,1862,1914
2187,1878,1685
1866,1760,1658
1489,1869,1974
1626,1906,1977
2043,1895,1825
1839,1797,1783
1671,1820,1849
1781,1839,1809
2153,1866,1888
2224,1869,1776
1699,1803,1714
1533,1855,1809
2091,1883,1868
1728,1801,1882
1403,1785,1840
1610,1835,1809
1988,1901,1873
2076,1871,1859
1874,1831,1829
1705,1837,1814
1718,1846,1844
1943,1845,1778
2039,1825,1733
1899,1833,1760
1837,1899,1979
1841,1904,1969
1903,1878,1830
1761,1808,1770
1605,1776,1808
1849,1872,1914
1932,1887,1863
1840,1840,1805
1841,1840,1879
1893,1860,1808
1810,1808,1747
1783,1825,1820
1781,1872,1904
1845,1851,1884
1852,1857,1875
1893,1867,1887
2064,1953,1905
2123,1899,1808
1802,1776,1728
1681,1790,1780
1777,1782,1763
1851,1856,1912
1751,1845,1847
1682,1854,1872
1699,1851,1887
1809,1842,1849
1958,1872,1850
2053,1899,1895
2032,1917,1929
2032,1873,1849
1808,1821,1721
1682,1823,1870
1799,1839,1811
1956,1901,1922
1916,1853,1827
1870,1814,1776
1713,1799,1773
1723,1854,1919
1802,1873,1861
1863,1882,1842
1968,1863,1790
1943,1830,1834
1829,1872,1891
1791,1904,1936
1808,1875,1917
1833,1840,1821
1904,1815,1771
1974,1837,1819
2079,1911,1893
2023,1872,1818
1707,1823,1842
1681,1855,1834
1776,1872,1803
1858,1821,1830
1969,1845,1873
1936,1875,1887
1815,1898,1907
1775,1849,1829
1922,1840,1780
2372,1902,1811
2026,1831,1814
1469,1808,1875
1506,1826,1856
1734,1859,1827
1840,1872,1828
1933,1857,1806
2019,1872,1815
1995,1857,1798
1844,1853,1822
1838,1872,1941
1869,1892,1913
1868,1869,1856
1993,1832,1764
1989,1789,1769
1806,1905,1926
1975,1986,2058
2007,1855,1805
1840,1783,1645
1687,1803,1791
1610,1813,1894
1778,1853,1872
1893,1857,1814
2065,1861,1791
1969,1897,1886
1783,1860,1857
1782,1834,1803
1863,1883,1904
1871,1889,1890
1935,1904,1899
2163,1856,1831
1876,1786,1777
1599,1835,1839
1715,1872,1885
1836,1815,1754
1853,1837,1813
1938,1879,1872
2032,1883,1855
1894,1813,1775
1793,1837,1842
1827,1878,1913
1907,1882,1885
1872,1792,1749
1894,1870,1791
1887,1904,1978
1803,1863,1897
1851,1857,1793
1920,1866,1826
1867,1845,1813
1799,1818,1809
1805,1837,1807
1952,1872,1859
1827,1828,1871
1872,1883,1934
1886,1872,1891
1933,1841,1789
1995,1904,1798
1906,1888,1829
1756,1807,1825
1707,1818,1891
1840,1846,1872
1904,1834,1824
1829,1831,1798
1997,1953,1889
1920,1893,1803
1779,1827,1869
1808,1820,1795
1873,1859,1884
1734,1813,1808
1776,1897,1870
1936,1894,1887
1954,1861,1881
1929,1840,1803
1841,1813,1744
1737,1795,1778
1755,1835,1882
1873,1904,1917
1918,1904,1887
2090,1921,1886
1936,1822,1709
1734,1854,1789
1749,1842,1861
1806,1872,1909
2329,1987,1970
2122,1791,1739
1481,1741,1712
1483,1776,1775
1889,1870,1821
2069,1877,1874
1905,1858,1857
1843,1870,1840
1819,1840,1798
1718,1854,1913
1762,1889,1929
2146,1907,1869
1985,1822,1670
1680,1808,1741
1723,1821,1894
1707,1815,1822
1915,1827,1795
2054,1907,1886
1961,1898,1893
1798,1826,1832
1728,1851,1856
1828,1872,1861
1910,1911,1901
2243,1905,1846
1904,1792,1731
1472,1783,1811
1813,1861,1835
1971,1857,1756
1863,1841,1781
1778,1886,1919
1822,1840,1821
1805,1803,1786
2017,1891,1908
1984,1919,1904
1765,1841,1789
1776,1842,1851
2017,1851,1801
1957,1877,1826
1775,1840,1840
1787,1873,1941
1753,1845,1837
1744,1821,1757
1872,1826,1744
1909,1841,1786
1935,1858,1872
1995,1899,1932
2055,1941,1869
1728,1845,1840
1491,1792,1794
1679,1797,1805
1894,1867,1855
1982,1873,1841
1979,1842,1791
1835,1827,1840
1753,1840,1832
1857,1863,1857
1871,1856,1846
2416,1899,1831
1939,1858,1753
1406,1805,1858
1529,1811,1871
1840,1808,1805
1863,1844,1857
1730,1835,1852
1730,1866,1855
1837,1861,1805
2059,1882,1819
2061,1847,1804
1921,1802,1775
1861,1825,1798
1791,1863,1810
1920,1841,1860
1833,1888,1905
1744,1921,1923
1979,1902,1809
2026,1874,1849
1853,1812,1941
1804,1808,1797
1711,1817,1791
1812,1831,1782
2047,1846,1753
1927,1837,1722
1664,1853,1886
1743,1869,1904
1895,1861,1889
1938,1919,1962
2110,1933,1858
2175,1889,1808
1630,1765,1767
1583,1806,1910
1732,1841,1922
1852,1858,1850
1905,1902,1842
1953,1884,1856
1947,1825,1789
1904,1791,1729
1974,1776,1738
2065,1837,1838
1886,1919,1914
1730,1904,1850
1775,1872,1891
1840,1866,1908
2016,1889,1880
1913,1827,1825
1847,1839,1878
1890,1872,1861
1904,1889,1863
1891,1831,1797
1889,1797,1740
1814,1839,1714
1751,1863,1871
1801,1863,1942
1954,1907,1967
2003,1903,1856
2009,1901,1803
1935,1845,1777
1750,1802,1805
1697,1836,1871
1776,1875,1901
1904,1905,1913
2096,1907,1930
1985,1833,1763
1776,1814,1776
1694,1840,1904
1742,1856,1905
1998,1878,1876
2166,1899,1825
1905,1872,1719
1761,1875,1846
1698,1819,1890
1794,1840,1862
1905,1856,1794
1996,1910,1885
2192,1913,1869
1723,1798,1825
1522,1833,1859
1795,1894,1926
2110,1891,1865
2081,1861,1786
1694,1807,1712
1745,1872,1881
1869,1857,1887
1904,1871,1827
1920,1878,1833
1867,1838,1834
1814,1803,1806
1797,1855,1887
1787,1882,1920
1904,1887,1905
1875,1890,1827
1996,1886,1830
2093,1803,1673
1807,1824,1821
1667,1866,1919
1711,1874,1919
1859,1881,1869
1904,1840,1779
1855,1808,1783
1892,1850,1843
2038,1922,1951
1907,1877,1887
1713,1806,1794
1728,1809,1840
1833,1821,1725
1967,1902,1856
1846,1857,1877
1808,1872,1891
1900,1889,1781
1975,1835,1797
1831,1808,1848
1815,1857,1870
1847,1854,1914
1708,1840,1873
1738,1851,1907
1899,1857,1794
1892,1850,1819
1887,1863,1855
1846,1868,1858
1776,1889,1846
1798,1872,1830
1892,1839,1811
2032,1895,1854
1872,1842,1775
1775,1803,1877
1869,1837,1904
1879,1851,1846
1871,1893,1918
1819,1854,1805
1843,1871,1790
1793,1879,1871
1808,1854,1840
2128,1876,1816
1929,1813,1745
1616,1838,1904
1706,1872,1967
1821,1834,1814
1927,1835,1840
1831,1872,1833
1857,1904,1915
1950,1870,1820
1791,1817,1709
1722,1862,1840
1790,1878,1902
1858,1871,1919
1904,1873,1915
2064,1835,1840
2117,1853,1795
1728,1823,1776
1587,1803,1747
1877,1903,1902
1920,1865,1840
1869,1833,1817
1746,1807,1839
1856,1903,1921
1933,1872,1904
1807,1812,1812
1792,1808,1781
2016,1929,1882
2204,1940,1847
1626,1698,1776
1506,1757,1873
1703,1827,1831
2140,1910,1855
1924,1846,1808
1667,1838,1899
1681,1872,1872
1904,1873,1808
1906,1835,1853
1898,1873,1873
1913,1875,1833
1785,1834,1808
1759,1829,1821
1811,1870,1867
1870,1863,1905
1947,1878,1910
1967,1830,1831
1957,1813,1727
1750,1795,1779
1702,1856,1918
1806,1867,1867
1875,1856,1801
1856,1837,1794
1866,1861,1887
1927,1861,1866
1964,1883,1847
1823,1874,1901
1756,1824,1799
1838,1856,1831
1965,1820,1849
1859,1788,1803
1747,1808,1871
1798,1903,1936
1835,1889,1845
1968,1878,1777
1978,1848,1877
1778,1777,1854
1726,1813,1856
1856,1852,1839
2022,1894,1874
1813,1803,1805
1821,1836,1801
1887,1867,1868
1893,1879,1899
1855,1904,1906
1941,1872,1791
1925,1873,1807
1671,1851,1871
1624,1855,1872
1874,1895,1913
2140,1917,1891
1968,1907,1812
1633,1753,1775
1750,1836,1861
1977,1846,1840
1808,1807,1840
1744,1871,1883
1886,1882,1930
1873,1885,1863
1808,1884,1761
1968,1871,1824
1913,1831,1817
1831,1840,1841
1893,1867,1862
1826,1818,1877
1877,1840,1906
1771,1904,1858
1711,1824,1742
1793,1826,1810
1936,1866,1887
1973,1878,1875
1953,1890,1897
1933,1867,1829
1933,1813,1824
1798,1834,1779
1808,1881,1810
1699,1868,1840
1807,1836,1850
1953,1914,1894
2000,1862,1938
1887,1827,1823
1728,1808,1790
1715,1818,1785
1780,1855,1831
1919,1872,1840
1968,1842,1840
2177,1927,1878
1873,1814,1813
1679,1790,1830
1728,1838,1856
1872,1927,1914
1977,1851,1830
1780,1788,1815
1726,1855,1904
1875,1924,1935
1847,1838,1802
1831,1778,1705
1893,1854,1824
1905,1814,1872
1959,1855,1804
1922,1874,1888
1813,1860,1909
1730,1823,1853
1781,1835,1839
1871,1877,1793
1889,1877,1821
1822,1917,1885
1934,1847,1863
2022,1863,1829
1859,1789,1759
1790,1759,1779
1845,1840,1813
1679,1836,1892
1680,1851,1921
1826,1914,1904
1934,1850,1878
1999,1841,1849
1968,1824,1825
1968,1872,1790
1884,1834,1857
1643,1910,1841
1709,1809,1829
1989,1869,1931
1959,1818,1838
1695,1785,1730
1739,1847,1835
1949,1856,1885
1995,1808,1868
1915,1853,1821
1751,1842,1760
1767,1828,1792
1849,1849,1852
1831,1843,1863
1871,1856,1886
1817,1834,1877
1899,1858,1821
2222,1904,1779
1891,1855,1786
1587,1838,1901
1717,1882,1911
1922,1863,1761
1950,1829,1776
1871,1867,1882
1757,1831,1920
1695,1826,1833
1933,1877,1855
1984,1888,1788
1854,1776,1680
1750,1745,1781
1968,1904,1973
1961,1884,1955
1663,1769,1814
1664,1826,1806
1898,1914,1865
1934,1878,1871
1778,1877,1806
1824,1840,1742
1860,1809,1831
1879,1815,1797
1865,1946,1919
1759,1840,1865
1935,1814,1818
2071,1899,1797
1861,1894,1965
1736,1808,1886
1814,1863,1839
1838,1870,1834
1836,1813,1810
1922,1909,1733
1904,1873,1841
1755,1866,1952
1707,1840,1824
1985,1904,1807
2109,1826,1680
1763,1818,1926
1690,1888,1968
1882,1878,1917
1906,1806,1869
1867,1860,1808
1869,1852,1814
1905,1873,1904
2066,1899,1878
1829,1899,1830
1622,1807,1791
1711,1824,1827
2112,1887,1840
2099,1903,1803
1769,1838,1895
1680,1857,1869
1931,1862,1788
1850,1893,1808
1762,1872,1899
1819,1861,1903
1986,1850,1874
2003,1878,1849
1904,1838,1801
1955,1872,1845
1871,1826,1808
1833,1853,1828
1685,1819,1825
1794,1815,1886
1895,1826,1810
1833,1865,1853
1791,1879,1867
1917,1904,1847
2076,1840,1817
1843,1820,1805
1682,1872,1920
1723,1879,1862
1910,1919,1907
1952,1899,1875
2003,1885,1838
1807,1805,1794
1747,1826,1781
1805,1837,1813
1881,1878,1915
2013,1922,1938
1920,1887,1857
1893,1862,1792
1895,1840,1753
1886,1888,1877
2001,1862,1876
1936,1832,1924
1779,1866,1901
1699,1847,1808
1891,1909,1845
1906,1876,1796
1805,1854,1843
1918,1839,1833
1805,1825,1801
1872,1837,1840
1845,1850,1849
1751,1870,1888
1820,1897,1922
1920,1888,1925
1872,1861,1839
1874,1872,1819
1886,1872,1836
1967,1879,1855
1990,1841,1791
1911,1835,1840
1809,1894,1905
1760,1871,1790
1867,1874,1805
1990,1899,1862
1850,1824,1808
1799,1855,1855
1859,1839,1831
