1822,1906,1835
1838,1819,1853
1951,1860,1961
2029,1937,1997
1915,1882,1998
1683,1730,1692
1585,1713,1614
2097,1920,1941
2174,1970,2033
1653,1745,1781
1674,1762,1814
1953,1872,1824
2000,1933,1951
1820,1856,1907
1809,1806,1831
1949,1904,1817
2016,1872,1809
2031,1851,1923
1728,1792,1846
1858,1918,1982
1995,1918,1975
1902,1776,1693
1803,1765,1673
1774,1867,1872
1912,1932,1959
1796,1836,1899
1882,1842,1918
2080,1872,1904
2037,1902,1844
1783,1839,1726
1729,1806,1856
1922,1863,1920
1915,1927,1904
1827,1840,1838
1947,1802,1890
1989,1894,1895
1734,1877,1875
1754,1791,1779
1994,1855,1936
2011,1933,1982
2026,1943,1946
2000,1824,1767
1648,1747,1744
1711,1861,1869
1904,1922,2025
2265,1934,1847
1933,1783,1843
1690,1819,1947
1698,1899,1872
1811,1811,1737
1808,1776,1847
2138,1922,1911
2277,1877,1799
1586,1729,1747
1616,1858,1977
2029,1906,2023
2130,1934,1858
1658,1815,1846
1650,1791,1904
2032,1919,2000
2333,1978,2106
1859,1731,1589
1649,1781,1703
1897,1867,1808
2350,1990,1968
1686,1801,1904
1565,1813,2009
1978,1901,1998
2013,1913,1883
1718,1741,1695
1845,1791,1790
2058,1893,1850
1901,1907,2026
1703,1822,1867
1940,1861,1904
2127,1933,1865
2055,1914,1941
1808,1783,1842
1673,1793,1883
1841,1939,1906
1979,1921,1866
1918,1822,1821
2041,1910,2017
2064,1893,2017
1887,1870,1903
1760,1739,1571
2065,1872,1751
2021,1899,1994
1753,1923,2096
1699,1815,1876
1797,1738,1830
1923,1861,1956
1958,1904,1976
1893,1897,1792
1799,1871,1869
1819,1895,1987
2032,1872,1872
1957,1833,1760
1905,1897,1954
1794,1881,1917
1810,1841,1962
1741,1772,1817
1860,1813,1678
2091,1926,2010
2154,1996,2121
1805,1821,1711
1605,1789,1777
1959,1923,2033
2105,1937,1994
1772,1795,1783
1623,1769,1753
2032,1899,1893
2118,1936,2034
1985,1869,1937
1712,1812,1835
1702,1869,1795
1923,1918,1861
1874,1837,1905
1861,1791,1758
1933,1854,1861
2037,1932,1990
1808,1887,2035
1855,1879,1913
1757,1840,1739
1815,1878,1774
1851,1869,1823
1902,1798,1846
2035,1888,1886
2032,1969,1910
1721,1831,1937
1738,1840,1891
2029,1934,1954
2071,1957,2037
1925,1875,1885
1992,1925,1897
1686,1787,1725
1604,1808,1744
1861,1775,1867
1969,1809,1914
1931,1974,1913
1847,1936,1903
2018,1842,1793
1782,1777,1931
1741,1922,2009
2000,1994,1968
1899,1835,1759
1768,1778,1746
1851,1853,1840
1985,1923,1878
1933,1839,1899
1740,1808,1903
1772,1904,1902
1855,1904,1732
1857,1830,1723
1803,1797,1882
2035,1956,2093
2266,2042,2015
1951,1811,1801
1535,1715,1714
1709,1862,1796
1903,1941,2023
1870,1857,1871
1790,1798,1845
1984,1873,1807
2137,1931,1885
1703,1835,1862
1710,1853,1921
1901,1910,1917
2063,1933,2035
2023,1847,1830
1662,1712,1515
1786,1855,1858
1989,1963,1949
1951,1941,1949
1871,1878,1899
1769,1824,1865
1854,1842,1872
1900,1877,1777
1873,1857,1773
1876,1893,1846
2033,1942,2028
1859,1825,1843
1733,1881,1783
1815,1870,1769
1994,1963,1930
1893,1811,1934
1775,1857,1825
1905,1915,1819
1904,1873,1779
2021,1841,1749
1709,1779,1925
1737,1929,2003
2086,1955,1875
2082,1849,1789
1794,1841,1872
1601,1860,1840
1844,1917,1938
1929,1850,1744
1877,1821,1703
1841,1930,1978
2035,1936,2025
1776,1787,1813
1915,1877,1853
1990,1899,1862
1824,1887,1889
1903,1889,1744
1840,1840,1782
1846,1895,1938
2027,1985,1951
1859,1872,1931
1830,1823,1709
1855,1904,1927
1758,1862,1907
1793,1872,1938
1818,1813,1844
1731,1919,1805
2030,1993,1797
2105,1927,1823
1827,1746,1683
1801,1884,1913
1777,1936,2018
1823,1863,1999
2005,1897,1963
1936,1936,1782
1767,1918,1783
1779,1791,1881
1852,1838,1836
1837,1935,1810
1968,1971,1925
1811,1769,1774
1763,1837,1774
1932,1984,1968
1959,1940,1894
1791,1814,1681
1797,1834,1882
2064,1919,1903
1993,1931,1729
1751,1818,1850
1642,1807,2013
1742,1920,1872
1965,1963,1795
2028,1845,1750
1786,1840,1874
1961,2039,2134
2071,1971,2028
1829,1819,1753
1771,1786,1618
1715,1830,1726
1734,1887,1888
1803,1871,1929
1969,1872,1945
2058,1872,1872
1899,1919,1821
1873,1889,1867
1968,1850,1854
1810,1919,1899
1950,1947,1857
1721,1802,1798
1698,1818,1743
2194,1963,1930
2144,1885,1918
1648,1729,1776
1535,1838,1821
1979,2015,2060
2092,2015,1959
1689,1769,1757
1651,1725,1629
1889,1896,1914
2102,1936,1906
1873,1855,1777
1781,1840,1904
1858,1941,2001
1922,1936,1862
1999,1863,1803
2163,1808,1795
1897,1857,1680
1691,1925,1899
1647,1858,1861
1740,1831,1855
2009,1872,1870
2066,1895,1833
1970,1855,1795
1648,1776,1865
1623,1878,1975
1890,1952,1986
2115,1873,1763
2000,1849,1770
1849,1883,1957
1655,1839,1930
1776,1800,1797
1866,1808,1807
1986,1931,2032
1948,1887,1915
1877,1776,1747
1854,1763,1739
1930,1931,1857
1804,1922,1968
1776,1824,1843
1777,1791,1770
2173,1905,1862
2225,1947,2029
1685,1755,1874
1616,1737,1778
1808,1873,1714
1917,1931,1812
1775,1840,1904
1843,1783,1885
2179,1895,1814
2014,1902,1857
1783,1792,1934
1710,1790,1886
1850,1899,1899
1873,1892,1887
1707,1783,1758
1941,1808,1746
2359,1943,1890
1714,1870,1896
1461,1810,1901
1584,1776,1898
2037,1886,1968
1968,1887,1846
1804,1844,1870
1810,1810,1779
2062,1867,1707
1907,1835,1785
1754,1808,1872
1673,1824,1978
1942,1955,2017
2010,1894,1938
1941,1838,1987
1936,1798,1766
1803,1808,1593
1719,1893,1869
1600,1823,1904
1806,1808,1857
2011,1906,1887
2066,1936,1945
1691,1751,1808
2017,1905,1950
2003,1867,1763
1769,1823,1761
1857,1872,2011
1796,1818,1979
1707,1855,1745
1872,1896,1770
2123,1827,1829
1825,1774,1869
1681,1863,1893
1937,1980,1920
2080,1856,1827
1886,1738,1798
1611,1867,1857
1812,1937,1891
2047,1870,1945
1935,1743,1879
1973,1877,1882
1810,1886,1811
1808,1874,1894
1697,1779,1847
1888,1861,1856
2105,1931,1870
2335,1920,1901
1798,1807,1910
1406,1782,1840
1723,1863,1802
2201,1879,1844
2026,1812,1841
1707,1867,1929
1655,1851,1920
1719,1773,1841
2109,1872,1759
2117,1914,1873
1858,1848,1843
1584,1808,1789
1781,1863,1936
2275,1936,1897
1899,1855,1825
1563,1808,1965
2073,1855,2080
1934,1818,1863
1635,1827,1731
1700,1822,1712
1904,1859,1823
2350,1949,1870
2159,1841,1862
1390,1728,1809
1397,1749,1835
1825,1882,2021
1983,1930,1904
1957,1834,1785
1859,1810,1799
1956,1918,1835
1873,1850,1890
1845,1810,1881
1847,1865,1930
1951,1890,1861
1728,1861,1845
1679,1777,1855
1942,1808,1915
1960,1884,1883
1872,1870,1786
1690,1845,1710
1894,1893,1775
2043,1915,1891
1853,1924,1958
1775,1814,1910
1903,1844,1830
1863,1846,1794
1939,1877,1862
1919,1835,1865
1680,1813,1877
1731,1859,1840
1819,1910,1921
2043,1903,1957
2017,1814,1792
2014,1890,1796
1694,1926,1922
1632,1807,1817
1778,1808,1919
2174,1937,1951
2119,1937,1856
1843,1845,1822
1719,1822,1877
1723,1840,1894
1860,1856,1790
1949,1904,1875
1995,1903,1870
1847,1852,1845
1728,1854,1938
1819,1878,1914
1958,1918,1967
1951,1899,1770
2000,1927,1813
1716,1781,1762
1673,1815,1898
2009,1940,1954
1936,1875,1898
1777,1795,1840
1983,1859,1971
2138,1986,1973
1771,1865,1719
1557,1808,1797
1790,1833,1878
2107,1897,1827
1959,1839,1841
1653,1858,1940
1801,1874,1904
1967,1866,1895
2210,1899,1870
1858,1858,1909
1482,1817,1813
1729,1889,1794
2173,1970,1898
2155,1919,1989
1795,1751,1795
1756,1796,1722
1731,1883,1826
1799,1840,1968
1925,1860,1969
2086,1914,1866
1806,1843,1759
1607,1792,1785
1645,1845,1905
1929,1957,1985
2160,1970,1943
2087,1889,1899
1789,1794,1821
1918,1867,1854
1825,1821,1833
1650,1834,1829
1769,1840,1859
2234,1921,1884
2182,1928,1872
1617,1791,1819
1564,1803,1917
1808,1873,1808
1986,1987,1979
2072,1923,1936
1879,1736,1697
1891,1877,1852
1789,1843,1859
1706,1834,1872
2058,1936,2086
1761,1890,1917
1694,1902,1866
1775,1844,1843
1911,1819,1776
2151,1937,1921
2170,1973,2042
2039,1817,1754
1617,1727,1695
1633,1855,1825
1904,1968,1995
2028,1901,1894
1777,1799,1770
1643,1872,1898
1823,1936,1971
1809,1845,1886
1787,1788,1827
2107,1923,1900
2384,2017,2015
2418,1899,1840
1605,1670,1627
1200,1837,1946
1612,1904,1872
2019,1903,1847
1881,1842,1921
1886,1862,1863
2087,1939,1904
2226,1858,1791
1766,1815,1792
1509,1934,2032
1605,1869,1973
1712,1789,1818
1842,1811,1808
2064,1922,1914
1864,1930,1907
1712,1851,1890
1744,1831,1870
1866,1950,1898
1918,1938,1901
1843,1834,1850
1813,1808,1854
1890,1905,1905
1922,1933,1911
1855,1829,1859
1827,1824,1844
1903,1920,1901
1929,1890,1904
1857,1860,1857
1836,1830,1857
1909,1889,1915
1936,1951,1899
1863,1870,1841
1861,1795,1859
1921,1887,1915
1947,1919,1918
1881,1863,1856
1840,1831,1840
1919,1892,1891
1950,1929,1917
1883,1858,1872
1869,1831,1858
1939,1900,1915
1973,1926,1927
1905,1842,1872
1893,1792,1885
1975,1901,1936
2001,1980,1957
1936,1819,1906
1915,1817,1879
1986,1890,1945
2029,1939,1968
1963,1869,1914
1924,1806,1910
2001,1855,1966
2045,1927,1979
1978,1853,1921
1965,1785,1927
2035,1895,1986
2074,1929,1996
1998,1855,1936
1974,1787,1926
2047,1904,1983
2086,1939,1989
2017,1872,1943
2000,1833,1963
2071,1911,2003
2110,1978,2001
2032,1915,1950
2016,1947,1981
2096,1997,2002
2125,2081,2010
2063,1984,1970
2037,1966,1968
2113,2058,2027
2142,2062,2041
2077,1991,1985
2062,1977,1997
2129,2057,2042
2171,2112,2062
2111,2054,2009
2085,2097,2007
2146,2117,2063
2177,2188,2068
2116,2112,2022
2112,2128,2038
2185,2167,2096
2210,2239,2099
2142,2163,2031
2118,2153,2039
2202,2236,2113
2233,2265,2100
2166,2229,2035
2146,2259,2046
2221,2278,2127
2256,2377,2130
2181,2324,2065
2156,2243,2061
2231,2320,2117
2270,2387,2128
2198,2271,2087
2176,2261,2085
2242,2303,2130
2271,2367,2131
2203,2309,2079
2187,2245,2093
2252,2349,2151
2286,2371,2161
2224,2333,2109
2203,2329,2110
2273,2362,2163
2304,2379,2173
2239,2335,2123
2210,2355,2113
2285,2384,2160
2304,2407,2173
2237,2349,2128
2215,2306,2130
2286,2369,2179
2319,2393,2192
2240,2347,2130
2211,2305,2131
2285,2361,2177
2320,2405,2187
2245,2333,2128
2238,2288,2138
2294,2417,2192
2327,2398,2202
2243,2383,2128
2213,2271,2125
2283,2345,2181
2320,2380,2193
2259,2299,2157
2229,2247,2157
2288,2375,2206
2308,2350,2186
2246,2288,2119
2224,2303,2133
2293,2346,2195
2320,2383,2204
2243,2292,2149
2217,2243,2138
2287,2350,2192
2316,2333,2192
2241,2254,2133
2215,2203,2129
2285,2298,2182
2323,2256,2191
2252,2290,2137
2219,2224,2139
2279,2272,2183
2313,2293,2187
2237,2250,2133
2211,2197,2126
2275,2259,2182
2310,2244,2192
2246,2209,2147
2213,2213,2128
2269,2246,2163
2303,2273,2160
2230,2215,2115
2202,2254,2123
2262,2239,2165
2305,2256,2178
2237,2174,2133
2201,2149,2125
2256,2244,2160
2288,2271,2155
2223,2153,2101
2199,2224,2103
2260,2214,2170
2282,2222,2171
2211,2154,2112
2191,2121,2097
2261,2160,2122
2277,2224,2155
2197,2210,2122
2169,2124,2112
2237,2193,2143
2267,2287,2161
2192,2061,2090
2156,2036,2073
2219,2117,2112
2255,2164,2131
2197,2112,2096
2154,2077,2096
2215,2129,2128
2251,2153,2124
2186,2091,2083
2150,2064,2081
2203,2112,2105
2222,2129,2094
2165,2071,2060
2135,2034,2075
2192,2096,2117
2219,2114,2101
2159,2043,2060
2127,2010,2064
2182,2064,2098
2208,2093,2090
2138,2031,2047
2111,1988,2058
2161,2045,2085
2195,2078,2079
2128,2010,2053
2106,1985,2054
2165,2028,2070
2191,2053,2039
2137,2003,2023
2111,1975,2042
2158,2007,2081
2174,2029,2058
2109,1968,2015
2085,1950,2030
2129,2000,2069
2166,2016,2064
2111,1961,2001
2082,1939,2016
2128,1973,2054
2153,1999,2037
2100,1959,2021
2074,1933,2032
2116,1962,2039
2138,1974,2031
2097,1921,2000
2061,1906,2017
2107,1941,2034
2133,1966,2025
2084,1920,1993
2047,1890,1998
2090,1917,2018
2108,1936,2001
2069,1909,2003
2043,1887,2032
2079,1911,2039
2099,1922,2017
2058,1886,1991
2030,1865,1999
2065,1898,2026
2094,1923,2034
2058,1885,2000
2020,1854,1997
2057,1889,2018
2073,1904,2005
2043,1871,1971
2030,1857,1994
2061,1894,2021
2078,1898,2004
2032,1863,1972
2002,1840,1983
2037,1867,2003
2055,1889,2000
2014,1858,1975
2001,1835,1977
2020,1853,1984
2026,1872,1991
1987,1840,1968
1982,1823,1968
2002,1839,1973
2015,1845,1969
2000,1824,1954
1983,1808,1950
1999,1821,1967
2005,1839,1968
1988,1818,1953
1981,1801,1953
2000,1827,1975
2002,1835,1977
1967,1807,1947
1951,1802,1938
1980,1818,1968
1995,1830,1968
1966,1799,1939
1949,1790,1942
1984,1819,1957
1989,1840,1953
1967,1797,1936
1940,1776,1936
1967,1794,1963
1975,1798,1953
1936,1779,1924
1919,1762,1924
1947,1791,1943
1968,1808,1961
1936,1786,1936
1902,1775,1919
1927,1797,1933
1946,1805,1935
1924,1759,1920
1911,1742,1913
1931,1762,1927
1931,1792,1929
1893,1757,1901
1882,1731,1888
1920,1763,1913
1926,1791,1920
1889,1753,1883
1871,1730,1875
1899,1758,1909
1930,1778,1936
1894,1744,1901
1871,1728,1884
1897,1757,1904
1919,1762,1909
1882,1731,1878
1855,1726,1871
1879,1743,1889
1890,1744,1898
1871,1729,1877
1866,1720,1882
1894,1755,1904
1895,1766,1905
1872,1734,1877
1851,1728,1857
1871,1756,1874
1877,1748,1870
1855,1727,1855
1849,1712,1873
1883,1770,1908
1880,1775,1891
1854,1744,1857
1881,1923,1913
1857,1731,1862
1855,1562,1843
1835,1600,1849
1823,1661,1870
1847,1713,1898
1854,1715,1872
1824,1667,1839
1817,1657,1855
1856,1731,1894
1874,1851,1895
1804,1739,1853
1779,1597,1860
1809,1629,1846
1840,1702,1866
1828,1761,1871
1825,1647,1872
1834,1620,1913
1831,1703,1856
1807,1856,1836
1789,1798,1840
1762,1510,1842
1792,1578,1847
1768,1605,1827
1786,1634,1840
1823,1655,1909
1819,1730,1921
1757,1670,1831
1825,1660,1747
1841,1734,1776
1727,1680,1842
1706,1652,1823
1813,1833,1872
1825,1735,1901
1709,1563,1903
1681,1614,1883
1711,1775,1781
1780,1722,1824
1763,1648,1814
1718,1621,1766
1673,1742,1766
1707,1715,1843
1846,1793,1937
1776,1845,1843
1701,1829,1733
1718,1803,1817
1699,1801,1811
1667,1838,1698
1691,1987,1728
1684,2003,1726
1845,2029,1810
1856,2003,1693
1501,1936,1692
1535,2055,1805
1761,2230,1904
1730,2197,1843
1635,2178,1772
1663,2320,1781
1657,2494,1755
1566,2254,1610
1633,2293,1634
1719,2507,1751
1725,2678,1776
1619,2669,1663
1589,2752,1776
1606,2915,1748
1674,3130,1750
1663,3200,1741
1458,3215,1600
1445,3475,1595
1559,3888,1646
1559,3969,1616
1439,4060,1514
1530,4095,1604
1585,4095,1680
1418,4095,1535
1392,4095,1507
1597,4095,1431
1739,4095,1535
1634,4095,1535
1453,4095,1535
1344,4095,1354
1501,4095,1564
1387,4095,1426
1335,4095,1561
1678,4095,1707
1903,4095,1649
1293,4095,1461
816,4095,1171
1194,4095,1330
2170,4095,1654
1631,4095,1255
933,3859,1145
1337,3870,1808
1472,3430,1564
1085,3181,1170
1361,3326,1473
1971,3522,1606
1724,3163,1745
1275,2816,1467
1168,2624,1232
1711,2959,1615
2066,2857,1727
1159,2365,1345
1321,2352,1375
1975,2630,1868
1245,2285,1527
1443,2255,1317
1281,1845,1133
1023,1831,1485
1494,2061,1414
1920,2030,1477
1230,1584,1231
976,1683,1711
1429,2081,1682
1825,1840,1345
1767,1680,1373
1414,1585,1814
1263,1626,1680
1023,1467,1105
1387,1475,1183
1453,1417,1662
1187,1284,1461
1338,1410,1523
1311,1426,1604
1774,1367,1465
1259,1136,1280
866,1136,1207
1347,1276,1393
1415,1098,1611
1343,1270,1479
1264,1126,1324
1226,975,1379
1485,1134,1673
1743,1354,1726
1045,960,1206
721,857,1273
1306,961,1385
2154,1209,1706
1286,912,1379
875,885,1370
1135,938,1703
1023,873,1393
1073,870,1234
1371,867,1461
1758,976,1783
1558,1008,1344
1149,887,1373
1161,844,1485
1233,737,1535
1170,688,1319
1223,797,1468
1262,835,1530
1514,871,1786
1412,846,1407
1271,887,1488
1056,718,1358
1035,610,1426
1258,624,1447
1407,752,1472
1393,768,1594
1139,735,1487
1758,945,1621
1345,588,1359
826,511,1441
896,656,1641
1261,758,1479
1406,721,1364
1519,665,1493
1181,624,1517
1251,746,1795
1423,710,1472
1344,505,1200
1331,651,1459
1227,702,1667
1177,639,1664
1520,702,1534
1359,720,1523
1230,637,1535
1373,752,1520
1379,587,1678
1134,605,1527
1228,734,1633
1590,805,1728
1643,639,1487
1186,579,1392
962,720,1584
1456,835,1708
1490,687,1613
1125,634,1578
1329,718,1619
1554,816,1680
1225,691,1478
1276,727,1680
1609,861,1744
1465,761,1495
1423,739,1510
1517,895,1695
1115,784,1603
1014,703,1510
1426,727,1717
1571,752,1728
1328,886,1535
1359,894,1489
1535,880,1729
1611,859,1717
1318,855,1647
1311,925,1733
1531,958,1855
1575,874,1602
1422,786,1487
1241,826,1587
1200,852,1676
1535,986,1739
1442,987,1710
1615,1069,1876
1926,961,1702
1377,903,1623
1145,1013,1535
1243,949,1599
1489,946,1705
1473,998,1713
1840,1209,1809
1872,1109,1895
1603,951,1661
1091,954,1680
1043,1075,1616
1282,1087,1638
1627,1143,1800
1634,1105,1776
1497,1101,1743
1422,1122,1791
1535,1183,1762
1774,1186,1679
1680,1212,1899
1437,1061,1759
1373,1091,1635
1457,1230,1728
1664,1322,1835
1725,1210,1727
1403,1136,1719
1582,1257,1744
1677,1285,1773
1530,1269,1879
1452,1264,1860
1602,1314,1749
1637,1268,1599
1717,1296,1762
1793,1274,1873
1515,1271,1712
1456,1334,1865
1557,1366,1773
1698,1319,1685
1813,1350,1722
1948,1424,1840
1669,1398,1799
1382,1349,1795
1420,1367,1955
1640,1409,1911
1758,1413,1679
1802,1378,1680
1683,1393,1729
1535,1458,1833
1698,1511,1811
1833,1502,1803
1647,1431,1894
1787,1525,1953
1776,1487,1792
1611,1490,1753
1776,1520,1804
1776,1487,1717
1576,1451,1749
1630,1535,1971
1824,1598,1969
1925,1568,1891
1781,1629,1856
1533,1525,1779
1678,1554,1729
2082,1674,1856
1686,1565,1797
1562,1510,1968
1734,1633,1914
1744,1616,1754
1996,1679,1838
1943,1631,1895
1408,1598,1830
1519,1693,1820
2114,1735,1852
2014,1631,1842
1619,1611,1834
1686,1691,1936
1812,1619,1890
1829,1661,1787
1746,1701,1922
1670,1740,1905
1842,1731,1872
1872,1707,1932
1931,1681,1958
1942,1728,1824
1786,1666,1680
1658,1719,1918
1857,1761,1973
1918,1773,1907
1862,1787,1790
1901,1751,1808
1824,1695,1712
1825,1746,1887
1856,1781,2027
1970,1715,1940
2028,1760,1807
1972,1798,1759
1574,1702,1683
1659,1717,1891
2059,1819,1963
2000,1867,1952
1893,1855,1969
1943,1781,1878
2144,1859,1837
1847,1765,1819
1711,1763,1974
1743,1761,1845
1856,1840,1765
1909,1889,1830
1921,1827,1902
2031,1827,1902
1840,1835,1930
1910,1913,1949
1872,1867,1935
1815,1773,1821
2016,1841,1781
1943,1903,1840
2009,1905,1889
2127,1872,1899
1887,1834,1881
1893,1965,1920
2079,1925,1894
1825,1763,1876
1589,1744,1843
1815,1956,1898
1865,1921,1834
1879,1840,1859
2013,1904,1904
2153,2000,1943
2011,1981,1975
1829,1825,1828
1759,1850,1817
1833,1901,1811
1946,1949,1954
1982,1857,1837
2053,1921,1838
1835,1983,1824
1765,1931,1857
2010,1919,1920
2224,2011,1994
1989,1983,1808
1793,1887,1773
1823,1838,1954
1859,1902,1946
1904,1986,1793
1901,1971,1680
1951,2027,1936
1923,1967,1920
1965,1975,1817
1942,1923,1942
2096,1917,1857
2183,1986,1678
2066,1997,1922
1615,1872,1825
1518,1915,1855
1898,2034,1995
2102,2093,1949
2171,2020,1878
1994,1851,1733
1839,1856,1725
2228,2036,1831
2149,1995,1875
1606,1905,1895
1744,1968,1931
2155,2059,1895
2003,1954,1781
1741,1955,1787
2032,2033,1944
2157,1989,1776
1942,1941,1840
1935,2006,1950
2192,2042,1907
1990,2000,1808
1648,1945,1739
1725,1971,1936
1979,1965,1809
2127,1988,1747
2177,2018,1897
1915,1933,1875
1781,1984,1840
2032,2055,1889
2076,1993,1890
1925,1934,1935
1738,1983,1828
1875,2064,1788
2065,2033,1783
1968,1951,1797
1895,1996,1934
2019,2064,1973
2098,2019,1815
1887,1946,1735
1817,2006,1895
2094,2106,2009
2176,2032,1822
1941,1966,1815
1974,2053,1858
2062,2054,1846
1820,1975,1753
1775,1925,1792
1909,1994,1953
2110,2082,1995
2010,2075,1809
1961,2012,1802
1955,1968,1833
1995,2041,1889
1872,1975,1847
1941,1968,1887
1952,1946,1774
1920,2032,1781
1939,2023,1881
1886,1943,1786
2042,2017,1808
2234,2114,1885
2082,2019,1842
1854,1920,1786
1948,2001,1892
2100,2068,1920
1809,1981,1776
1776,1938,1824
1942,2019,1883
2162,2085,1845
2203,1995,1785
1967,1911,1751
1987,1990,1904
2025,2111,1968
1837,1986,1823
1936,1978,1858
2060,1958,1829
2000,1975,1762
1920,1967,1792
2064,1967,1853
2045,1957,1895
1955,2016,1936
1918,2031,1820
1998,2017,1932
2131,2073,1885
2000,1975,1739
1758,1904,1806
1883,1950,1856
2094,1956,1862
2229,2005,1797
2112,2061,1857
1881,1935,1845
1898,1956,1926
2119,2115,2078
1942,2016,1841
1830,1856,1590
1894,1936,1840
2045,2015,2026
2102,1990,1817
2003,1907,1650
1978,1963,1776
1878,2013,1985
1930,2029,1966
2057,1981,1841
2087,1961,1814
1999,2011,1819
2010,1978,1817
2042,1891,1808
1971,1878,1821
1909,1966,1762
1898,2030,1875
1955,1959,2053
2137,2020,1897
2094,1975,1711
1991,1942,1791
1910,1921,1852
2103,1973,1839
2113,1975,1814
1788,1920,1818
1782,1904,1907
2022,1975,2017
2095,2038,1807
1911,1934,1653
1886,1892,1745
2128,1976,1897
2010,1970,1782
1843,1958,1859
1830,1874,1889
1990,1915,1866
2091,1991,1851
2064,1977,1876
1949,1939,1874
1988,1963,1821
2128,1998,1807
1911,1904,1763
1889,1873,1817
2047,1951,1936
1950,1909,1799
2051,1921,1683
1854,1891,1905
1744,1931,1917
1886,1981,1744
2032,1952,1776
2176,1979,1886
2043,1905,1871
1806,1874,1826
1872,1893,1818
1963,1904,1783
2082,1936,1808
1950,1966,1840
1855,1956,1904
1879,1915,1936
2017,1898,1791
2109,1919,1705
2139,1994,1916
2187,1982,1936
1933,1835,1747
1760,1856,1738
1764,1871,1836
1972,1904,1859
2212,1918,1844
2067,1904,1755
1822,1906,1849
1844,1883,1879
1942,1935,1858
2117,2000,1807
1904,1890,1747
1815,1840,1808
2176,1915,1929
2099,1913,1859
1904,1890,1824
1766,1807,1703
1968,1883,1766
1987,1964,1845
1863,1923,1839
1904,1914,1814
2159,1941,1840
2128,1893,1821
1728,1837,1843
1719,1853,1759
2018,1904,1817
2186,1936,1841
1967,1867,1737
1927,1854,1755
2203,1952,1920
1977,1893,1765
1741,1823,1713
1776,1806,1818
2000,1888,1855
2062,1950,1839
1959,1899,1749
1858,1799,1759
1989,1825,1804
2029,1901,1870
1926,1900,1759
1789,1853,1834
2007,1882,1856
2126,1900,1797
1875,1870,1713
1771,1814,1776
2026,1887,1890
2064,1925,1802
1895,1855,1792
1869,1786,1827
2160,1900,1969
1919,1869,1762
1694,1813,1653
1831,1762,1699
1936,1798,1745
1939,1938,1943
1959,1911,1835
2117,1809,1766
2127,1857,1827
1871,1904,1895
1811,1857,1811
1950,1803,1776
1865,1858,1803
1862,1868,1828
1894,1831,1854
2039,1825,1669
1936,1849,1842
1995,1882,1863
2057,1854,1811
1920,1797,1884
1785,1809,1756
1980,1915,1865
2085,1875,1818
1893,1758,1831
1807,1837,1829
1859,1851,1818
1922,1840,1799
1932,1813,1796
1867,1824,1826
1995,1938,1911
1872,1872,1920
2074,1815,1873
2035,1829,1794
1743,1838,1824
1679,1808,1808
1893,1820,1812
2004,1855,1877
1959,1914,1911
1835,1836,1795
1805,1783,1808
2032,1815,1831
1994,1907,1863
2042,1863,1866
1900,1776,1776
1830,1792,1792
1833,1890,1886
1835,1837,1908
1936,1799,1799
2043,1822,1797
1952,1890,1943
1714,1821,1904
1847,1795,1827
1954,1835,1797
2010,1901,1867
1985,1889,1957
1901,1811,1906
1914,1841,1847
1938,1883,1818
1925,1810,1807
1781,1751,1836
1799,1819,1893
1953,1904,1890
1904,1857,1776
1758,1817,1806
1851,1840,1856
2096,1887,1842
2187,1904,1845
1808,1744,1801
1813,1809,1898
1860,1872,1918
1819,1867,1936
1855,1790,1914
1963,1856,1830
1945,1856,1782
1797,1845,1805
1842,1835,1879
2026,1849,1911
1965,1857,1939
1951,1877,1911
1957,1813,1749
1808,1808,1821
1824,1851,1911
1968,1871,1975
1936,1806,1935
1818,1769,1862
1968,1863,1695
2011,1847,1789
1940,1791,1869
1805,1792,1885
1897,1854,1936
2022,1829,1846
1831,1766,1819
1831,1845,1926
1971,1867,1881
1931,1753,1762
1773,1735,1924
1920,1855,2000
2045,1913,1879
1969,1840,1852
1923,1825,1890
1915,1777,1796
1753,1806,1750
1989,1842,1901
1905,1775,1840
1665,1775,1854
1743,1839,1917
2082,1889,1910
1985,1788,1808
1710,1769,1817
1889,1891,1965
1983,1845,1823
1905,1743,1769
1963,1794,1876
1979,1872,1882
1931,1890,1904
1861,1808,1929
1699,1678,1881
1861,1813,1876
2064,1850,1916
1872,1723,1839
1767,1758,1743
1919,1908,1902
2137,1898,1981
1921,1755,1808
1814,1823,1817
1765,1825,1840
1915,1828,1917
1903,1683,1701
1743,1792,1870
1887,1904,1967
1877,1838,1962
1999,1813,1894
2047,1840,1902
1790,1819,1837
1587,1775,1738
1840,1737,1712
1981,1785,1845
1853,1893,2060
2000,1917,1920
1988,1811,1849
1823,1791,1980
1761,1802,1792
1907,1858,1797
1942,1789,1903
1872,1754,1854
1869,1839,1779
1917,1901,1906
1890,1840,1915
1750,1754,1825
1919,1887,1919
1923,1868,1942
1721,1750,1762
1954,1805,1808
1967,1852,1875
1777,1879,1899
1850,1763,1789
1966,1810,1894
2055,1936,2000
1911,1889,1803
1727,1725,1708
1787,1742,1957
2011,1859,1890
1975,1849,1842
1667,1781,1825
1750,1803,1872
1904,1854,1872
2046,1853,1933
1881,1783,1838
1825,1815,1827
1879,1840,1867
1827,1817,1734
1781,1803,1727
1776,1808,1879
1941,1878,1918
2014,1866,1843
1749,1802,1855
1927,1899,1984
1967,1903,1900
1904,1841,1847
1698,1744,1795
1891,1842,1885
1993,1815,1776
1890,1776,1825
1813,1820,1830
1759,1849,1911
1957,1904,1936
1866,1842,1861
1769,1749,1856
1853,1808,1814
1967,1935,1927
1934,1917,1889
1867,1791,1776
1730,1776,1825
1767,1838,1861
1931,1831,1886
2075,1858,2018
1885,1844,1887
1777,1872,1867
1925,1916,1893
1808,1798,1855
1779,1835,1861
1968,1950,1968
2032,1839,1748
1763,1710,1631
1761,1807,1981
1749,1859,1968
1911,1830,1882
1974,1838,1867
1862,1858,1833
1831,1891,1829
