1811,1759,2010
1849,1775,2032
1780,1776,2046
1822,1774,2027
1843,1771,2009
1793,1773,2007
1840,1776,2000
1810,1766,2011
1798,1762,2033
1842,1771,2054
1817,1776,2037
1801,1755,2000
1782,1751,1993
1823,1761,2014
1841,1776,2035
1858,1775,2021
1794,1762,2011
1798,1764,2034
1813,1775,2029
1804,1766,2003
1831,1761,2013
1838,1776,2032
1836,1791,2033
1808,1786,2001
1729,1775,2005
1904,1782,2030
1810,1789,2032
1824,1779,2015
1802,1771,2032
1823,1782,2053
1834,1793,2064
1827,1773,2043
1815,1783,2067
1827,1781,2103
1808,1778,2064
1801,1772,2032
1797,1781,2062
1825,1781,2082
1799,1783,2096
1840,1783,2109
1831,1792,2112
1819,1779,2117
1824,1772,2117
1792,1769,2082
1797,1763,2096
1830,1776,2129
1826,1776,2127
1761,1757,2075
1759,1758,2069
1806,1776,2122
1903,1785,2192
1838,1785,2148
1856,1779,2128
1791,1783,2157
1827,1780,2173
1801,1770,2176
1825,1773,2176
1845,1814,2239
1942,1853,2304
1867,1807,2224
1647,1717,2141
1727,1720,2231
1792,1749,2288
1786,1788,2307
1830,1781,2343
1776,1762,2245
1777,1773,2246
1803,1781,2309
1819,1774,2299
1821,1793,2301
1883,1845,2374
1881,1819,2320
1806,1747,2226
1761,1735,2243
1690,1745,2222
1717,1779,2223
1829,1826,2309
1887,1847,2322
1809,1792,2229
1698,1779,2158
1713,1785,2198
1739,1827,2251
1756,1854,2320
1796,1875,2251
1775,1867,2144
1806,1862,2149
1771,1872,2176
1761,1891,2160
1730,1906,2147
1776,1951,2185
1806,2017,2277
1777,2000,2240
1712,1969,2000
1717,1986,2019
1758,2026,2134
1805,2083,2163
1823,2107,2163
1755,2060,2096
1726,2036,2193
1705,2038,2109
1699,2082,1932
1730,2119,1955
1760,2150,2039
1760,2128,2127
1781,2119,2029
1872,2177,2000
1851,2182,2010
1710,2118,1971
1633,2073,1991
1686,2112,2034
1730,2160,1935
1744,2175,1889
1754,2189,1916
1789,2207,1968
1791,2229,1998
1765,2225,1955
1755,2224,1902
1777,2250,1920
1765,2256,1911
1744,2220,1968
1765,2205,1917
1801,2239,1811
1793,2269,1827
1771,2235,1871
1791,2218,1903
1807,2224,1855
1798,2242,1798
1787,2240,1698
1783,2215,1680
1769,2198,1728
1775,2229,1744
1767,2242,1691
1776,2241,1683
1814,2256,1713
1825,2268,1745
1818,2288,1703
1807,2284,1680
1827,2255,1557
1843,2263,1535
1775,2238,1525
1757,2219,1533
1791,2213,1565
1817,2225,1622
1808,2222,1535
1805,2205,1450
1818,2225,1489
1835,2309,1535
1815,2230,1471
1811,2134,1496
1821,2125,1530
1818,2133,1408
1805,2142,1374
1834,2151,1402
1842,2144,1459
1827,2138,1410
1813,2128,1392
1833,2153,1415
1866,2169,1420
1910,2159,1473
1863,2064,1434
1807,2007,1367
1804,2070,1410
1825,2092,1425
1868,2110,1443
1881,2101,1489
1853,1981,1462
1899,2012,1470
1835,2001,1514
1784,1991,1404
1837,2054,1425
1969,2141,1488
1968,2075,1493
1973,1906,1424
1776,1935,1426
1819,1971,1555
2089,1955,1599
1898,1939,1457
1740,1951,1413
1790,1922,1493
1989,1957,1581
1833,1939,1466
1742,1871,1501
1791,1853,1584
1835,1863,1620
1883,1841,1709
1888,1886,1792
1808,1872,1661
1829,1775,1680
1920,1637,1875
1872,1860,1967
1883,2021,1919
2143,2203,1974
1909,1904,1803
1633,1663,1843
1726,1770,2062
1833,1888,1952
1869,1927,1900
1818,1891,1987
1904,1981,2149
1989,2078,2283
1865,1975,2223
1691,1860,2042
1728,1904,2073
1898,2001,2226
1923,1931,2335
1780,1921,2278
1716,1970,2234
1835,2010,2334
2035,2087,2494
1930,2078,2492
1725,2102,2343
1662,1911,2267
1729,1808,2399
2269,2207,2893
2128,2073,2768
1513,1712,2282
1530,1671,2281
1773,1856,2387
1631,1995,2517
1963,2190,2754
2213,2287,2878
1730,2009,2448
1424,1915,2341
1431,1669,2331
1640,1776,2529
1869,1957,2629
2283,2199,2800
2042,2043,2514
1664,2034,2505
1323,1840,2363
1345,1841,2231
1647,2101,2438
1883,2357,2726
1979,2477,2755
1606,2295,2378
1251,2154,2131
1280,2147,2154
1456,2196,2224
1584,2267,2233
1858,2462,2343
1776,2359,2311
1315,2283,2203
1098,2239,2065
1366,2330,2096
1628,2451,2149
1532,2388,2083
1557,2519,2288
1298,2307,2334
975,2242,1997
1291,2414,1863
1792,2551,1978
1567,2461,1976
1678,2506,2073
1801,2458,2155
1168,2297,1998
863,2294,1837
1187,2385,1971
1377,2475,1751
1403,2511,1579
1691,2651,1683
1995,2633,1687
1648,2381,1424
1446,2176,1296
1003,2113,1370
1093,2287,1386
1430,2368,1414
1687,2374,1374
1623,2342,1269
1675,2293,1342
1607,2341,1400
1707,2416,1450
1495,2131,1007
1301,2017,838
1470,2135,1222
1650,2159,1347
1497,2126,1098
1744,2293,1115
1702,2146,1085
1400,1995,1043
1381,2005,1057
1616,2094,1043
1904,2195,1205
1875,2053,1078
1631,1984,851
1395,1855,605
1524,1966,769
1831,2000,960
1834,1898,861
1680,1882,829
1527,1948,868
1424,1899,641
1717,1906,761
1631,1814,851
1581,1800,725
1692,1895,887
1906,1882,992
1635,1808,878
1534,1807,807
1873,1807,704
1919,1777,726
1485,1682,847
1568,1701,849
1873,1859,1010
1535,1713,741
1680,1754,777
2106,1696,890
1726,1661,882
1677,1739,1008
1648,1641,886
1495,1666,832
1616,1734,848
1750,1686,887
1744,1616,1022
1895,1613,1101
1866,1645,994
1733,1639,721
1634,1573,930
1502,1591,1047
1699,1665,905
1813,1630,1069
1692,1606,944
2170,1739,1263
1968,1587,1247
1418,1423,819
1659,1557,955
1863,1498,1031
1707,1474,992
1625,1581,1138
1856,1649,1242
1882,1596,1360
1525,1481,1011
1429,1488,927
1757,1526,1085
1988,1470,1202
1827,1478,1200
1639,1680,1179
1897,1669,1269
2019,1525,1344
1516,1450,1137
1389,1379,1130
1680,1498,1168
1829,1553,1199
1872,1515,1232
1831,1589,1437
1717,1535,1435
1715,1535,1285
1728,1517,1157
1906,1535,1287
1885,1535,1291
1628,1485,1321
1566,1529,1386
1673,1613,1471
1895,1634,1466
1914,1584,1312
1717,1504,1334
1639,1393,1190
1791,1581,1522
1744,1616,1615
1778,1687,1584
1856,1633,1406
1909,1513,1342
1818,1519,1438
2037,1714,1648
1673,1494,1446
1488,1474,1324
1643,1534,1415
1818,1598,1510
1968,1610,1614
2073,1647,1727
1789,1581,1622
1658,1559,1489
1617,1591,1510
1718,1604,1582
1843,1604,1629
1857,1599,1535
2138,1683,1597
1998,1598,1600
1606,1535,1681
1602,1563,1690
1795,1599,1682
1833,1615,1634
1951,1643,1702
2023,1535,1565
2009,1530,1472
1959,1648,1724
1942,1599,1710
1446,1488,1699
1445,1576,1662
1713,1679,1705
1891,1648,1808
1901,1593,1805
1887,1614,1721
1890,1680,1749
1894,1661,1823
1875,1616,1827
1876,1664,1797
1968,1683,1809
1895,1555,1776
1902,1663,1799
1957,1648,1681
2047,1648,1665
2035,1621,1728
1629,1626,1808
1569,1641,1859
1904,1701,1927
2198,1711,1982
1906,1641,1835
1598,1612,1721
1793,1627,1665
2256,1693,1781
1889,1638,1911
1606,1656,1994
1712,1675,1926
1938,1686,1986
2211,1741,1895
2063,1683,1851
1813,1616,1919
1747,1651,1941
1840,1700,1906
1875,1697,1811
1875,1658,1859
2016,1649,1890
2082,1658,1943
1809,1661,2023
1749,1675,1887
2038,1712,1903
2146,1735,2043
1870,1634,1870
1758,1699,2000
1910,1762,2107
2000,1729,2031
2214,1732,1927
1951,1567,1793
1655,1606,1929
1850,1710,2065
1827,1686,2057
1862,1684,1968
1963,1699,1946
2105,1759,2009
1910,1677,1995
1878,1679,2090
1917,1738,2046
1873,1693,2102
1903,1649,2009
2205,1715,2011
2176,1735,1872
1813,1699,1904
1632,1691,2017
1712,1698,2058
1899,1724,2091
2163,1841,2128
2029,1697,2035
2226,1744,1946
2230,1687,1994
1535,1600,1922
1399,1680,1952
1695,1715,2047
1939,1713,2069
2122,1745,2064
2288,1904,2310
1877,1702,2122
1661,1601,1937
1872,1741,1921
2015,1805,2027
1813,1678,1961
1803,1667,1981
2137,1744,1970
2128,1724,2015
2092,1840,2240
1946,1750,2129
1901,1722,1964
1803,1673,1952
1799,1728,2095
1926,1727,1989
2066,1729,2014
2128,1790,2129
2235,1823,2126
1603,1605,1827
1442,1633,1846
1931,1763,2141
2096,1677,2207
1959,1730,1967
1889,1775,1981
1965,1786,2022
1940,1808,2107
1988,1747,2113
2010,1755,2113
2046,1744,2313
1712,1663,1892
1669,1676,1744
2297,1829,2073
1970,1664,1843
1633,1686,1881
1852,1782,2098
2147,1770,2123
2073,1777,2206
1739,1668,1970
1773,1680,1921
1980,1723,1999
1973,1774,2155
1875,1782,2182
1930,1741,1952
2139,1793,2160
2059,1728,2102
1952,1694,1975
2096,1792,2074
1885,1700,1864
1709,1653,1783
1900,1727,1979
1955,1723,2160
1887,1727,2146
1781,1678,2085
1742,1671,1883
1872,1805,2075
2064,1869,2081
2549,1943,2138
2078,1636,1872
1334,1510,1712
1744,1681,1943
1995,1703,1911
2096,1722,1951
1699,1722,2055
1632,1776,2191
1854,1779,2178
2389,1833,2170
2330,1772,2023
1856,1661,1814
1474,1590,1747
1535,1665,1931
1761,1747,1962
1984,1776,1978
1954,1790,2114
2223,1888,2239
1991,1704,2101
1629,1660,1807
1905,1687,1808
2061,1777,1901
1904,1734,2063
1808,1711,1968
1835,1707,1957
1949,1807,2075
2112,1905,2224
2129,1797,2145
1622,1627,1856
1535,1632,1695
1978,1771,1934
2242,1775,2057
1841,1648,1685
1631,1760,1985
1919,1826,2099
2128,1793,2032
1808,1763,2061
1619,1710,2069
1786,1728,1881
2006,1794,1853
1907,1776,1915
1904,1732,1917
2030,1809,2038
2016,1775,2027
1810,1707,1945
1687,1747,1908
1851,1849,2047
1890,1777,1870
1971,1822,1981
2160,1821,1994
1981,1753,2018
1744,1793,1936
1877,1825,1968
2279,1843,2014
2001,1712,1775
1445,1663,1719
1594,1724,1835
1930,1769,1913
2039,1824,2122
2004,1906,2154
1921,1840,1935
1897,1786,1873
1840,1795,1927
1870,1776,1889
1946,1839,1945
1868,1794,1907
1813,1765,1918
1935,1812,1972
2011,1842,1950
2163,1862,1974
2201,1895,1991
1712,1734,1918
1451,1715,1809
1727,1796,1872
2096,1843,2031
2015,1771,1936
1949,1835,1873
1951,1845,1922
1845,1773,1969
1901,1866,2079
1802,1856,1910
1778,1826,1841
1876,1835,1865
2005,1866,2047
1954,1840,1965
1919,1765,1799
1886,1692,1814
2007,1766,1872
1968,1920,2071
1886,1859,2007
1936,1808,1947
1939,1808,1951
1767,1792,1777
1840,1801,1808
1982,1856,1919
2134,1856,1957
1866,1758,1904
1776,1746,1997
1805,1680,1967
1889,1813,1910
1883,1906,1806
1920,1900,1944
1919,1772,1737
1971,1813,1863
1841,1791,1941
1827,1817,1968
1929,1845,1845
2036,1886,1919
1928,1772,1846
1833,1751,1856
1840,1761,1877
1907,1872,1842
1867,1872,1887
1895,1843,1942
1968,1794,1914
2086,1814,1982
1953,1863,1888
1791,1779,1775
1899,1811,1797
1971,1847,1979
1876,1841,1904
1855,1739,1783
1929,1803,1945
1838,1839,1917
1695,1812,1756
1811,1806,1774
2071,1805,1834
2095,1843,1952
1808,1808,1967
1778,1829,2021
1989,1857,1965
1953,1802,1635
1791,1810,1670
1906,1826,1851
1935,1814,1855
1871,1810,1840
1765,1802,1831
1918,1851,1955
2009,1818,2064
2077,1894,1934
1883,1781,1611
1611,1703,1625
1606,1815,1760
1776,1881,1875
1955,1867,1858
2062,1851,1904
1951,1840,1901
1917,1855,1939
2098,1899,1945
1831,1740,1862
1717,1769,1839
1797,1827,1710
2018,1904,1767
2032,1935,1871
1913,1815,1840
1823,1776,1815
1851,1813,1843
1933,1871,1857
2081,1968,2058
1841,1783,1840
1593,1744,1648
1651,1799,1747
1875,1883,1873
2170,1894,1945
2030,1821,1839
1718,1803,1711
1712,1838,1788
1833,1838,1902
1913,1891,1898
1902,1887,1921
2157,1872,1831
1956,1842,1779
1712,1810,1755
1683,1820,1807
1779,1771,1887
2011,1874,1945
1903,1842,1696
1807,1826,1715
1743,1769,1713
1808,1820,1901
1866,1859,1904
1954,1822,1779
2065,1882,1943
1914,1841,1964
1618,1775,1649
1639,1787,1616
1840,1798,1783
1999,1847,1887
1739,1798,1765
1729,1783,1562
1794,1795,1679
1852,1837,1854
1741,1822,1866
1797,1840,1769
1837,1790,1693
1954,1785,1820
1926,1831,1903
1770,1814,1681
1664,1820,1687
1735,1838,1742
2183,1918,1809
2310,1837,1797
1535,1673,1691
1405,1749,1737
1600,1793,1779
1873,1808,1856
1961,1843,1727
1744,1806,1813
1710,1799,1776
1822,1797,1712
1797,1814,1686
1761,1798,1738
2015,1904,1830
2058,1808,1802
1535,1713,1659
1553,1767,1725
1727,1829,1808
1857,1845,1893
1806,1808,1886
1839,1776,1714
1886,1727,1518
1865,1802,1676
1758,1866,1776
1663,1801,1797
1658,1774,1826
1690,1808,1799
1743,1808,1757
1845,1808,1691
1963,1841,1750
1851,1822,1830
1585,1763,1687
1558,1776,1648
1946,1879,1740
1960,1811,1771
1888,1719,1776
1764,1798,1807
1506,1767,1718
1649,1802,1710
1800,1820,1762
1861,1856,1786
1962,1907,1879
2032,1870,1801
1558,1697,1575
1457,1753,1647
1813,1831,1794
2186,1831,1907
1761,1701,1734
1391,1744,1670
1662,1854,1738
1990,1866,1809
1797,1774,1808
1613,1758,1683
1770,1821,1671
1904,1868,1760
1693,1808,1771
1757,1808,1793
1746,1814,1759
1728,1822,1701
1733,1811,1837
1779,1835,1839
1789,1829,1783
1695,1814,1740
1717,1822,1741
1986,1862,1817
1776,1806,1691
1705,1767,1708
1776,1840,1841
1853,1863,1790
1723,1808,1703
1607,1755,1770
1776,1775,1808
2027,1905,1879
1808,1870,1793
1600,1799,1791
1898,1850,1714
1902,1778,1674
1669,1740,1682
1685,1798,1809
1802,1830,1984
1867,1840,1826
1797,1803,1649
1803,1825,1735
1883,1845,1755
1713,1813,1838
1572,1786,1795
1715,1808,1810
1884,1808,1712
1995,1833,1744
1773,1843,1886
1620,1802,1843
1743,1814,1844
1952,1814,1776
1803,1754,1641
1718,1789,1657
1849,1854,1808
2009,1904,1844
1767,1791,1760
1554,1732,1776
1618,1810,1894
1765,1862,1949
1998,1810,1879
1872,1797,1846
1680,1831,1637
1552,1808,1585
1771,1817,1724
1954,1847,1799
1859,1821,1819
1675,1837,1862
1699,1843,1897
1686,1799,1810
1781,1809,1793
1822,1862,1805
1949,1837,1766
1754,1781,1776
1634,1777,1816
1675,1775,1783
1951,1853,1774
1894,1856,1770
1745,1808,1882
1751,1863,1839
1807,1823,1667
1797,1797,1729
1743,1808,1793
1840,1855,1904
1836,1795,1845
1795,1827,1775
1895,1866,1807
1819,1828,1865
1687,1824,1851
1818,1830,1855
1809,1840,1755
1763,1834,1749
1742,1808,1751
1808,1808,1807
1845,1837,1829
1799,1842,1840
1808,1869,1759
1902,1903,1882
1805,1830,1794
1822,1751,1671
1659,1819,1845
1721,1871,1983
1696,1847,1839
1800,1867,1838
1981,1857,1815
1876,1834,1814
1813,1879,1797
1815,1841,1714
1701,1829,1771
1843,1834,1895
1856,1867,1925
1854,1883,1888
1886,1840,1906
1842,1862,1755
1776,1842,1696
1744,1837,1767
1798,1870,1831
2032,1885,1905
1985,1884,1853
1711,1867,1840
1798,1877,1867
1892,1887,1859
1805,1869,1776
1776,1835,1798
1727,1853,1874
1728,1870,1818
1782,1839,1837
1855,1860,1890
1849,1903,1892
1935,1879,1819
1907,1863,1776
1804,1868,1791
1805,1909,1847
1863,1879,1889
1887,1898,1928
1877,1890,1781
1808,1838,1714
1807,1846,1935
1717,1870,1917
1734,1904,1771
1827,1886,1750
1909,1931,1951
1916,1907,1879
1888,1885,1807
1811,1869,1833
1907,1845,1849
1998,1902,1850
1841,1923,1991
1689,1869,1822
1797,1859,1794
1874,1847,1814
2005,1873,1798
1964,1866,1801
1687,1866,1819
1674,1904,1892
1793,1872,2023
1966,1887,1775
1919,1898,1743
1906,1903,1825
1943,1861,1857
1870,1874,1903
1644,1810,1822
1662,1839,1837
1870,1919,1846
2092,1948,1856
1961,1913,1844
1694,1840,1797
1754,1867,1776
1918,1917,1792
1921,1904,1953
1767,1872,1939
1771,1904,1904
1838,1872,1847
1894,1858,1728
1885,1857,1793
1872,1885,1866
1877,1888,1851
1873,1931,1934
1808,1889,1852
1851,1887,1820
1933,1931,1878
1865,1801,1927
1872,1888,1798
1840,1919,1808
1820,1887,1799
1942,1843,1808
1798,1838,1769
1791,1913,1894
1979,1949,1911
2027,1909,1904
1795,1857,1872
1873,1892,1783
1755,1871,1774
1665,1904,1889
1778,1927,1904
1961,1968,1942
1872,1869,1891
2011,1865,1802
1995,1854,1717
1728,1876,1913
1687,1885,1999
1774,1911,1856
1926,1879,1803
1970,1907,1881
1829,1903,1840
1709,1903,1809
1803,1904,1885
1872,1920,1904
1922,1902,1873
1969,1890,1875
1968,1908,1955
1936,1859,1851
1998,1823,1712
1767,1872,1750
1679,1939,1923
1774,1920,1927
1938,1921,1922
1969,1900,1886
1857,1852,1806
1803,1846,1769
1921,1934,1933
1810,1881,1867
1798,1859,1772
1856,1881,1808
1827,1894,1886
1827,1878,1886
1889,1894,1957
1911,1953,2061
1889,1936,1921
1949,1918,1840
1902,1901,1776
1877,1878,1785
1931,1898,1814
1891,1887,1849
1772,1861,1827
1950,1906,1978
1903,1879,1841
1663,1847,1825
1734,1872,1828
1915,1911,1847
1952,1915,1905
1889,1867,1873
1887,1891,1895
1831,1914,1840
1879,1913,1851
1877,1883,1921
1911,1903,1942
1966,1885,1874
2031,1818,1742
1877,1894,1939
1695,1887,1872
1699,1897,1827
1824,1872,1850
2059,1885,1839
2015,1840,1815
1898,1887,1863
1782,1907,1884
1935,1917,1903
1922,1837,1840
1802,1873,1955
1734,1867,1808
1757,1887,1795
1856,1893,1856
1981,1887,1971
2031,1933,1885
1872,1876,1776
1825,1839,1770
1840,1883,1850
1867,1905,1940
1961,1920,1996
1894,1811,1775
1953,1899,1712
2031,1922,1852
1856,1873,1931
1671,1822,1802
1657,1840,1857
1824,1904,1877
1974,1904,1869
1963,1855,1766
1888,1866,1889
1869,1889,1883
2069,1876,1830
2012,1882,1806
1723,1859,1886
1610,1846,1879
1808,1885,1883
1861,1863,1828
1941,1891,1881
1953,1904,1911
1892,1887,1891
1872,1885,1848
1849,1869,1818
1808,1858,1855
1872,1872,1843
2089,1914,1871
2078,1854,1853
1846,1799,1783
1580,1844,1852
1687,1858,1829
1899,1840,1847
2043,1971,1881
2079,1936,1882
1872,1891,1958
1836,1898,1937
1732,1818,1781
1805,1843,1797
1967,1879,1843
1914,1857,1840
1766,1862,1808
1790,1909,1840
1866,1890,1878
2067,1839,1881
1890,1814,1762
1769,1803,1859
1853,1831,1943
1890,1808,1888
1914,1867,1807
1984,1891,1785
1920,1907,1854
1866,1878,1891
1715,1823,1772
1850,1853,1809
1936,1872,1856
1930,1898,1872
1859,1834,1799
1894,1900,1877
1970,1899,1935
1891,1855,1968
1861,1862,1840
1955,1895,1797
1942,1897,1765
1808,1812,1794
1707,1792,1807
1799,1872,1825
1943,1901,1909
1947,1860,1824
1957,1822,1795
1919,1843,1908
1977,1892,1828
1853,1841,1855
1808,1843,1873
1847,1904,1925
1884,1885,1866
1915,1879,1858
1808,1857,1882
1891,1883,1762
1978,1826,1776
2009,1761,1630
1825,1806,1855
1792,1914,1990
1835,1909,1932
1970,1842,1783
1935,1771,1776
1808,1843,1891
1867,1939,1911
1834,1818,1865
1872,1886,1810
1817,1843,1716
1786,1834,1744
1888,1823,1904
1921,1819,1823
1967,1854,1769
2003,1840,1905
1809,1886,1930
1806,1840,1904
1910,1845,1863
1898,1894,1774
1873,1907,1843
1853,1903,1824
1817,1823,1757
1819,1840,1887
1895,1923,1861
1890,1814,1774
1875,1808,1897
1922,1829,1855
1839,1874,1801
1825,1900,1746
1930,1840,1791
1959,1840,1918
1905,1947,2005
1732,1824,1780
1785,1816,1727
1927,1884,1927
1920,1771,1806
1782,1881,1792
1755,1917,1825
1964,1882,1968
1959,1819,1810
1795,1838,1759
1825,1938,1870
2015,1880,2034
1788,1830,1860
1713,1844,1611
1791,1872,1694
1923,1839,1801
1953,1886,1983
1856,1813,1877
1781,1808,1799
1840,1801,1879
1858,1847,1847
1940,1868,1838
1892,1861,1841
1866,1856,1891
1962,1910,1963
2109,1875,1911
1751,1774,1717
1690,1744,1691
1746,1776,1787
1813,1857,1920
1886,1875,1917
1921,1943,1856
1935,1852,1861
1938,1815,1746
1811,1808,1698
1787,1840,1829
1881,1869,1869
2029,1895,1915
1872,1844,1815
1680,1731,1801
1677,1830,1825
1765,1925,1856
1851,1875,1927
1940,1869,1810
2043,1893,1818
1873,1855,1846
1683,1776,1823
1771,1834,1804
1875,1827,1779
1856,1847,1845
1904,1809,1777
1979,1839,1766
2047,1856,1885
1901,1840,1958
1633,1779,1899
1633,1833,1911
1741,1823,1779
1849,1879,1731
1905,1843,1775
1900,1849,1830
1939,1872,1853
2096,1871,1837
1971,1807,1771
1617,1783,1803
1621,1835,1914
1822,1869,1861
1897,1807,1872
1855,1824,1879
1871,1853,1787
1904,1847,1790
2005,1823,1921
1835,1882,1831
1810,1899,1818
1815,1761,1721
1749,1787,1767
1872,1835,1895
1872,1898,1863
1818,1813,1855
1866,1861,1877
1941,1847,1889
1885,1853,1857
1873,1856,1801
1851,1815,1810
1841,1811,1805
1747,1808,1745
1799,1825,1806
1851,1852,1941
1817,1833,1873
1843,1840,1851
1908,1861,1840
2027,1870,1861
2047,1865,1891
1749,1851,1862
1701,1877,1802
1779,1835,1808
1851,1773,1648
1935,1856,1849
1958,1886,1870
1951,1910,1984
1744,1814,1907
1754,1831,1808
1857,1813,1754
1901,1846,1801
1950,1887,1906
1824,1844,1943
1927,1881,1909
1997,1858,1838
1840,1791,1718
1726,1807,1798
1699,1823,1863
1815,1865,1904
1979,1869,1856
1951,1863,1834
1797,1856,1855
1851,1893,1898
1903,1870,1904
1907,1878,1909
1911,1872,1882
1822,1804,1839
1872,1826,1796
1865,1872,1831
1911,1899,1846
1835,1827,1791
1951,1824,1818
1965,1843,1905
1808,1863,1816
1776,1869,1859
1965,1879,2012
2021,1906,1947
1831,1839,1808
1779,1835,1809
1761,1818,1795
1840,1881,1936
1887,1875,1846
1870,1882,1895
1917,1887,1926
1921,1862,1809
1872,1860,1825
1914,1893,1917
1939,1854,1889
1989,1910,1787
1875,1902,1853
1874,1842,2007
1882,1843,1899
1807,1847,1769
1795,1853,1845
1883,1846,1824
1986,1893,1824
1963,1885,1867
1890,1898,1827
2033,1911,1891
1955,1827,1873
1670,1808,1854
1667,1837,1840
1857,1873,1811
1914,1827,1826
1894,1870,2007
1902,1899,1899
1946,1931,1915
1927,1897,1808
1903,1904,1808
1935,1903,1905
1793,1811,1840
1730,1806,1794
1865,1854,1919
1892,1891,1823
1840,1872,1717
1826,1872,1787
1871,1876,1898
1904,1898,1941
1923,1905,1949
1936,1904,1925
1944,1926,1914
1866,1872,1846
1867,1871,1875
1873,1854,1871
1929,1891,1867
1920,1825,1741
1950,1810,1762
1904,1874,1879
1986,1872,1885
1759,1870,1841
1713,1865,1827
1797,1883,1895
1890,1886,1941
2030,1904,1949
2147,1905,1875
1870,1855,2011
1616,1811,1810
1654,1838,1698
1814,1869,1790
1957,1859,1862
2111,1872,1884
1999,1882,1821
1719,1871,1843
1710,1854,1934
1822,1862,1931
1886,1872,1861
2093,1931,1904
2018,1872,1825
1808,1863,1857
1666,1831,1826
1714,1819,1828
1870,1895,1879
2015,1903,1891
1975,1904,1872
1862,1875,1866
1788,1850,1849
1804,1840,1810
1771,1869,1831
1920,1933,1914
2029,1895,1859
1886,1887,1865
1807,1890,1942
1835,1871,1904
1881,1840,1773
1978,1874,1835
1964,1873,1943
1825,1827,1870
1797,1872,1828
1861,1872,1762
1910,1899,1899
1863,1904,1947
1830,1865,1840
1844,1845,1818
1943,1915,1969
1936,1887,1801
1792,1857,1744
1813,1854,1776
1840,1840,1840
1905,1904,1997
2001,1957,1968
1927,1881,1847
1840,1831,1775
1831,1839,1773
1901,1869,1926
1991,1907,1874
1950,1902,1856
1813,1839,1922
1824,1870,1856
1936,1926,1876
1909,1875,1849
2016,1866,1861
2027,1855,1876
1725,1870,1882
1639,1871,1888
1808,1847,1774
1931,1861,1903
1973,1907,1891
1995,1908,1888
1839,1858,1808
1825,1859,1801
1833,1868,1817
1858,1872,1857
1920,1891,1934
1918,1875,1966
1889,1861,1920
1850,1879,1862
1921,1894,1744
1925,1883,1739
1968,1863,1826
1882,1850,1898
1888,1893,1827
1840,1873,1826
1850,1859,1887
1872,1851,1851
1925,1879,1901
1962,1888,1838
1814,1862,1759
1833,1887,1855
1934,1887,1929
1903,1893,1894
1858,1898,1863
1915,1854,1809
1926,1833,1856
1850,1843,1856
1823,1850,1797
1799,1874,1874
1851,1856,1843
1834,1841,1833
1888,1869,1806
2027,1906,1900
2109,1931,2023
1951,1840,1790
1787,1803,1697
1742,1872,1909
1776,1871,1866
1844,1847,1827
1919,1815,1791
1967,1834,1774
1815,1868,1789
1759,1839,1855
1785,1864,1791
1863,1881,1966
1933,1905,1996
1840,1872,1844
1859,1860,1747
1959,1830,1765
1827,1833,1840
1853,1851,1847
2032,1933,2032
2083,1935,1919
1847,1812,1709
1630,1773,1675
1669,1840,1851
1797,1869,1922
1866,1857,1840
1887,1869,1841
1962,1894,1905
1971,1845,1808
1744,1814,1787
1725,1808,1807
1912,1834,1890
1955,1840,1836
1927,1841,1808
1800,1893,1819
1766,1891,1889
1794,1843,1808
1872,1830,1774
1936,1845,1825
1877,1861,1936
1858,1872,1890
1841,1853,1845
1917,1862,1782
1871,1840,1845
1742,1797,1778
1745,1798,1711
1884,1856,1818
1967,1879,1891
1894,1861,1846
1801,1837,1792
1838,1806,1840
1887,1813,1810
1902,1869,1840
1815,1869,1802
1814,1873,1842
1936,1895,1843
1830,1810,1776
1776,1815,1872
1773,1824,1957
1849,1843,1791
1917,1877,1766
1795,1847,1829
1776,1850,1847
1927,1885,1904
2094,1909,1900
2026,1884,1845
1726,1770,1680
1669,1779,1678
1729,1830,1773
1777,1862,1830
1877,1870,1891
1923,1867,1903
1843,1815,1755
1826,1849,1866
1934,1868,1903
1916,1812,1749
1894,1835,1722
1798,1845,1792
1795,1879,1899
1818,1837,1899
1841,1845,1866
1825,1830,1766
1808,1793,1650
1814,1847,1835
1855,1865,1836
1936,1861,1857
1933,1868,1893
1812,1842,1740
1822,1842,1734
1872,1840,1808
1885,1866,1968
1873,1856,1920
1861,1851,1824
1792,1829,1808
1774,1836,1911
1830,1829,1867
1861,1834,1751
1895,1840,1686
1847,1834,1763
1865,1873,1935
1799,1841,1868
1947,1847,1811
1962,1829,1740
1840,1837,1845
1807,1846,1904
1836,1851,1758
1922,1902,1747
1901,1886,1870
1812,1845,1854
1793,1836,1881
1839,1833,1778
1894,1833,1808
1891,1861,1905
1872,1882,1895
1801,1813,1792
1829,1824,1777
1872,1854,1808
1969,1855,1863
1965,1878,1931
1773,1847,1873
1687,1855,1799
1747,1857,1789
1840,1848,1859
1977,1857,1840
2001,1863,1808
1948,1871,1886
1837,1841,1850
1786,1819,1779
1840,1847,1829
1882,1835,1926
1861,1871,1959
1840,1866,1757
1919,1885,1735
1881,1871,1879
1812,1872,1883
1803,1869,1904
1782,1840,1840
1804,1840,1808
1892,1847,1862
1917,1899,1896
1870,1880,1866
1897,1851,1862
1973,1862,1802
1970,1879,1854
1837,1877,1832
1903,1875,1849
1830,1851,1871
1792,1856,1840
1874,1851,1840
1927,1829,1773
1779,1843,1833
1819,1856,1856
1839,1849,1893
1807,1853,2011
1879,1891,1824
1903,1872,1710
1806,1843,1727
1859,1833,1873
1931,1881,1968
1802,1872,1878
1827,1934,1834
1867,1917,1849
1971,1883,1909
1955,1842,1907
1823,1825,1749
1680,1783,1759
1773,1831,1782
1924,1854,1799
1904,1886,1855
1840,1873,1871
1892,1853,1888
1933,1870,1913
1841,1883,1920
1898,1905,1845
1977,1939,1899
1968,1869,1818
1866,1825,1744
1742,1797,1713
1711,1835,1835
1821,1847,1881
1970,1879,1903
1968,1863,1909
1842,1827,1835
1879,1858,1855
1869,1882,1787
1851,1889,1784
