2019,3627,1562
1950,3629,1473
1872,3689,1328
1827,3779,1309
1775,3851,1336
1823,3920,1379
1856,4001,1357
1863,4076,1392
2085,4095,1555
1984,4071,1454
1774,3903,1382
1589,3984,1312
1674,4095,1217
1808,4095,1362
1923,4095,1385
1869,4095,1437
1777,4095,1503
1763,4095,1462
1922,4095,1509
1787,4095,1287
1691,4095,1248
1698,4095,1328
1766,4095,1431
1787,4095,1425
1639,4095,1383
1791,4095,1427
1842,4095,1504
1827,4095,1535
1771,3877,1420
1822,3903,1434
1798,3885,1435
1723,3829,1440
1744,3763,1484
1776,3776,1502
1770,3793,1500
1782,3728,1501
1855,3776,1535
1877,3760,1616
1827,3638,1611
1883,3551,1595
1756,3507,1429
1750,3567,1523
1794,3520,1623
1799,3430,1616
1822,3402,1615
1849,3363,1638
1871,3348,1648
1855,3310,1642
1824,3354,1601
1842,3311,1607
1840,3279,1614
1854,3170,1657
1872,3163,1727
1871,3238,1712
1880,3197,1686
1863,3161,1692
1855,3107,1672
1906,2896,1629
1909,3034,1522
1888,3043,1390
1927,2972,1406
1933,2990,1439
1887,3014,1398
1936,2962,1447
1950,2903,1468
1918,2782,1487
2091,2871,1505
1984,2831,1483
1881,2876,1510
1904,2823,1535
1911,2636,1521
1950,2609,1535
2036,2416,1652
2035,2675,1677
1938,2799,1440
1922,2727,1459
2031,2880,1594
2225,2708,1715
2304,2482,1501
1816,2417,1424
1758,2478,1585
1933,2559,1670
2074,2624,1643
2096,2586,1588
2127,2540,1687
1928,2417,1595
1937,2463,1590
2117,2544,1729
2083,2535,1745
1967,2679,1604
1876,2349,1442
2055,2270,1606
2370,2421,1911
2224,2450,1860
2064,2667,1808
1778,2218,1569
1805,2015,1444
1913,2110,1488
2096,2270,1605
2354,2423,1842
2331,2369,1947
1936,2123,1776
1780,2121,1617
1794,2079,1514
1962,2096,1650
2000,2080,1680
2074,2129,1796
2014,2128,1712
2003,2009,1614
2094,2017,1535
1934,1955,1494
1891,1997,1483
2114,2188,1617
2110,2054,1703
1850,1835,1520
1759,1702,1392
2013,1731,1645
2087,1771,1622
2033,1865,1509
1821,1734,1378
1792,1687,1574
1891,1734,1405
1929,1745,1327
1900,1723,1315
1943,1731,1484
1951,1686,1730
1904,1666,1413
1764,1650,1279
1714,1670,1426
1782,1726,1568
1846,1701,1607
1840,1488,1317
1833,1430,1254
1835,1505,1338
1829,1553,1493
1834,1582,1535
1840,1535,1506
1834,1514,1430
1834,1484,1325
1829,1408,1327
1831,1382,1470
1835,1491,1566
1833,1479,1678
1834,1439,1535
1830,1346,1401
1827,1333,848
1839,1344,355
1830,1361,0
1838,1349,0
1833,1360,0
1834,1328,489
1827,1241,1531
1834,1235,1799
1829,1273,1685
1834,1242,1459
1838,1267,1477
1833,1333,1535
1822,1059,1325
1836,1022,1237
1837,1088,1399
1835,1125,1485
1920,1169,1507
2349,1285,1614
2379,1158,1296
1778,935,1168
1430,973,1357
1743,1108,1529
2057,1117,1386
1910,1040,1422
1984,1170,1572
1770,1073,1451
1665,974,1314
1767,980,1365
1904,1071,1435
2352,1232,1584
2092,1040,1442
1574,848,1152
1632,988,1315
1750,1065,1441
1983,1014,1370
1911,976,1479
1861,1062,1517
1793,1083,1358
1698,1001,1317
1712,955,1419
1873,1098,1403
2234,1115,1361
2104,1146,1424
1667,1018,1503
1840,1137,1564
1893,1134,1381
1717,1058,1277
1669,1079,1298
1769,1241,1471
2000,1360,1596
1887,1289,1466
1840,1218,1323
2225,1389,1383
1934,1219,1483
1712,1262,1585
1709,1268,1483
1746,1354,1441
1841,1414,1479
1731,1351,1363
1806,1382,1483
1872,1415,1520
1926,1393,1535
1943,1479,1531
1826,1477,1480
1744,1430,1486
1909,1616,1576
2115,1599,1616
1783,1520,1443
1472,1495,1489
1598,1590,1582
1712,1535,1615
1902,1620,1681
1914,1646,1600
1661,1535,1575
1744,1535,1489
1535,1470,1394
1535,1530,1621
1763,1629,1746
1840,1589,1712
1862,1614,1719
2000,1681,1830
1695,1607,1652
1335,1454,1332
1471,1479,1387
1748,1522,1629
1904,1695,1759
1998,1581,1556
1527,1470,1526
1505,1488,1487
1746,1535,1658
1684,1431,1517
1630,1435,1510
1742,1424,1535
1945,1535,1749
2055,1406,1584
1605,1214,1184
1203,1333,1488
1510,1458,1808
1758,1355,1648
1999,1360,1676
1871,1392,1611
1743,1297,1450
1495,1198,1459
1367,1194,1563
1527,1259,1577
1833,1259,1616
1936,1276,1642
1769,1216,1535
1623,1260,1654
1989,1378,1742
1936,1154,1554
1379,1033,1461
1439,1186,1658
1877,1290,1806
1837,1173,1699
1517,1116,1535
1863,1248,1651
1725,1168,1531
1634,1054,1515
1728,1165,1747
1680,1233,1694
1735,1209,1655
1798,1187,1645
2176,1230,1680
1712,976,1509
1418,1043,1392
1869,1187,1490
1987,1097,1599
1476,1078,1606
1776,1168,1633
1890,1207,1584
1508,1082,1405
1535,1085,1577
1850,1211,1621
2036,1121,1534
1535,1009,1346
1594,1039,1461
1808,1008,1535
1966,1023,1579
1619,1023,1586
1456,1016,1469
1607,1111,1520
1632,1087,1488
1770,1069,1443
2177,1145,1635
1819,1071,1622
1424,958,1413
1645,1012,1559
1861,1139,1789
1674,1139,1654
1597,1018,1423
1831,1008,1296
1722,1061,1470
1719,1134,1641
1776,1077,1446
1602,1051,1332
1609,1085,1411
1743,1188,1392
1885,1200,1415
1797,1152,1441
1632,1089,1339
1663,1085,1324
1659,1120,1321
1725,1166,1352
1808,1186,1314
1942,1266,1383
1730,1137,1391
1628,1095,1385
1670,1136,1300
1710,1198,1288
1803,1200,1366
1845,1274,1482
1785,1249,1475
1642,1207,1338
1636,1085,1263
1716,1170,1344
1799,1232,1470
1830,1268,1425
1835,1247,1451
1710,1189,1393
1671,1207,1390
1729,1233,1401
1885,1216,1377
1871,1163,1365
1665,1228,1490
1655,1291,1505
1701,1235,1445
1739,1203,1431
1787,1254,1476
1813,1306,1518
1763,1235,1472
1739,1206,1453
1785,1264,1489
1808,1297,1527
1776,1282,1500
1748,1232,1463
1807,1296,1520
1984,1349,1495
1851,1246,1490
1669,1251,1558
1738,1319,1597
1818,1451,1597
1817,1392,1567
1808,1293,1565
1842,1446,1605
1866,1440,1621
1808,1358,1575
1803,1344,1571
1881,1427,1653
1904,1488,1674
1856,1446,1617
1826,1393,1607
1868,1455,1655
1882,1510,1669
1854,1471,1635
1851,1441,1645
1903,1511,1702
1920,1567,1712
1873,1517,1655
1849,1479,1649
1909,1565,1717
1951,1612,1775
1911,1565,1709
1888,1514,1680
1936,1575,1729
1974,1640,1759
1931,1590,1722
1915,1535,1705
1970,1633,1776
2011,1695,1833
1973,1641,1805
1962,1604,1796
2003,1681,1840
2047,1680,1872
2018,1662,1860
1989,1729,1818
2033,1801,1850
2068,1838,1892
2035,1783,1857
2013,1755,1859
2084,1833,1941
2119,1895,1959
2089,1847,1883
2061,1826,1886
2109,1901,1953
2149,1963,1993
2112,1946,1957
2176,1947,1966
2238,2062,2017
2133,2128,2025
2101,1914,1956
2115,1834,1915
2155,1973,1987
2165,2058,2046
2143,2015,2033
2128,1984,2015
2177,2037,2055
2197,2102,2071
2151,2067,2030
2131,2031,2017
2171,2081,2067
2198,2140,2082
2165,2086,2053
2139,2046,2027
2170,2110,2066
2192,2165,2101
2158,2129,2064
2137,2132,2043
2181,2122,2082
2192,2144,2112
2158,2105,2084
2133,2081,2069
2187,2145,2129
2208,2192,2130
2171,2143,2099
2135,2140,2066
2169,2164,2096
2196,2211,2119
2156,2160,2092
2128,2115,2083
2180,2186,2135
2215,2257,2160
2171,2191,2107
2140,2113,2093
2182,2167,2145
2208,2250,2162
2172,2192,2118
2139,2139,2109
2175,2195,2155
2219,2260,2187
2188,2209,2154
2153,2164,2137
2192,2222,2181
2234,2276,2203
2186,2224,2151
2144,2171,2128
2187,2243,2176
2239,2265,2229
2192,2245,2176
2137,2192,2114
2181,2237,2182
2230,2299,2227
2186,2245,2187
2147,2191,2150
2195,2243,2204
2224,2301,2225
2181,2253,2178
2149,2189,2156
2189,2241,2204
2221,2309,2237
2169,2255,2186
2135,2219,2167
2178,2238,2211
2214,2282,2230
2176,2278,2196
2151,2271,2195
2170,2240,2205
2189,2218,2203
2155,2186,2170
2123,2159,2167
2176,2221,2227
2214,2304,2267
2153,2273,2205
2114,2210,2176
2164,2251,2225
2203,2307,2245
2163,2258,2204
2135,2247,2206
2162,2278,2224
2177,2256,2227
2145,2211,2205
2135,2197,2197
2174,2261,2237
2193,2319,2250
2145,2271,2214
2118,2223,2192
2151,2259,2224
2183,2304,2250
2131,2235,2205
2109,2231,2181
2139,2315,2218
2160,2317,2229
2128,2219,2195
2108,2189,2190
2135,2257,2224
2172,2306,2249
2139,2247,2215
2107,2224,2191
2128,2286,2207
2139,2317,2215
2106,2266,2189
2091,2227,2166
2118,2288,2197
2143,2367,2227
2115,2357,2192
2087,2316,2173
2115,2378,2213
2138,2469,2225
2098,2432,2179
2076,2397,2160
2105,2459,2189
2129,2509,2215
2096,2509,2177
2054,2446,2154
2084,2469,2192
2127,2541,2222
2085,2523,2206
2055,2481,2160
2083,2581,2149
2107,2614,2209
2063,2624,2135
2010,2559,2122
2045,2617,2193
2090,2689,2149
2046,2672,2131
2011,2599,2159
2045,2651,2151
2079,2730,2147
2032,2692,2130
1993,2655,2119
2033,2721,2112
2064,2781,2194
2017,2740,2135
1984,2683,2075
2027,2739,2131
2065,2806,2175
2023,2754,2126
1977,2691,2109
2010,2733,2115
2043,2789,2148
2000,2733,2101
1973,2670,2097
2015,2706,2133
2039,2763,2159
1995,2715,2113
1963,2646,2067
2000,2689,2153
2038,2732,2160
1991,2672,2069
1966,2605,2074
2005,2637,2128
2035,2702,2149
1987,2640,2128
1953,2551,2094
2000,2590,2119
2042,2640,2150
1999,2559,2110
1955,2484,2105
1998,2524,2127
2030,2559,2123
1982,2510,2085
1942,2431,2093
1987,2454,2089
2035,2499,2154
1980,2415,2064
1950,2349,2112
2009,2384,2143
2033,2448,2106
1981,2365,2099
1943,2258,2075
1995,2295,2109
2037,2365,2131
1999,2313,2124
1952,2224,2041
1995,2257,2099
2019,2306,2161
1971,2241,2122
1949,2171,2091
1994,2208,2107
2027,2246,2167
1987,2190,2105
1967,2115,2071
2004,2176,2128
2027,2187,2128
1985,2114,2099
1954,2055,2038
1989,2097,2096
2035,2149,2160
2006,2095,2137
1972,2028,2096
1999,2062,2127
2029,2096,2103
1985,2032,2093
1953,1971,2058
1988,2011,2134
2016,2059,2118
1978,2011,2043
1952,1951,2057
1979,1951,2089
2006,2000,2135
1851,1966,2085
1216,1888,2030
0,1933,2069
0,1971,2091
549,1935,2043
1038,1884,2041
0,1899,2077
0,1938,2080
0,1893,2021
0,1834,2023
0,1885,2079
0,1925,2073
0,1875,2037
1520,1822,2071
2666,1884,2079
2726,1927,2086
2419,1840,1987
2257,1771,1979
2292,1792,2043
2343,1861,2037
2325,1833,2016
2299,1773,2007
2313,1802,2032
2332,1840,2035
2301,1803,2005
2265,1755,1999
2291,1774,2007
2311,1809,2034
2263,1771,1982
2237,1731,1989
2269,1771,1994
2292,1811,2031
2251,1761,2054
2228,1723,1975
2246,1766,2053
2266,1805,2042
2227,1754,1971
2195,1706,1957
2225,1728,2015
2240,1809,2001
2209,1754,2032
2185,1717,1936
2213,1764,2018
2227,1760,1996
2191,1712,1986
2174,1669,1877
2203,1718,2037
2236,1774,2028
2207,1744,2029
2175,1697,1959
2192,1706,1983
2218,1746,2009
2180,1711,2016
2160,1664,1979
2183,1691,2009
2209,1758,2023
2179,1719,1991
2155,1664,1974
2181,1707,2070
2224,1748,2014
2191,1699,1972
2153,1648,1969
2175,1695,2007
2206,1730,2022
2180,1694,2000
2160,1645,1994
2194,1698,2037
2219,1731,2042
2172,1669,1996
2122,1616,1942
2183,1675,2083
2224,1738,2071
2171,1693,2002
2123,1616,1988
2168,1651,2000
2215,1719,2035
2175,1680,1995
2128,1629,1966
2173,1675,2043
2224,1739,2077
2176,1698,2034
2122,1630,1971
2175,1677,2031
2224,1746,2073
2165,1686,2006
2117,1633,1977
2188,1698,2055
2240,1764,2081
2176,1710,2014
2118,1644,1968
2175,1699,2019
2230,1777,2078
2174,1738,2053
2115,1673,2000
2164,1729,2037
2224,1803,2086
2180,1745,2032
2125,1671,1989
2163,1714,2032
2207,1811,2058
2160,1764,2009
2097,1699,1970
2154,1755,2030
2211,1831,2074
2146,1771,2010
2091,1708,1970
2149,1776,2032
2213,1855,2091
2150,1804,2026
2084,1745,1979
2133,1782,2019
2192,1855,2065
2128,1808,1996
2066,1744,1965
2159,1810,2026
2188,1909,2073
2130,1847,2011
2034,1751,1967
2097,1808,1999
2153,1900,2057
2096,1847,1991
2044,1761,1959
2132,1826,2010
2193,1923,2046
2125,1851,1991
2095,1783,1952
2117,1845,2002
2151,1903,2037
2064,1845,1983
2005,1771,1951
2091,1815,1995
2179,1872,2031
2111,1818,1992
2018,1811,1954
2096,1854,1999
2123,1911,2029
2096,1871,1987
2043,1794,1954
2093,1855,1995
2123,1894,2002
2066,1843,1964
2032,1797,1930
2063,1869,1966
2123,1915,2016
2127,1815,1968
2043,1807,1936
2080,1859,1978
2115,1923,2013
2119,1907,1983
2026,1857,1937
2046,1829,1941
2068,1900,1962
2047,1883,1922
1994,1832,1899
2017,1863,1933
2070,1923,1962
2044,1894,1938
2006,1840,1919
2026,1877,1954
2055,1968,1974
2060,1905,1933
2022,1818,1910
2039,1867,1930
2031,1923,1937
2014,1889,1910
1962,1842,1904
2014,1890,1938
2066,1936,1946
1995,1920,1906
1975,1877,1896
1975,1873,1922
1999,1936,1938
1987,1918,1901
1951,1867,1890
1984,1904,1921
2023,2010,1933
1983,1926,1892
1923,1849,1877
1979,1892,1904
2034,1927,1919
1963,1904,1872
1898,1877,1846
1959,1917,1911
2014,1983,1942
2002,1933,1894
1906,1857,1856
1949,1903,1882
1957,1993,1906
1936,1954,1869
1905,1934,1856
1925,1953,1878
1936,1930,1897
1915,1956,1871
1904,1847,1835
1946,1872,1868
1912,1935,1886
1885,1936,1836
1825,1888,1809
1889,1959,1872
1969,2075,1911
1893,2028,1869
1885,1903,1838
1926,1915,1867
1942,1983,1881
1895,1971,1840
1898,1914,1811
1841,1968,1863
1947,2010,1894
1904,1947,1843
1825,1919,1829
1883,1961,1913
1873,2046,1922
1884,2076,1821
1716,1872,1750
1861,1874,1865
1942,1995,1884
1872,1932,1795
1818,1949,1754
1843,1983,1804
1905,2054,1845
1874,2027,1824
1822,2003,1793
1855,2108,1839
1915,2190,1869
1858,2176,1822
1865,2133,1776
1849,2187,1794
1897,2219,1856
1791,2165,1813
1847,2189,1776
1867,2170,1808
1893,2258,1855
1855,2271,1776
1770,2206,1767
1841,2269,1821
1886,2315,1807
1782,2219,1758
1798,2177,1755
1835,2311,1813
1857,2465,1840
1787,2382,1758
1843,2317,1758
1984,2415,1887
1934,2448,1872
1776,2385,1667
1726,2400,1699
1810,2588,1813
1903,2837,1872
1834,2748,1759
1642,2371,1716
1744,2414,1770
1837,2697,1793
1942,2813,1803
1777,2655,1697
1623,2709,1681
1658,2903,1713
1694,2821,1730
1721,2769,1749
1690,2788,1727
1722,2911,1699
1765,2937,1724
1723,2896,1680
1807,2885,1697
1735,2974,1763
1654,2992,1764
1626,2882,1744
1659,2868,1719
1721,2907,1755
1716,3024,1712
1586,3027,1645
1790,3042,1754
1755,3051,1758
1619,2989,1584
1749,3051,1606
1775,3088,1707
1936,3157,1749
1785,3056,1713
1406,2881,1682
1531,3011,1648
1660,3182,1669
1712,3138,1664
1710,3057,1761
1579,2960,1669
1535,3025,1657
1584,3088,1535
1555,3090,1589
1617,3199,1643
1451,3173,1535
1561,3083,1520
1584,2963,1585
1628,2992,1727
1865,3231,1778
1674,3063,1583
1424,2887,1508
1535,2912,1674
1616,2999,1675
1473,2973,1605
1520,2896,1515
1837,2969,1809
1882,2961,1904
1832,2942,1773
1821,2752,1462
2155,3043,1904
1727,2763,1582
1958,3021,1860
1563,2618,1703
1268,2550,1597
1653,2727,1523
2032,2832,1455
1664,2727,1827
1424,2735,1904
1799,2917,1971
1523,2544,1474
1576,2559,1627
1689,2704,1821
2105,2929,1930
1793,2675,1838
1520,2481,1652
1473,2421,1568
1659,2559,1706
1808,2603,1743
1710,2537,1761
2057,2713,2093
1717,2559,1734
1301,2411,1601
1419,2384,1655
1989,2521,1911
1920,2413,1659
1744,2461,1781
1859,2302,1745
1509,2151,1648
1589,2315,1791
1642,2282,1808
1564,2063,1638
1675,2244,1812
1533,2114,1696
1677,2032,1631
2138,2046,1575
1899,1904,1777
1422,1883,1687
1600,1917,1933
1943,1990,1859
1659,1726,1615
1589,1769,1900
1860,1845,1863
1847,1707,1631
1344,1633,1648
1510,1649,1747
1826,1655,1719
2256,1650,1990
1738,1365,1677
1565,1425,1507
1485,1365,1733
1334,1286,1777
1609,1344,1567
1826,1426,1755
1973,1409,1905
1417,1195,1715
1417,1159,1757
1826,1235,1783
2593,1346,2110
1221,834,1514
1008,944,1415
1909,1088,1725
1798,928,1648
1442,879,1581
1362,882,1694
1729,962,1744
1968,1014,1661
1701,864,1807
1359,786,1854
1457,813,1686
1479,790,1600
1434,640,1450
1690,767,1568
1793,810,1801
1787,769,1715
1419,539,1619
1296,644,1744
1520,747,1659
1841,725,1670
1475,535,1681
1534,636,1625
1965,862,1843
1884,668,1712
1395,475,1443
1330,443,1453
1570,670,1783
1775,681,1757
1610,522,1623
1733,603,1791
1749,511,1569
1411,447,1737
1177,550,1535
1570,598,1679
1827,585,1731
1629,592,1700
1633,480,1562
1728,494,1594
1652,641,1792
1427,567,1683
1895,531,1497
1842,527,1639
1458,486,1931
1489,540,1759
1936,661,1600
1659,459,1415
1354,443,1535
1408,511,1818
1535,495,1721
1692,487,1563
1760,618,1818
1584,547,1603
1506,487,1584
1811,624,1741
1633,550,1661
1703,607,1610
1614,577,1708
1535,530,1627
1510,550,1535
1510,600,1600
1883,658,1802
1813,481,1612
1435,589,1534
1567,683,1775
1694,615,1698
1713,592,1555
1713,646,1772
1567,656,1771
1871,687,1741
1695,560,1520
1535,659,1571
1629,649,1635
1661,582,1697
1433,560,1693
1726,693,1630
1845,698,1776
1562,558,1741
1497,605,1497
1681,716,1507
1747,709,1745
1963,637,1816
1712,560,1639
1397,633,1584
1535,695,1616
1869,716,1767
1599,606,1747
1531,618,1535
2071,837,1582
1959,640,1584
1530,608,1834
1333,609,1561
1583,630,1588
1755,698,1847
1627,768,1748
1861,927,1664
2032,805,1445
1990,640,1597
1301,611,1722
1377,810,1752
1953,890,1743
1846,709,1615
1522,752,1667
1892,902,1740
1930,766,1585
1213,673,1626
1271,803,1674
1802,925,1721
1997,976,1787
1931,889,1715
1584,905,1777
1509,898,1577
1907,944,1494
1776,880,1558
1535,880,1689
1660,1015,1879
1766,1040,1835
1904,1072,1781
1887,1002,1467
1664,1043,1711
1571,951,1692
1808,1088,1776
2031,1089,1689
1741,1067,1712
1345,1083,1685
1630,1058,1664
2093,1221,1783
1920,1168,1681
1447,1125,1683
1647,1144,1758
2326,1264,1781
1707,1142,1627
1439,1173,1649
1511,1221,1701
1873,1287,1811
2223,1406,1965
1805,1258,1663
1515,1168,1515
1535,1239,1703
1990,1449,1707
2320,1471,1761
1478,1213,1822
1658,1342,1721
2429,1486,1673
1573,1306,1699
1127,1278,1776
1535,1347,1776
2080,1515,1893
1985,1493,1680
1726,1401,1557
1712,1509,1792
1975,1559,1796
1982,1462,1666
1706,1438,1847
1736,1531,1820
1821,1561,1738
1674,1578,1641
1694,1503,1664
1643,1520,1776
2175,1717,1858
1945,1506,1909
1572,1466,1774
1771,1664,1785
1920,1717,1691
1866,1671,1773
1824,1628,1787
1728,1601,1646
2001,1668,1788
1776,1674,1920
1591,1730,1840
2023,1887,1875
1822,1664,1687
1607,1649,1659
1731,1691,1744
1919,1744,1787
2023,1821,1893
1986,1723,1766
1765,1673,1711
1695,1834,1953
1838,1899,2023
1922,1823,1872
1998,1749,1648
2085,1789,1728
1930,1799,1695
1585,1865,1923
1691,1826,1991
1814,1717,1776
2085,1926,1949
1987,1871,1535
1763,1777,1685
1731,1822,1918
1873,1962,2025
1963,1842,1728
1904,1872,1842
2286,1902,1915
2006,1909,1777
1679,1918,1738
1918,1798,1798
2153,1859,1839
1846,1984,1889
1564,1998,1910
2071,1978,1872
2359,1932,1828
1759,1972,1893
1728,1947,1904
2187,1943,1637
2096,1922,1744
1942,2079,2176
1511,1946,1977
1632,1926,1919
1803,1858,1843
1935,1987,1651
2019,2032,1786
1804,1897,1760
2099,2032,1890
2237,2038,1797
1776,1957,1916
1616,1903,1875
1765,1936,1859
2212,2086,1901
2176,2002,1799
1999,2027,1823
1873,2105,1933
1650,2029,1924
1735,1988,1866
1904,1909,1760
2167,1961,1733
2198,2123,2006
2065,2064,1999
1535,1855,1657
1681,2160,1814
2038,2091,1759
1915,1940,1804
1806,1921,1857
1936,2009,1872
2395,2207,1898
2081,2015,1834
1520,1873,1808
1903,2096,2030
1845,2064,1825
1998,2016,1732
2391,1983,1895
1906,1997,1819
1792,2079,1919
1870,2006,1769
1737,2001,1882
1811,2092,1898
2105,2075,1805
2091,2027,1813
2029,2096,1990
2128,2021,1870
1744,1943,1621
1751,1966,1863
2093,2066,1865
2097,2102,2039
1968,2070,1955
1731,2032,1775
1792,1943,1739
2163,1994,1781
2037,2064,1989
1696,2026,1793
2176,2111,1883
2448,2061,1872
2021,2096,1979
1693,1984,1919
1698,1967,1891
1936,2063,1825
2138,2102,1730
1795,2064,1956
1934,1999,1744
2018,2031,1897
2123,2043,1966
1744,1999,1876
2032,2016,1814
2723,2023,1692
1991,2145,1979
1519,2032,2032
1464,1955,1961
1959,2039,1943
2035,2027,1858
2058,1972,1712
2192,1897,1571
1746,2057,2021
1711,2161,2190
1730,1967,1820
2081,1920,1535
1921,2024,1903
1798,2068,1988
2161,2055,1953
1966,1936,1719
1632,1934,1743
1861,2138,2064
2203,2055,1904
1678,1798,1607
1694,1884,1663
2183,2110,2047
2096,2006,2121
1649,1924,1865
1674,1995,1808
2411,2105,1827
1868,1959,1789
1566,1841,1759
1872,2013,1963
2130,2076,1984
2066,1973,1981
1703,1884,1767
1870,1922,1787
2082,2045,1790
1735,2044,1934
1686,1895,1775
1939,1958,1766
2118,2014,1945
1995,2095,2192
1995,1951,1931
2079,1916,1670
1593,1972,1777
1835,1979,1773
1860,2021,2039
2014,1892,1809
1737,1940,1947
1936,2038,1964
2336,2039,1839
1885,1913,1875
1526,1927,1889
1904,2057,1936
2239,1930,1839
1487,1885,1923
1555,2031,1981
2039,2043,1925
2001,1857,1776
1936,1933,1878
1918,2059,1999
1565,1935,1888
1709,1914,1760
1776,1941,1840
1758,1955,1863
1951,1961,1921
2039,1906,1727
2015,1981,1949
1958,2039,2046
1886,1968,1953
1587,1814,1727
1535,1894,1890
1869,1952,1950
1713,1943,1935
1731,1956,1844
2173,1983,1859
2145,1958,1903
1562,1887,1762
1491,1894,1847
2395,2078,1951
1927,1946,1890
1358,1851,1890
1586,1890,1835
1872,1929,1951
2032,2009,1938
1957,2015,2065
1808,1798,1693
1746,1855,1655
1729,2014,1887
1831,2001,2096
1808,1814,1812
1613,1873,1888
1744,1988,1990
2065,1999,1790
1769,1870,1781
1725,1861,1918
1849,1951,1903
1968,1995,1883
1554,1865,1823
2100,2039,2102
1875,1947,1872
1431,1887,1749
1669,1834,1674
1803,1906,1845
1951,2018,1957
1897,1970,2009
1680,1875,1865
1662,1879,1863
1713,1888,1862
1792,1872,1840
2043,1919,1919
1763,1922,1890
1814,2000,1903
1664,1920,1772
1609,1905,1931
1733,1904,1977
1795,1971,1786
1737,1934,1746
1822,1856,1804
1796,1856,1770
1824,1972,2075
1889,1983,1999
1535,1802,1722
1470,1829,1803
1660,1941,1871
1821,1914,1807
1843,1875,1792
1861,1875,1743
2020,2007,1998
1835,1959,2096
1600,1814,1755
1586,1734,1680
1653,1926,1892
2000,1947,1917
1763,1849,1809
1582,1874,1803
1907,1996,1987
2192,1857,1794
1776,1776,1756
1389,1874,1979
1520,1936,1895
1863,1887,1798
1888,1830,1755
2069,1882,1841
1839,1841,1799
1603,1887,1805
1491,1794,1930
1778,1842,1857
1910,1919,1872
1814,1921,1820
1792,1820,1819
1707,1790,1777
1904,1915,1936
1963,1904,1994
1514,1802,1835
1837,1831,1735
1977,1936,1853
1681,1857,1875
1555,1744,1722
1920,1790,1744
1682,1893,1894
1586,1903,1913
1581,1808,1867
1893,1867,1967
2038,1923,1851
2027,1838,1766
1616,1775,1774
1557,1845,1892
1933,1955,1917
1936,1815,1690
1573,1712,1728
1600,1804,1959
1985,1889,1981
2082,1871,1729
1790,1808,1731
1707,1820,1895
1824,1903,1994
1807,1890,1903
1811,1809,1786
1955,1839,1826
2192,1957,1961
1967,1838,1740
1521,1712,1824
1523,1801,1930
1851,1915,1920
1968,1902,1907
2114,1806,1811
2035,1751,1759
1875,1776,1763
1475,1855,1936
1535,1842,1951
1882,1775,1829
2130,1931,1859
1883,1850,1799
1915,1734,1776
1894,1803,1974
1856,1840,1886
1743,1830,1889
1814,1789,1910
2100,1808,1851
1765,1817,1810
1600,1840,1840
1775,1755,1776
2096,1810,1937
2214,1989,2115
1837,1818,1837
1526,1680,1735
1617,1719,1791
2047,1911,2012
1987,1865,1843
1752,1738,1744
1957,1758,1900
2118,1834,1903
2005,1874,1846
1569,1742,1793
1582,1715,1823
1876,1863,1890
1999,1851,1846
1830,1747,1964
1796,1759,1968
1903,1835,1949
1888,1809,1773
1825,1733,1803
1901,1714,1929
1953,1818,1872
2002,1827,1776
2017,1767,1918
1969,1771,1847
1936,1761,1831
1970,1744,1759
1755,1743,1934
1886,1763,2059
1871,1751,1889
1918,1686,1749
2318,1707,1713
1965,1699,1885
1616,1733,1858
1612,1727,1845
1982,1690,1971
2103,1685,1904
2083,1738,1839
1959,1681,1747
1659,1615,1763
1725,1697,1929
2109,1798,1954
1931,1738,1885
1807,1646,1724
2161,1675,1946
2109,1719,1898
1843,1705,1874
1728,1635,1777
1840,1712,1938
2000,1821,1931
1963,1693,1802
1831,1595,1778
1884,1653,1877
2233,1808,1937
1917,1714,1886
1709,1644,1861
1799,1678,1834
2229,1790,1991
2109,1771,1885
1699,1680,1815
1649,1623,1840
1867,1712,1758
1955,1739,1823
1919,1649,1837
1981,1664,1984
1942,1781,1936
1858,1772,1766
1855,1714,1830
1965,1735,1930
2194,1855,2061
2118,1744,1902
1794,1603,1582
1845,1679,1735
2018,1743,1815
2096,1775,1925
2075,1787,2133
1905,1687,1846
1865,1734,1827
2128,1825,1958
1916,1626,1665
1660,1663,1784
1739,1811,2015
1872,1817,1968
1963,1737,1776
1931,1674,1793
2330,1840,1957
2107,1710,1786
1616,1645,1793
1673,1713,1798
1968,1833,1958
2112,1815,1889
1987,1750,1840
1924,1714,1911
2185,1803,2011
1968,1801,1904
1727,1728,1716
1843,1714,1887
2131,1834,1967
1952,1811,1829
1695,1719,1797
1907,1779,1905
2230,1843,1945
2288,1858,1892
1792,1696,1755
1714,1712,1866
1895,1808,1847
1936,1824,1845
1871,1792,1995
1917,1753,1854
1949,1814,1833
1940,1845,1860
1901,1807,1940
1962,1786,1883
2227,1847,1823
2183,1789,1831
1712,1677,1918
1658,1723,1808
1803,1881,1858
1946,1857,1791
2182,1824,1856
2028,1755,1808
1788,1858,1983
1838,1867,1936
1971,1795,1893
2186,1780,1808
1967,1830,1847
1637,1775,1750
1627,1723,1759
2022,1810,1922
2372,1940,1984
2191,1875,1897
1799,1730,1791
1627,1712,1755
2133,1910,1863
2065,1805,1838
1706,1697,1846
1727,1802,1923
2047,1925,1997
2000,1878,1891
1978,1781,1735
2074,1776,1725
1825,1794,1918
1807,1819,1982
2324,1895,1863
1904,1775,1763
1711,1823,1823
1968,1924,1968
1977,1793,1881
1850,1777,1819
2010,1925,1877
1998,1899,1871
1817,1738,1808
1895,1835,1823
2117,1902,1855
2149,1887,1924
1786,1723,1798
1834,1826,1851
2022,1955,1984
2171,1906,1934
1977,1817,1787
1822,1808,1894
1950,1858,1909
2039,1783,1795
1829,1717,1798
1791,1775,1863
1882,1849,1840
1936,1826,1787
1904,1786,1781
1984,1823,1951
2082,1968,2034
2161,1875,1853
1849,1747,1786
