1861,2158,1927
1939,2227,2097
1951,2317,2038
1919,2324,2021
2000,2415,2010
1889,2359,1951
1789,2369,1842
1793,2447,1899
1842,2517,1909
1869,2559,1851
1893,2626,2010
1887,2695,2061
1893,2708,1983
1741,2592,1758
1910,2741,1889
1830,2663,1822
1667,2613,1793
1744,2666,1813
1918,2789,1933
1856,2719,1875
1936,2779,1913
1838,2738,1764
1706,2625,1722
1738,2627,1726
1712,2714,1770
1910,2769,1806
2045,2749,1792
1807,2640,1756
1717,2617,1716
1881,2624,1770
1629,2517,1674
1520,2559,1686
1702,2640,1799
1680,2559,1680
1674,2559,1557
1774,2639,1712
1808,2657,1745
1749,2613,1664
1681,2546,1616
1718,2585,1664
1713,2584,1707
1616,2522,1600
1760,2548,1604
1818,2551,1656
1695,2464,1590
1647,2494,1535
1647,2411,1573
1648,2397,1535
1705,2409,1575
1729,2466,1570
1705,2371,1535
1664,2354,1589
1706,2293,1616
1716,2309,1517
1699,2236,1567
1775,2336,1631
1887,2325,1611
1694,2256,1511
1578,2173,1394
1651,2187,1491
1805,2209,1530
2103,2269,1520
1629,2034,1535
1306,2061,1522
1535,2139,1471
1840,2198,1694
1803,2068,1526
1663,2073,1505
1648,1998,1535
1844,2111,1519
1729,2008,1709
1453,1936,1653
1641,2039,1465
1774,2029,1507
1589,1974,1553
1518,1935,1571
1687,1967,1566
1869,1970,1535
1655,1895,1582
1769,1922,1591
1759,1899,1596
1506,1808,1507
1517,1878,1522
1699,1931,1603
1663,1841,1637
1717,1939,1650
1950,1893,1696
1573,1682,1411
1535,1781,1588
1465,1840,1534
1473,1754,1449
1601,1749,1535
1667,1780,1635
1858,1934,1872
1744,1815,1634
1510,1723,1447
1498,1708,1520
1631,1745,1661
1610,1741,1535
1685,1727,1559
1699,1743,1567
1682,1766,1637
1621,1681,1562
1649,1727,1566
1715,1680,1634
1613,1648,1566
1626,1626,1600
1684,1691,1714
1586,1701,1655
1616,1670,1701
1664,1665,1604
1735,1671,1623
1807,1743,1637
1878,1709,1511
1567,1602,1612
1291,1674,1650
1398,1627,1607
1559,1625,1616
1651,1580,1655
1735,1596,1682
1744,1643,1765
1780,1642,1711
1856,1664,1712
1520,1578,1679
1492,1555,1775
1721,1650,1798
1866,1601,1616
1937,1641,1691
1389,1470,1659
1509,1669,1723
1781,1645,1681
1655,1600,1732
1829,1637,1872
1597,1513,1764
1526,1601,1717
1773,1671,1835
1491,1468,1590
1426,1509,1652
1563,1523,1808
1823,1645,1903
1797,1637,1849
1631,1585,1794
1665,1600,1765
1581,1591,1835
1491,1520,1811
1692,1628,1755
2171,1667,1873
1609,1471,1681
1582,1614,1936
1667,1595,1744
1535,1567,1727
1555,1583,1903
1602,1526,1677
1757,1657,1793
1953,1680,2007
1926,1586,1920
1437,1369,1584
1312,1535,1633
1361,1535,1889
1828,1744,1949
1895,1635,1850
1675,1571,1867
1659,1648,1807
1776,1715,1985
1721,1647,1952
1554,1574,1668
1512,1573,1575
1879,1627,1833
1772,1691,2204
1406,1617,1934
1600,1634,1630
1958,1753,1813
2019,1675,1776
1754,1559,1729
1383,1552,2166
1335,1673,2235
1565,1719,1973
2000,1722,1780
1942,1665,1965
1664,1713,2032
1682,1815,2221
1488,1739,2112
1758,1683,1815
2100,1693,1744
2201,1705,1906
1651,1744,2064
1291,1872,2299
1423,1766,1956
1475,1748,2184
1415,1742,2142
1603,1840,2092
1751,1771,1983
1641,1765,1933
1634,1757,1925
1722,1883,2186
1654,1846,2199
1530,1880,2159
1649,1865,2159
1719,1872,2103
1766,1855,2123
1750,1817,2082
1968,1873,2097
1917,1850,2075
1428,1719,2033
1357,1807,2023
1483,1853,2065
1594,1854,2073
1717,1907,2193
1797,1915,2153
1741,1872,2127
1681,1797,1923
1715,1856,2085
1623,1872,2151
1593,1877,2164
1751,1938,2214
1941,1904,2115
1814,1808,1965
1597,1829,1987
1504,1835,2057
1617,1853,2075
1831,1918,2145
1799,1883,2103
1679,1818,1950
1789,1862,2059
1678,1854,2096
1605,1840,1978
1741,1871,1954
1962,1892,2147
1774,1885,2123
1535,1791,1957
1664,1825,1969
1869,1863,2019
1698,1840,2068
1582,1842,2023
1667,1861,1947
2090,1963,1998
2224,1872,2071
1659,1762,1964
1422,1806,2054
1424,1815,1993
1606,1855,1984
1810,1839,1963
2036,1863,1883
1932,1856,1961
1584,1811,2054
1621,1922,2082
1939,1965,2083
1889,1811,1897
1668,1811,1936
1600,1797,1920
1680,1743,1879
1747,1808,1965
1853,1872,1982
1860,1828,1964
2121,1902,1917
1757,1790,1892
1525,1805,1968
1565,1802,1986
1876,1863,2028
2029,1798,1950
1763,1728,1869
1625,1807,1915
1985,1847,1983
1850,1836,1923
1687,1856,1899
1607,1728,1821
1678,1735,1882
1814,1801,2031
1833,1845,2014
1873,1776,1892
1782,1757,1815
1775,1798,1967
1739,1776,1920
1742,1761,1874
1771,1749,1872
1889,1776,1930
2219,1882,1972
1985,1808,1878
1535,1667,1890
1485,1711,1853
1746,1787,1904
1923,1807,1866
1765,1729,1879
1735,1723,1868
1901,1807,1879
1904,1788,1840
1727,1740,1863
1779,1745,1903
1861,1761,1884
1902,1794,1831
1941,1796,1943
1815,1760,1933
1802,1789,1924
1773,1715,1776
1729,1680,1738
1758,1714,1770
1861,1792,1909
1968,1819,1934
2078,1759,1790
1767,1710,1812
1609,1733,1812
1749,1758,1863
1966,1794,1901
1814,1754,1899
1831,1779,1820
1834,1719,1712
1694,1707,1775
1730,1745,1854
1835,1783,1849
1963,1808,1833
1987,1748,1744
1792,1712,1787
1712,1751,1906
1893,1769,1840
2047,1809,1805
1821,1680,1706
1744,1707,1808
1713,1757,1866
1743,1791,1818
1915,1808,1839
1934,1755,1809
1825,1733,1757
1796,1740,1712
1806,1719,1723
1776,1751,1814
1785,1758,1808
1978,1824,1860
2129,1749,1727
2060,1711,1801
1481,1691,1785
1474,1717,1729
1757,1718,1762
2127,1795,1769
2139,1806,1744
1691,1714,1762
1578,1719,1808
1747,1781,1793
1919,1799,1773
2110,1818,1836
1874,1693,1665
1676,1665,1662
1878,1791,1838
1895,1804,1852
1872,1767,1799
1985,1757,1666
1825,1761,1693
1713,1778,1859
1771,1745,1845
1866,1779,1743
2055,1839,1715
1837,1705,1664
1658,1719,1745
1883,1763,1727
2288,1883,1851
1855,1757,1829
1526,1681,1697
1701,1706,1631
1886,1830,1793
1982,1809,1776
1805,1746,1728
1711,1763,1780
1763,1778,1793
1903,1776,1730
2064,1779,1634
1952,1826,1829
1738,1785,1867
1817,1799,1782
1970,1835,1728
2083,1904,1812
1869,1774,1782
1792,1759,1740
1769,1779,1757
1903,1841,1744
1986,1803,1730
1963,1783,1735
1799,1791,1731
1746,1797,1758
1881,1842,1825
2032,1809,1749
1847,1771,1753
1833,1840,1856
1957,1904,1820
1867,1799,1741
1776,1778,1740
1782,1808,1734
1904,1807,1728
1991,1845,1767
1946,1837,1794
1898,1776,1770
1776,1808,1754
1841,1836,1712
1899,1822,1775
2176,1823,1731
2037,1823,1797
1678,1811,1870
1678,1814,1773
1823,1823,1755
1911,1818,1770
2154,1878,1793
1955,1789,1738
1808,1775,1725
1751,1808,1798
1851,1852,1805
1955,1810,1735
1975,1799,1698
2014,1803,1725
1881,1783,1739
1886,1838,1809
2064,1911,1872
1751,1791,1858
1590,1757,1701
1728,1788,1696
1926,1829,1755
2025,1870,1842
2069,1873,1817
2059,1811,1772
1803,1804,1787
1729,1802,1778
1789,1811,1819
1949,1841,1840
1963,1814,1723
1955,1851,1814
2103,1871,1849
1959,1830,1779
1755,1829,1835
1693,1785,1749
1872,1835,1708
1975,1837,1744
1804,1782,1807
1814,1825,1791
1819,1830,1763
1859,1817,1761
1893,1840,1883
2116,1919,1872
2135,1871,1884
1914,1737,1703
1763,1797,1718
1661,1824,1751
1722,1799,1835
1803,1807,1825
2015,1869,1779
2071,1858,1854
1776,1789,1771
1779,1808,1809
1871,1826,1755
1967,1872,1771
2083,1892,1818
1920,1781,1833
1671,1782,1786
1729,1823,1773
1852,1827,1776
2061,1861,1840
2099,1866,1744
1776,1810,1793
1665,1785,1946
1872,1893,1927
2032,1880,1840
1853,1814,1776
1811,1813,1759
1865,1825,1771
1857,1822,1794
1778,1825,1809
1887,1821,1815
1951,1854,1849
1934,1858,1790
1907,1849,1771
1768,1818,1883
1809,1854,1920
1857,1869,1854
1949,1865,1717
2057,1854,1808
1914,1855,1819
1885,1825,1723
1778,1791,1787
1737,1837,1867
1766,1829,1819
1839,1843,1830
1989,1871,1856
1991,1879,1840
1840,1863,1860
1722,1835,1777
1819,1845,1776
1983,1874,1829
1913,1851,1809
1813,1847,1822
1825,1833,1777
2042,1851,1776
1900,1840,1858
1713,1827,1807
1813,1835,1771
2162,1903,1926
1799,1831,1869
1605,1823,1807
1857,1861,1867
2003,1845,1821
1840,1840,1889
1693,1847,1827
1732,1840,1755
1904,1847,1795
1952,1855,1818
1870,1849,1817
1905,1841,1834
1899,1851,1797
1793,1836,1803
1927,1871,1841
1918,1854,1897
1765,1792,1781
1753,1836,1824
1778,1891,1859
1777,1856,1842
1933,1868,1808
2124,1904,1819
1899,1827,1801
1652,1795,1841
1646,1809,1817
1810,1843,1776
1957,1904,1861
2039,1920,1857
1937,1840,1826
1830,1839,1840
1773,1827,1820
1855,1863,1779
1840,1818,1745
1805,1843,1840
1840,1859,1884
1930,1899,1899
1870,1835,1795
1733,1802,1756
1735,1821,1824
1873,1870,1837
1975,1898,1853
1891,1866,1830
1819,1872,1847
1789,1838,1809
1941,1845,1865
1917,1871,1803
1776,1859,1779
1745,1823,1799
1789,1845,1879
2119,1935,1898
2022,1859,1787
1675,1824,1836
1603,1808,1837
1816,1850,1840
2078,1913,1872
2032,1883,1852
1691,1782,1739
1659,1794,1761
1839,1872,1907
1870,1859,1919
1809,1837,1824
1909,1846,1808
1923,1883,1904
2095,1913,1833
1801,1797,1694
1598,1801,1814
1971,1920,1974
1934,1893,1907
1684,1792,1761
1634,1789,1756
1865,1826,1833
1984,1871,1861
1939,1859,1833
1842,1872,1866
1791,1872,1862
1806,1862,1834
1807,1803,1787
1867,1825,1838
1889,1905,1891
1913,1890,1838
1904,1841,1801
1851,1839,1826
1895,1871,1876
1781,1840,1819
1824,1806,1776
1823,1841,1857
1827,1872,1905
1916,1872,1894
2072,1850,1879
2000,1892,1893
1815,1865,1894
1715,1806,1807
1746,1770,1776
1911,1818,1839
1962,1872,1772
1946,1890,1840
1765,1857,1955
1794,1811,1902
1899,1872,1871
1891,1859,1847
1871,1827,1810
1840,1851,1840
1822,1915,1927
1885,1903,1930
1997,1865,1839
1934,1869,1809
1862,1817,1799
1791,1823,1806
1792,1823,1799
1827,1856,1811
1899,1871,1858
1953,1872,1872
2109,1857,1813
1887,1852,1867
1713,1872,1894
1778,1862,1904
1895,1808,1790
1951,1856,1812
1918,1866,1856
1781,1843,1871
1793,1845,1819
1936,1825,1799
1935,1871,1857
1835,1873,1843
1978,1854,1840
1872,1840,1845
1936,1931,1923
1859,1856,1782
1811,1835,1836
1847,1851,1887
1830,1845,1856
1809,1851,1824
2006,1888,1827
1912,1853,1793
1891,1840,1867
1984,1850,1879
1933,1819,1790
1648,1793,1819
1698,1856,1866
1946,1911,1846
1958,1855,1790
1776,1803,1858
1725,1834,1874
1906,1845,1887
1934,1840,1808
1954,1866,1847
1920,1879,1883
1815,1860,1827
1777,1833,1805
1817,1853,1803
1867,1872,1828
1765,1879,1872
1871,1888,1841
2119,1918,1854
2032,1904,1813
1685,1823,1805
1712,1793,1798
1940,1837,1821
1939,1856,1786
1922,1910,1866
1916,1879,1870
1651,1805,1842
1662,1830,1825
1870,1878,1837
2096,1877,1770
1971,1840,1843
1728,1879,1917
1922,1872,1873
1973,1804,1712
1742,1822,1821
1683,1863,1872
1895,1877,1903
1995,1883,1835
1808,1839,1779
1808,1897,1927
2067,1859,1829
2033,1837,1742
1983,1840,1797
1823,1856,1901
1589,1810,1858
1707,1824,1847
1903,1856,1841
1783,1859,1887
1844,1877,1846
1883,1835,1777
1823,1811,1809
1759,1859,1909
1839,1853,1879
1846,1840,1828
1934,1873,1866
1969,1909,1913
1891,1865,1835
1747,1785,1765
1778,1794,1769
1873,1872,1922
1888,1888,1957
1822,1850,1849
1854,1865,1826
1878,1872,1893
1891,1863,1870
1925,1855,1811
1915,1809,1763
1909,1863,1885
1839,1859,1878
1805,1812,1837
1850,1831,1805
1926,1887,1888
2176,1936,1920
1858,1837,1855
1702,1764,1781
1774,1813,1805
1872,1891,1874
1981,1877,1840
1850,1830,1815
1865,1859,1872
1891,1825,1833
1929,1795,1783
1884,1834,1808
1941,1898,1852
1827,1902,1890
1808,1819,1865
1646,1787,1808
1791,1827,1744
2081,1891,1813
1980,1832,1819
1778,1792,1831
1781,1829,1865
1887,1838,1818
1887,1823,1738
1904,1867,1918
1915,1881,1891
1903,1858,1803
1774,1819,1847
1637,1791,1807
1744,1853,1874
1877,1867,1865
1962,1826,1744
1998,1863,1825
1878,1850,1799
1821,1837,1813
1717,1827,1851
1817,1856,1910
1839,1858,1872
1957,1875,1851
1952,1862,1817
1851,1833,1817
1832,1872,1903
1889,1867,1866
1813,1776,1751
1837,1833,1803
1825,1840,1899
1919,1904,1913
2144,1871,1771
1813,1783,1727
1683,1878,1887
1921,1891,1831
1712,1776,1774
1680,1808,1861
1783,1835,1872
1874,1859,1838
1929,1837,1764
2142,1873,1835
1939,1866,1840
1907,1885,1888
1840,1776,1837
1694,1792,1775
1650,1868,1851
1770,1879,1867
1872,1854,1808
1930,1859,1854
2006,1889,1914
2075,1904,1873
1806,1808,1718
1774,1790,1749
1872,1851,1885
1847,1872,1884
1739,1853,1856
1758,1840,1831
1900,1872,1820
1968,1856,1833
1894,1829,1821
1904,1833,1783
1811,1853,1863
1808,1877,1866
1805,1856,1849
1840,1856,1869
1869,1877,1869
1902,1893,1872
1882,1859,1835
1839,1835,1822
1846,1856,1849
1866,1857,1840
1853,1831,1806
1983,1872,1876
2029,1882,1847
1803,1838,1775
1722,1837,1808
1781,1851,1849
1866,1874,1872
1865,1867,1862
1913,1861,1831
1968,1854,1794
2185,1904,1786
1943,1846,1813
1573,1808,1849
1632,1825,1859
1923,1888,1891
2159,1889,1838
1819,1807,1770
1792,1821,1779
2064,1894,1840
2580,2047,1901
1934,1734,1739
1171,1715,1840
1360,1807,1878
1922,1862,1863
1945,1791,1757
1737,1819,1856
1777,1861,1904
2187,1975,1955
2325,1862,1767
1708,1744,1776
1410,1776,1808
1680,1856,1825
2021,1872,1861
1841,1814,1859
1754,1828,1831
2128,1901,1802
1923,1778,1712
1642,1779,1888
1677,1825,1887
1824,1891,1872
1968,1901,1840
1989,1855,1855
1867,1824,1819
1742,1847,1846
1774,1841,1845
1819,1826,1808
1930,1866,1840
1936,1882,1836
1845,1836,1806
1852,1835,1845
1903,1874,1945
1843,1835,1808
2032,1879,1776
2058,1852,1824
1812,1826,1855
1652,1827,1813
1676,1820,1823
1850,1846,1874
1972,1902,1905
2035,1846,1749
2099,1840,1689
1798,1778,1801
1571,1812,1874
1692,1822,1847
1855,1830,1840
1935,1863,1839
2032,1908,1920
1971,1857,1879
1675,1783,1738
1674,1808,1777
1762,1847,1808
2000,1858,1750
2129,1849,1765
1840,1847,1907
1623,1823,1841
1723,1837,1818
2061,1925,1895
2005,1867,1877
1712,1808,1835
1742,1819,1826
1949,1862,1742
1933,1870,1776
1810,1843,1839
1853,1855,1845
1757,1812,1837
1744,1849,1846
1860,1902,1858
1863,1897,1850
1909,1853,1823
2014,1830,1872
1807,1862,1919
1758,1851,1872
1921,1840,1789
2086,1899,1801
1929,1845,1821
1733,1895,1835
1775,1808,1855
1798,1779,1805
1821,1864,1875
1853,1838,1865
1840,1833,1838
1820,1846,1845
1877,1831,1894
1968,1895,1899
1913,1846,1796
1823,1840,1867
1769,1866,1898
1863,1850,1789
1891,1799,1769
2000,1903,1911
1911,1872,1872
1842,1837,1871
1703,1776,1838
1801,1815,1790
1983,1841,1825
1936,1924,1913
1840,1882,1869
1968,1887,1824
1987,1908,1847
1872,1872,1861
1765,1781,1808
1685,1837,1889
1759,1872,1922
1839,1875,1825
2153,1903,1767
2258,1881,1825
1631,1813,1874
1503,1802,1860
1700,1840,1840
1962,1856,1836
2150,1904,1863
1866,1826,1803
1781,1904,1871
1754,1856,1856
1765,1863,1841
1807,1860,1866
1857,1811,1866
2194,1892,1801
2032,1872,1851
1666,1871,1913
1793,1870,1873
1971,1887,1758
1845,1802,1792
1792,1905,1898
1934,1910,1873
1725,1814,1808
1648,1833,1855
1882,1889,1878
2128,1941,1933
1895,1797,1751
1723,1846,1835
1943,1933,1907
1886,1826,1758
1808,1825,1843
1889,1904,1875
1858,1863,1811
1764,1823,1794
1712,1754,1826
1798,1865,1910
1936,1889,1918
2077,1872,1898
1987,1861,1768
1766,1794,1751
1726,1834,1819
1851,1900,1919
1840,1803,1815
1840,1894,1872
1815,1851,1846
1824,1808,1810
1931,1837,1799
2112,1893,1904
1971,1859,1859
1679,1806,1810
1670,1791,1851
1795,1856,1883
1780,1855,1819
1837,1851,1779
1859,1824,1781
1874,1874,1872
2077,1952,1932
1996,1851,1823
1648,1758,1679
1610,1810,1787
1840,1872,1883
1856,1869,1906
1843,1853,1885
1940,1863,1797
1907,1840,1808
1861,1851,1871
1869,1847,1850
1883,1867,1875
1819,1842,1846
1911,1887,1838
1936,1850,1847
1853,1835,1846
1745,1829,1845
1693,1830,1818
1810,1854,1811
1922,1842,1849
1873,1904,1862
1847,1859,1888
1850,1833,1856
1926,1825,1802
1986,1886,1814
1778,1789,1761
1811,1788,1760
1802,1855,1825
1811,1792,1906
1903,1923,1849
1919,1887,1808
1921,1914,1805
1716,1835,1655
1687,1795,524
1827,1847,765
2018,1879,1524
2029,1906,1931
1745,1791,1793
1712,1776,1669
1765,1726,1634
1982,1930,1917
1913,1830,1761
1747,1845,1680
1806,1865,1706
1790,1839,1298
1764,1824,1487
1974,1851,1823
2093,1828,1899
1769,1840,1927
1679,1834,1731
1855,1837,1694
2146,1919,1802
1869,1814,1463
1517,1763,1616
1783,1870,1934
2124,1840,2001
1872,1872,1988
1713,1817,1890
1760,1767,1810
1737,1840,1922
1965,1878,2032
2060,1842,1893
1785,1806,1741
1639,1853,1798
1915,1869,1789
1987,1878,1766
1760,1827,1855
1674,1763,1871
1808,1856,1901
1933,1840,1845
2006,1823,1815
1974,1831,1926
1808,1821,2079
1648,1811,1953
1729,1835,1861
1915,1841,1829
1939,1866,1907
1936,1855,1918
1936,1808,1943
1744,1791,1994
1695,1824,1968
1701,1818,1886
1960,1852,1840
2079,1844,1856
1712,1823,1878
1669,1826,1970
1828,1821,2005
1936,1851,1894
1990,1869,1897
2041,1898,1963
1872,1825,1884
1747,1810,1909
1942,1808,1885
1826,1803,1840
1825,1825,1950
1744,1795,1911
1742,1840,1911
1904,1889,1915
1967,1840,1876
1910,1809,1886
2158,1949,2045
1947,1816,1872
1554,1770,1918
1630,1834,1970
1918,1866,1948
1808,1802,1808
1744,1799,1872
1890,1872,1957
1879,1873,1949
1807,1818,1851
1886,1815,1803
1937,1856,1928
1915,1884,1929
1968,1909,1955
2083,1883,1899
1873,1824,1835
1581,1785,1839
1809,1817,1878
2021,1794,1847
1797,1786,1907
1711,1852,1979
1709,1865,1924
1872,1888,1943
2067,1874,1882
1757,1803,1830
1691,1824,1878
1878,1869,1947
2000,1830,1878
1728,1798,1869
1680,1829,1905
1935,1857,1897
2093,1845,1859
1804,1850,1911
1679,1819,1889
1845,1869,1923
2026,1886,1892
1989,1875,1895
1762,1783,1818
1635,1807,1908
1713,1848,1882
1888,1824,1793
2073,1872,1885
1927,1875,1936
1795,1874,1922
1776,1807,1857
1783,1795,1867
1798,1794,1854
1718,1891,1902
1775,1899,1953
1826,1851,1841
1943,1849,1936
1991,1882,1895
1952,1930,1945
1855,1875,1939
1839,1851,1840
1733,1801,1713
1743,1797,1794
2097,1872,1846
2023,1902,1989
1749,1871,1911
1829,1887,1934
1990,1889,1840
1639,1780,1769
1584,1823,1843
1786,1902,2022
1965,1901,1920
2002,1832,1741
2032,1837,1796
1829,1872,1872
1579,1833,1875
1696,1854,1886
1882,1858,1955
1982,1867,1831
2010,1871,1762
1780,1882,1893
1737,1873,1915
1856,1865,1857
1811,1822,1823
1825,1847,1872
2133,1952,1887
2097,1840,1828
1687,1793,1777
1616,1818,1827
1776,1872,1905
1890,1862,1920
1862,1841,1794
1753,1856,1874
1857,1863,1968
1960,1895,1849
2037,1891,1787
1840,1847,1887
1760,1859,1907
1941,1852,1825
1716,1850,1834
1778,1877,1878
1911,1829,1863
1821,1827,1840
1730,1877,1890
1765,1903,1878
1878,1907,1824
2082,1899,1845
2064,1879,1793
2107,1922,1953
1637,1808,1801
1520,1791,1854
1712,1825,1847
1805,1810,1795
1945,1856,1843
1964,1846,1882
1871,1893,1920
1781,1869,1842
1887,1882,1830
1933,1878,1758
1760,1872,1871
1887,1939,1990
1863,1827,1887
1771,1847,1810
1761,1840,1847
1829,1838,1815
1933,1859,1806
1973,1870,1867
1883,1843,1834
1798,1858,1902
1744,1853,1879
1761,1876,1866
2003,1869,1727
2034,1873,1745
1767,1867,1969
1677,1854,1943
1815,1840,1823
1855,1845,1824
1877,1841,1817
1920,1844,1754
1904,1851,1859
1873,1843,1889
1819,1861,1899
1823,1892,1826
1815,1872,1787
1853,1869,1831
1955,1892,1888
1999,1870,1837
1805,1805,1808
1683,1840,1835
1840,1882,1855
1821,1853,1865
1890,1845,1813
1918,1876,1938
1905,1882,1870
1999,1910,1834
1931,1845,1789
1854,1808,1781
1637,1853,1878
1695,1885,1827
1874,1893,1840
1943,1858,1820
1873,1872,1871
1991,1909,1821
2069,1856,1828
1809,1843,1861
1680,1820,1823
1777,1858,1841
1831,1862,1840
1862,1854,1827
1873,1890,1926
1958,1940,1893
1986,1887,1840
1775,1806,1730
1710,1812,1774
1986,1910,1809
1899,1879,1829
1741,1826,1858
1776,1856,1915
1891,1872,1864
2057,1918,1873
1870,1833,1836
1821,1863,1829
1776,1838,1820
1712,1855,1803
1786,1840,1808
1919,1872,1794
2024,1872,1850
1936,1853,1823
1728,1872,1890
1794,1915,1957
1859,1884,1847
1893,1840,1793
1952,1837,1804
1915,1914,1898
1907,1906,1808
1943,1865,1753
1866,1842,1916
1804,1808,1867
1655,1840,1795
1691,1845,1776
1794,1862,1862
1913,1889,1888
1904,1886,1887
1906,1877,1797
1872,1871,1839
1868,1899,1936
1825,1893,1920
1777,1852,1823
1822,1841,1782
1936,1840,1774
1981,1872,1897
1945,1882,1844
1776,1885,1871
1847,1846,1774
1842,1874,1818
1776,1874,1840
1802,1869,1807
1866,1867,1851
1878,1886,1798
1831,1867,1834
1822,1854,1903
1821,1859,1840
1904,1849,1787
2062,1847,1887
1830,1859,1871
1765,1862,1821
1879,1900,1798
1831,1838,1746
1782,1840,1853
1838,1883,1883
1945,1885,1881
1805,1825,1795
1811,1825,1789
1883,1903,1854
1872,1869,1866
1814,1782,1744
1851,1821,1860
1949,1900,1875
1991,1920,1863
1799,1833,1776
1683,1801,1787
1829,1872,1869
1867,1852,1759
1851,1840,1936
1905,1847,1887
1871,1821,1851
1920,1886,1838
1870,1890,1849
1755,1842,1897
1857,1872,1861
1904,1901,1830
1934,1872,1791
1935,1853,1798
1833,1807,1736
1887,1866,1834
1808,1870,1833
1766,1845,1808
1856,1867,1817
2021,1858,1902
2032,1846,1783
1900,1845,1723
1711,1854,1919
1771,1874,1965
1731,1804,1726
1789,1835,1744
1929,1872,1778
2017,1887,1116
1920,1884,866
1775,1856,1565
1961,1870,1920
2064,1907,1910
1708,1808,1792
1664,1840,1887
1886,1900,1856
2035,1897,1802
1931,1881,1915
1842,1872,1846
1892,1884,1873
1943,1883,1805
1933,1873,1815
1933,1919,1841
1906,1852,1838
1819,1843,1830
1808,1856,1730
1840,1831,1806
1795,1847,1808
1915,1939,1826
1909,1872,1890
1889,1842,1825
1887,1815,1834
1840,1851,1834
1851,1903,1823
2039,1906,1832
1987,1857,1827
1722,1819,1851
1731,1823,1827
1795,1854,1830
1902,1863,1829
1979,1898,1826
1921,1837,1829
1829,1819,1836
1745,1855,1881
1837,1914,1863
1904,1871,1766
1914,1817,1691
1826,1843,1818
1862,1859,1830
2021,1809,1692
1971,1849,1749
1798,1821,1762
1733,1869,1767
1803,1851,1830
1804,1845,1814
1777,1850,1808
1919,1872,1827
2107,1867,1843
1925,1834,1827
1687,1830,1726
1712,1825,1751
1807,1826,1756
1917,1807,1779
1884,1842,1782
1999,1949,1887
2025,1840,1772
1718,1744,1744
1651,1827,1840
1759,1867,1825
1861,1798,1702
1905,1834,1791
1921,1872,1762
1808,1875,1810
1886,1839,1811
1897,1809,1801
1891,1855,1811
1879,1856,1825
1774,1849,1771
1919,1846,1837
1949,1807,1776
1791,1826,1794
1792,1861,1811
1889,1854,1790
1860,1863,1923
1909,1887,1883
1838,1821,1755
1905,1815,1765
1874,1826,1808
1933,1871,1836
1943,1813,1737
1874,1830,1862
1759,1850,1876
1722,1859,1872
1840,1879,1834
1859,1795,1776
1855,1763,1761
1927,1897,1911
1859,1894,1898
1840,1838,1815
1898,1810,1743
1931,1829,1783
1846,1842,1904
1856,1873,1938
1840,1805,1811
1711,1798,1763
1765,1861,1800
1858,1846,1871
2042,1862,1908
1931,1851,1809
1746,1842,1806
1817,1827,1798
1858,1840,1795
1776,1810,1797
1751,1840,1903
1807,1843,1883
1874,1818,1893
1979,1846,1891
1937,1872,1850
1710,1793,1830
1792,1827,1840
1995,1854,1935
1951,1825,1782
1675,1775,1802
1684,1855,1887
1801,1914,1927
1967,1878,1865
1858,1813,1823
1810,1853,1904
1905,1854,1866
1904,1850,1808
2039,1823,1760
1797,1819,1839
1777,1855,1926
1808,1831,1864
1843,1841,1873
1862,1906,1934
1765,1822,1857
1739,1809,1843
1893,1862,1849
1920,1841,1817
1923,1845,1862
1915,1793,1786
1806,1802,1874
1888,1872,1891
1738,1859,1874
1773,1839,1854
1831,1834,1904
1821,1848,1930
1938,1878,1856
1867,1817,1759
1833,1853,1858
1867,1855,1905
1938,1893,1907
1864,1847,1819
1728,1783,1838
1785,1804,1853
1918,1840,1808
1902,1855,1900
1793,1866,1933
1839,1904,1873
1936,1858,1775
1873,1815,1779
1763,1851,1881
1731,1869,1952
1823,1894,1984
1931,1835,1854
1889,1787,1776
1785,1849,1849
1840,1863,1876
1949,1847,1882
2047,1838,1782
1866,1877,1840
1719,1842,1920
1728,1847,1911
1821,1834,1840
1973,1875,1858
1835,1840,1875
1689,1822,1815
1865,1815,1865
2001,1850,1920
2083,1893,1835
1882,1827,1808
1786,1804,1827
1753,1809,1776
1733,1874,1866
1841,1864,1881
1849,1764,1776
1930,1891,1920
1938,1872,1867
1898,1809,1810
1759,1808,1913
1887,1870,1893
1805,1872,1829
1934,1887,1872
1905,1798,1781
1683,1801,1813
1626,1842,1886
1857,1850,1792
2027,1867,1809
2147,1929,1903
2128,1921,1968
1527,1739,1838
1534,1768,1856
1742,1838,1867
1786,1857,1850
1818,1829,1735
1997,1825,1744
1990,1877,1869
1834,1846,1926
1695,1840,1904
1783,1815,1810
1946,1854,1904
1983,1877,1878
1920,1859,1831
1661,1791,1739
1809,1855,1871
1926,1876,1883
1803,1808,1767
1802,1789,1840
1984,1824,1919
1881,1855,1870
1837,1874,1857
1849,1872,1857
1909,1901,1839
2013,1898,1845
1916,1844,1846
1691,1793,1799
1651,1809,1827
1869,1859,1910
1871,1847,1886
1829,1808,1811
1898,1808,1830
1889,1842,1850
1710,1836,1808
1810,1860,1866
1970,1872,1889
1943,1873,1803
2032,1941,1941
1791,1838,1881
1652,1799,1872
1742,1808,1840
1903,1801,1808
1979,1829,1809
1788,1829,1868
1810,1894,1884
1853,1841,1765
1836,1811,1749
1749,1851,1918
1810,1889,1959
1862,1831,1900
1872,1818,1818
1907,1889,1866
1999,1829,1871
2071,1870,1904
1930,1841,1817
1643,1823,1826
1648,1815,1804
1773,1863,1878
1953,1845,1813
1975,1778,1758
1885,1890,1903
1827,1918,1923
1840,1841,1885
1904,1854,1885
1838,1833,1927
1915,1860,1825
1842,1818,1719
1824,1849,1879
1903,1920,1985
1919,1874,1856
1746,1778,1754
1750,1794,1767
1831,1851,1868
1835,1824,1773
2002,1870,1819
1945,1931,2035
1714,1854,1943
1742,1847,1809
1822,1872,1840
1969,1886,1891
1942,1853,1881
1837,1853,1835
1781,1857,1870
1889,1910,1905
1899,1892,1881
1806,1822,1806
1781,1808,1799
1866,1840,1859
