1936,1862,1875
1909,1885,1850
1906,1850,1826
1984,1913,1890
1986,1909,1926
1899,1844,1867
1821,1790,1771
1859,1822,1796
1933,1863,1893
1962,1898,1907
1954,1843,1844
1981,1968,1872
1918,1866,1869
1846,1815,1827
1840,1801,1810
1856,1857,1823
1942,1812,1873
1968,1835,1871
1959,1911,1835
1895,1841,1808
1840,1817,1840
1881,1922,1904
1979,1945,1946
1923,1801,1810
1968,1794,1779
1923,1840,1843
1902,1835,1851
1979,1872,1821
1878,1887,1793
1783,1885,1846
1749,1801,1789
1841,1925,1834
1918,1855,1856
1979,1872,1859
1875,1902,1807
1805,1968,1860
1802,1923,1860
1856,1985,1856
1885,1889,1810
1962,1962,1797
1987,1947,1793
1776,1920,1814
1739,1920,1839
1741,1934,1818
1803,1892,1821
1961,1939,1887
1833,1861,1787
1772,1872,1763
1857,1909,1813
1857,1958,1840
1840,1886,1826
1890,1921,1886
1943,1959,1941
1802,1856,1705
1678,1833,1578
1738,1878,1680
1873,1953,1839
2018,2000,1885
1963,1827,1746
1872,1867,1712
1838,1869,1712
1754,1845,1835
1749,1872,1839
1846,1857,1779
1835,1867,1715
1809,1846,1749
1856,1843,1746
1818,1846,1807
1747,1871,1808
1771,1887,1799
1799,1858,1776
1727,1824,1781
1745,1847,1822
1723,1808,1662
1756,1808,1630
1839,1843,1801
1851,1846,1936
1826,1818,1837
1826,1795,1749
1734,1798,1677
1723,1845,1772
1850,1863,1810
1785,1766,1673
1724,1742,1600
1747,1777,1712
1765,1811,1798
1750,1767,1744
1856,1777,1805
1719,1697,1771
1721,1749,1729
1816,1836,1776
1873,1813,1791
1664,1701,1707
1733,1735,1754
1769,1742,1664
1695,1700,1615
1767,1728,1730
1956,1781,1744
1749,1750,1763
1712,1754,1803
1525,1712,1795
1535,1694,1755
1665,1716,1691
1795,1742,1738
1899,1725,1627
1770,1729,1722
1761,1744,1801
1744,1735,1831
1617,1710,1646
1661,1726,1613
1717,1692,1667
1697,1687,1584
1773,1747,1795
1697,1739,1780
1652,1727,1651
1697,1745,1696
1759,1757,1768
1652,1706,1723
1618,1691,1731
1673,1683,1796
1741,1725,1715
1783,1739,1667
1936,1739,1703
1569,1685,1725
1506,1707,1712
1717,1799,1773
1909,1776,1748
1738,1698,1693
1535,1703,1792
1595,1744,1729
1735,1734,1674
1865,1744,1792
1743,1730,1749
1527,1653,1489
1514,1712,1600
1687,1735,1782
1799,1776,1851
1725,1768,1697
1706,1767,1751
1835,1795,1815
1891,1790,1808
1621,1719,1638
1520,1728,1645
1634,1729,1776
1706,1712,1770
1808,1779,1776
1705,1727,1625
1578,1766,1681
1634,1789,1802
1835,1791,1812
1874,1767,1774
1741,1751,1687
1718,1791,1850
1593,1770,1700
1611,1768,1621
1690,1754,1699
1734,1750,1807
1709,1814,1865
1726,1856,1823
1776,1777,1658
1869,1742,1678
1739,1767,1707
1535,1774,1744
1648,1742,1726
1929,1837,1843
1680,1829,1874
1514,1797,1776
1660,1805,1763
1847,1826,1792
1828,1808,1754
1697,1760,1668
1676,1728,1649
1655,1754,1680
1619,1808,1743
1611,1802,1833
1712,1791,1808
1921,1855,1857
2017,1872,1968
1699,1743,1659
1520,1748,1663
1535,1770,1642
1653,1795,1753
1888,1846,1858
1871,1805,1818
1743,1844,1759
1882,1850,1773
1699,1840,1905
1535,1746,1753
1712,1823,1791
1780,1840,1811
1643,1785,1822
1661,1790,1781
1774,1854,1729
1998,1873,1776
1793,1839,1831
1517,1794,1791
1562,1829,1757
1835,1859,1809
1914,1861,1935
1706,1808,1851
1657,1794,1747
1691,1810,1749
1808,1857,1790
1946,1861,1822
1899,1840,1755
1680,1835,1749
1680,1870,1863
1737,1874,1857
1667,1793,1808
1826,1851,1825
1703,1835,1783
1600,1821,1781
1703,1843,1888
1793,1869,1786
1813,1845,1786
1798,1834,1841
1801,1850,1787
1859,1889,1813
1905,1913,1819
1853,1843,1729
1859,1874,1797
1789,1864,1903
1648,1854,1810
1621,1809,1755
1708,1813,1811
1789,1873,1839
1801,1863,1825
1860,1815,1718
1969,1857,1781
1681,1872,1846
1535,1875,1888
1776,1898,1855
2063,1888,1916
1748,1802,1729
1567,1829,1765
1679,1847,1881
1786,1888,1893
1841,1920,1861
1855,1894,1866
1870,1887,2015
1751,1841,1776
1726,1818,1666
1836,1872,1779
1903,1931,1825
1871,1920,1890
1809,1840,1854
1823,1820,1776
1852,1889,1885
1808,1877,1889
1714,1851,1806
1741,1888,1969
1687,1843,1916
1708,1854,1776
1823,1853,1862
1977,1952,1817
1950,1813,1805
1719,1804,1723
1605,1873,1843
1791,1918,1923
1825,1895,1840
1795,1863,1898
1857,1872,1923
1958,1941,1925
2037,1910,1971
1721,1832,1804
1591,1814,1680
1722,1843,1777
1904,1898,1984
1987,1881,1872
1763,1811,1755
1696,1845,1804
1747,1855,1917
1885,1878,1850
2061,1914,1891
1856,1851,1872
1704,1885,1900
1685,1874,1887
1801,1889,1922
2096,1901,2015
2069,1853,1840
1781,1802,1645
1717,1822,1813
1677,1831,1785
1727,1859,1835
1823,1883,1883
1863,1871,1847
1754,1806,1879
1841,1861,1879
2006,1955,2047
2001,1909,1904
1822,1790,1796
1744,1840,1872
1725,1861,1765
1819,1866,1788
1866,1853,1810
1939,1856,1838
1751,1851,1890
1757,1905,1883
1973,1953,1945
2005,1857,1893
1797,1799,1821
1759,1819,1795
1726,1787,1830
1753,1849,1934
1904,1873,1857
1920,1885,1849
1808,1872,1769
1886,1879,1818
1904,1923,1933
1862,1905,1990
1739,1818,1886
1797,1818,1840
2012,1867,1755
1906,1825,1753
1712,1827,1782
1840,1891,1920
1826,1856,1879
1871,1871,1915
1847,1897,1853
1879,1909,1903
1863,1920,1814
1879,1867,1799
1913,1831,1840
1846,1835,1761
1822,1867,1903
1895,1882,1936
1939,1936,2006
1813,1834,1906
1792,1819,1804
1770,1860,1679
1797,1872,1797
1801,1883,1930
1830,1866,1900
1940,1873,1881
1907,1862,1846
1872,1895,1842
1936,1936,1902
1972,1889,1878
1834,1856,1894
1730,1821,1811
1817,1886,1873
1904,1902,1894
1834,1867,1936
1869,1837,1863
1978,1840,1856
1876,1871,1833
1858,1866,1684
1744,1886,1790
1854,1936,1973
1935,1915,1941
1916,1865,1756
1808,1842,1829
1827,1841,1878
1911,1863,1931
1914,1909,1948
1863,1902,1920
1942,1921,1982
1908,1869,1829
1827,1879,1706
1808,1853,1783
1903,1857,1859
1856,1860,1918
1939,1884,1910
2021,1907,1941
1936,1874,1895
1799,1845,1789
1760,1833,1821
1838,1827,1744
1940,1872,1840
1843,1919,1950
1841,1915,1947
1915,1897,1926
1951,1890,1977
1977,1911,1985
1870,1872,1754
1791,1837,1671
1850,1827,1745
1911,1869,1866
1855,1875,1895
1822,1893,1915
1871,1867,1859
2043,1899,1860
1936,1875,1868
1888,1886,1854
1879,1873,1953
1831,1872,1870
1835,1912,1851
1810,1851,1874
1898,1881,1814
2013,1904,1808
1914,1882,1872
1825,1856,1872
1978,1884,1904
2053,1931,1968
1781,1862,1790
1725,1827,1833
1920,1872,1867
2089,1913,1856
2006,1872,1895
1845,1851,1874
1775,1883,1863
1831,1872,1828
1994,1886,1827
2003,1935,1881
1849,1878,1889
1867,1865,1870
1878,1860,1855
1883,1856,1820
1872,1913,1904
1917,1885,1936
1945,1839,1843
1905,1870,1845
1933,1923,1917
2025,1926,1922
1932,1863,1834
1922,1867,1866
1883,1872,1875
1911,1882,1804
1923,1858,1747
1865,1895,1915
1856,1903,2034
1899,1863,1895
1921,1879,1839
1889,1906,1840
1833,1901,1904
1952,1911,1877
2063,1901,1819
2047,1877,1853
1930,1876,1942
1777,1862,1835
1755,1845,1744
1797,1856,1810
1936,1918,1893
2006,1917,1936
2030,1881,1974
1950,1856,1851
1792,1876,1776
1797,1895,1918
1879,1883,1908
1906,1885,1875
1869,1849,1894
1865,1872,1869
1936,1922,1859
1949,1853,1817
1887,1873,1898
1840,1879,1823
1803,1886,1839
1933,1922,1925
2017,1904,1939
1969,1871,1738
1920,1858,1773
1825,1867,1932
1808,1884,1941
1899,1917,1853
1959,1889,1938
1845,1872,1882
1914,1889,1781
2132,1946,1822
1909,1909,1882
1825,1840,1859
1906,1801,1858
1760,1847,1891
1803,1893,1864
1894,1901,1840
1910,1869,1819
1983,1891,1895
1922,1889,1916
1910,1893,1854
1887,1863,1835
1851,1891,1875
1953,1839,1752
1872,1860,1792
1902,1962,2032
1919,1903,1920
1819,1836,1747
1833,1827,1790
1857,1849,1823
1891,1889,1921
1994,1936,2047
1958,1886,1874
1936,1873,1754
1889,1869,1822
1998,1875,1810
1834,1873,1848
1743,1815,1830
1840,1863,1851
1935,1887,1840
1920,1855,1797
2007,1863,1904
1922,1872,1970
1843,1859,1835
1846,1846,1777
1995,1925,1925
1901,1872,1868
1790,1878,1793
1903,1889,1839
2129,1891,1882
1888,1871,1841
1750,1858,1874
1823,1909,1872
1969,1898,1843
1911,1831,1875
1773,1817,1872
1794,1862,1934
1898,1878,1863
1936,1873,1771
1935,1869,1805
2000,1858,1901
2034,1885,1835
1859,1898,1794
1861,1901,1885
2058,1957,1999
1897,1809,1847
1723,1802,1735
1673,1843,1737
1904,1904,1851
1996,1877,1904
1954,1872,1872
1851,1871,1849
1827,1867,1871
1853,1898,1842
1859,1863,1806
1872,1863,1743
1904,1909,1918
1999,1917,2018
1998,1919,1927
2027,1919,1848
2002,1952,1857
1904,1846,1744
1655,1778,1776
1643,1807,1763
1804,1856,1754
1900,1895,1854
1981,1934,1923
2032,1892,1830
1897,1801,1855
1845,1835,1942
1845,1918,1810
1869,1914,1744
1878,1878,1818
1894,1907,1929
1871,1859,1849
1881,1855,1810
1815,1883,1862
1863,1846,1799
1921,1866,1781
1913,1905,1915
1885,1856,1877
1831,1862,1827
1859,1893,1813
1968,1845,1778
1956,1834,1775
1941,1896,1911
1740,1882,1895
1786,1877,1842
1986,1904,1909
2064,1898,1904
1808,1797,1759
1689,1828,1770
1831,1889,1876
1999,1875,1862
1943,1904,1871
1783,1834,1751
1817,1856,1785
1949,1903,1840
1919,1872,1911
1898,1861,1833
1837,1830,1745
1798,1846,1823
1815,1894,1874
1872,1915,1895
1938,1921,1918
2002,1869,1898
1985,1886,1861
1882,1853,1771
1806,1840,1827
1956,1879,1859
1951,1883,1842
1920,1911,1865
1813,1856,1833
1797,1842,1835
1878,1844,1808
1955,1839,1827
1907,1882,1837
1846,1873,1845
1845,1888,1859
1856,1881,1943
1860,1845,1875
1831,1833,1737
1861,1865,1744
1970,1886,1883
2037,1890,1840
1874,1885,1833
1853,1879,1851
1827,1870,1888
1942,1797,1793
1904,1826,1845
1749,1853,1833
1790,1885,1847
1856,1867,1799
1904,1862,1841
1834,1840,1803
1832,1856,1771
1959,1887,1850
1984,1900,1903
1936,1872,1851
1875,1842,1799
1906,1873,1879
1931,1872,1876
1909,1834,1851
1791,1808,1857
1710,1836,1890
1806,1874,1776
1858,1870,1774
1919,1876,1836
1927,1877,1815
1850,1865,1794
1855,1853,1849
1890,1846,1829
1869,1830,1871
1936,1866,1909
1937,1879,1837
1827,1866,1781
1830,1852,1823
1870,1872,1911
1873,1854,1875
1915,1872,1835
1998,1882,1871
1940,1875,1917
1783,1811,1845
1777,1820,1739
1831,1811,1740
1913,1854,1830
1878,1865,1857
1904,1844,1827
1922,1833,1905
1904,1858,1913
1904,1906,1819
1939,1882,1881
1929,1858,1957
1936,1875,1772
1926,1866,1649
1863,1859,1760
1751,1855,1919
1746,1841,1898
1808,1831,1872
1885,1844,1802
1942,1841,1782
2070,1889,1863
1905,1840,1824
1793,1837,1842
1798,1863,1861
1799,1876,1965
1857,1892,1841
2023,1873,1843
1998,1865,1783
1872,1860,1795
1839,1845,1818
1786,1856,1809
1936,1857,1843
2009,1849,1833
1813,1838,1771
1664,1836,1872
1790,1835,1826
2047,1863,1823
1950,1859,1910
1795,1846,1792
1907,1883,1776
1941,1897,1853
1776,1783,1905
1765,1808,1861
1916,1890,1839
1905,1890,1838
1872,1871,1827
1805,1835,1843
1862,1856,1942
1902,1840,1809
2000,1871,1769
2078,1894,1840
1803,1861,1835
1703,1858,1840
1756,1858,1751
1835,1839,1769
1858,1815,1846
1856,1839,1891
1863,1853,1845
1861,1887,1873
1826,1848,1834
1858,1834,1891
1922,1887,1904
1891,1898,1835
1929,1901,1802
1923,1889,1827
1920,1863,1855
1843,1829,1849
1970,1863,1805
1838,1837,1826
1744,1824,1872
1788,1815,1822
1904,1904,1869
1867,1843,1774
1872,1878,1820
1904,1893,1855
1849,1875,1840
1776,1827,1830
1833,1855,1923
1904,1841,1855
1835,1855,1785
1895,1838,1845
2098,1813,1806
1851,1849,1777
1621,1856,1823
1712,1861,1840
1904,1915,1895
1968,1904,1871
1931,1855,1873
1840,1889,1890
1856,1845,1871
1791,1829,1789
1854,1859,1891
1902,1817,1932
2026,1843,1895
1882,1872,1712
1830,1872,1819
1867,1913,1931
1773,1856,1777
1776,1843,1787
1891,1856,1815
1910,1862,1872
1851,1855,1922
1928,1872,1886
2035,1872,1872
1904,1802,1840
1840,1840,1927
1797,1801,1822
1802,1844,1733
1873,1831,1801
1958,1902,1991
1895,1907,1902
1749,1795,1776
1747,1855,1808
1894,1895,1822
1898,1839,1805
1869,1801,1799
1952,1885,1920
2075,1875,1958
1938,1786,1920
1744,1767,1782
1654,1854,1712
1691,1849,1850
1840,1837,1901
1923,1901,1782
2105,1889,1821
1990,1872,1865
1776,1814,1841
1703,1790,1799
1753,1808,1822
1860,1857,1875
1946,1831,1856
1919,1861,1766
1885,1846,1807
1856,1904,1859
1805,1893,1920
1808,1863,1887
1842,1851,1751
2061,1901,1795
2042,1923,1920
1646,1742,1863
1661,1810,1827
1918,1825,1872
1951,1879,1762
1795,1809,1772
1765,1836,1780
1909,1884,1933
1808,1835,1918
1819,1848,1851
1873,1891,1827
1872,1867,1835
1783,1799,1757
1799,1750,1845
1887,1808,1884
1957,1951,1990
1939,1841,1823
1896,1825,1722
1711,1805,1837
1792,1806,1794
1956,1909,1824
1857,1831,1837
1679,1862,1874
1766,1804,1897
1921,1838,1920
1974,1872,1841
1879,1823,1680
1765,1751,1728
1728,1791,1781
1808,1826,1897
1861,1784,1996
2006,1891,1842
1889,1763,1727
1663,1823,1738
1803,1904,1950
1886,1879,2095
1831,1771,1810
1767,1811,1642
1816,1828,1718
1907,1874,1873
1898,1872,1863
1836,1842,1875
1906,1869,2009
1962,1872,1826
1802,1840,1771
1731,1847,1841
1862,1850,1983
1853,1821,1840
1841,1876,1705
1953,1841,1759
1919,1872,1871
1856,1868,1903
1808,1842,1830
1759,1816,1904
1771,1886,1884
1926,1965,1855
1999,1837,1845
1863,1808,1883
1809,1869,1802
1697,1737,1750
1757,1837,1734
1911,1886,1810
1911,1856,1879
1847,1939,2006
1890,1881,1904
1856,1818,1917
1776,1820,1843
1744,1845,1709
1819,1853,1781
1971,1919,1885
2098,1863,1937
1919,1830,1834
1771,1825,1800
1680,1872,1743
1789,1840,1926
1839,1808,1995
1793,1871,1817
1825,1926,1737
1887,1885,1762
1963,1907,1851
2000,1923,1855
1825,1847,1904
1844,1840,2058
1780,1826,1988
1725,1830,1709
1773,1810,1613
1964,1866,1761
2081,1934,1870
1920,1931,1961
1698,1869,1865
1695,1840,1799
1821,1856,1824
1966,1924,1958
1963,1931,1977
1722,1855,1789
1729,1767,1782
1873,1765,1813
1855,1842,1793
1859,1872,1798
1844,1865,1791
1815,1825,1865
1922,1850,2018
1907,1904,1872
1872,1915,1845
1873,1865,1793
1838,1826,1853
1846,1863,1730
1856,1872,1788
1925,1917,1885
1841,1910,1929
1879,1833,1920
1825,1754,1889
1827,1805,1714
1804,1847,1758
1733,1876,1813
1785,1886,1865
1911,1904,1931
2096,1857,1825
2096,1904,2010
1744,1819,1851
1603,1819,1689
1686,1853,1766
1808,1871,1904
1935,1870,1934
1934,1898,1852
1819,1851,1779
1859,1834,1942
1919,1872,1935
1833,1862,1780
1829,1860,1803
1867,1858,1885
1810,1886,1776
1879,1898,1786
1915,1889,1781
1809,1857,1818
2089,1918,1887
2207,1909,1920
1631,1759,1807
1437,1806,1853
1618,1846,1754
1822,1859,1794
1899,1862,1872
1986,1920,1979
2014,1898,1936
1920,1847,1766
1863,1807,1732
1805,1820,1975
1712,1824,1834
1759,1870,1694
1999,1929,1907
2206,1891,1827
2012,1868,1856
1514,1755,1804
1453,1787,1855
1679,1865,1902
1901,1889,1822
1905,1875,1796
1872,1825,1798
2000,1843,1894
2043,1840,1811
1733,1811,1755
1711,1873,1803
1776,1902,1957
1861,1870,1983
1954,1840,1891
2067,1934,1899
1891,1866,1802
1676,1808,1738
1675,1820,1783
1776,1826,1830
1870,1840,1866
1919,1834,1894
1858,1876,1845
1877,1863,1856
1989,1906,1872
2101,1902,1842
1791,1831,1746
1552,1808,1744
1605,1810,1802
1787,1872,1903
1970,1935,2058
2021,1843,1844
1987,1829,1791
1754,1843,1713
1726,1840,1776
1819,1862,1863
1882,1841,1918
1815,1871,1967
1751,1857,1817
1761,1839,1724
1878,1857,1776
2109,1899,1890
2170,1908,1921
1738,1790,1804
1586,1770,1703
1677,1808,1808
1744,1827,1916
1842,1872,1842
1943,1886,1887
2032,1909,1939
1907,1855,1829
1707,1793,1712
1667,1818,1808
1822,1844,1950
1947,1906,1893
1872,1851,1763
1937,1904,1819
2110,1959,1933
1872,1795,1819
1635,1735,1770
1681,1808,1830
1802,1877,1856
1945,1825,1695
1872,1873,1851
1818,1877,1979
1826,1871,1821
1839,1840,1754
1759,1822,1746
1933,1909,1882
2014,1872,1983
1726,1759,1803
1695,1839,1865
1872,1872,1914
1870,1870,1779
1854,1859,1783
1803,1820,1693
1754,1856,1822
1788,1861,1887
1894,1868,1903
2046,1840,1920
1742,1777,1804
1669,1829,1803
1840,1863,1904
2037,1902,1815
1837,1813,1862
1894,1893,1846
2021,1892,1905
1750,1778,1763
1591,1762,1813
1674,1808,1725
1818,1838,1731
1920,1833,1769
1944,1847,1867
1856,1837,1818
1822,1856,1847
1806,1863,1853
1839,1856,1913
1881,1841,1867
1937,1822,1858
2096,1882,1968
1884,1879,1857
1678,1805,1728
1762,1843,1855
1813,1813,1825
1790,1762,1711
1738,1824,1776
1807,1859,1874
1808,1869,1920
1867,1874,1968
1922,1902,1744
1984,1850,1754
2035,1859,1952
1861,1822,1925
1750,1839,1879
1778,1840,1722
1686,1802,1639
1894,1824,1743
1776,1810,1852
1712,1853,1907
1803,1840,1918
1837,1806,1931
1871,1869,1874
1950,1875,1770
2079,1906,1875
2032,1879,1874
1872,1825,1815
1659,1758,1664
1535,1754,1729
1765,1855,1943
1863,1838,1897
1803,1819,1830
1872,1879,1881
1968,1909,1953
1827,1842,1759
1825,1833,1779
1921,1851,1919
1936,1868,1905
1863,1878,1818
1917,1866,1824
1847,1802,1795
1797,1823,1822
1707,1840,1860
1671,1799,1734
1825,1811,1798
1877,1827,1855
1909,1894,2007
1901,1931,1936
1950,1839,1837
2022,1846,1808
1744,1822,1751
1761,1843,1882
1949,1847,2038
2055,1825,1858
1936,1837,1667
1527,1835,1744
1700,1881,1887
1954,1922,2127
1904,1841,1983
1825,1818,1683
1834,1871,1717
1798,1840,1789
1767,1841,1824
1922,1840,1783
1859,1874,1983
1958,1927,2061
1903,1895,1910
1853,1840,1690
1770,1842,1685
1810,1866,1776
1865,1866,1854
1850,1874,1968
1864,1899,1917
1890,1867,1808
1898,1808,1822
1776,1871,1911
1798,1914,1891
1893,1911,1869
1995,1920,1859
1980,1862,1874
1899,1856,1795
2099,1919,1883
1857,1890,1838
1632,1833,1762
1785,1808,1840
1883,1856,1995
1881,1874,1877
1835,1841,1823
1872,1886,1812
1947,1913,1968
1872,1866,1847
1763,1811,1728
1712,1845,1846
1851,1873,1911
1903,1886,1857
1857,1872,1761
1909,1886,1849
1885,1854,1892
1876,1850,1840
1825,1843,1873
1935,1847,1922
1922,1885,1826
1895,1968,1894
1918,1928,1877
1817,1815,1797
1801,1815,1818
1891,1856,1879
2007,1916,1965
1770,1858,1913
1738,1843,1878
1841,1869,1791
2011,1883,1713
2149,1984,1826
1877,1898,1999
1653,1794,1890
1696,1806,1773
1822,1854,1819
1904,1853,1990
1959,1867,1785
1968,1918,1791
2032,1948,1857
1797,1846,1911
1702,1825,1887
1780,1852,1859
1887,1866,1889
1917,1876,1898
1942,1878,1862
1936,1854,1821
1925,1840,1952
1821,1904,1847
1795,1905,1840
1857,1878,1872
2243,1935,1939
2194,1940,1814
1589,1797,1796
1527,1785,1798
1753,1825,1871
1889,1859,1862
2046,1913,1867
2299,1926,1919
1812,1792,1807
1571,1819,1869
1667,1862,1904
1823,1871,1874
1956,1872,1974
1978,1857,1875
1975,1890,1773
1968,1904,1799
1846,1886,1877
1791,1856,1855
1795,1865,1917
1840,1872,1903
1891,1904,1920
1920,1889,1898
1923,1859,1872
1912,1871,1979
1856,1862,1903
1943,1890,1778
1999,1891,1839
1853,1866,1955
1793,1874,2058
1926,1934,1926
1899,1879,1805
1838,1872,1820
1842,1866,1843
1885,1870,1881
2077,1889,1926
2031,1872,1856
1795,1872,1899
1750,1882,1954
1831,1857,1902
1903,1874,1781
1919,1904,1840
1904,1902,1869
1984,1891,1886
2083,1852,1780
1818,1863,1823
1744,1891,1911
1825,1904,1920
1905,1895,1894
2000,1874,1882
1984,1892,1867
1866,1883,1877
1872,1867,1843
1858,1854,1814
1967,1851,1842
2080,1887,1879
1878,1933,1974
1833,1887,1915
1839,1874,1899
1823,1879,1911
1846,1888,1895
1935,1901,1925
2064,1917,1847
1903,1857,1723
1873,1839,1793
1807,1840,1895
1893,1866,1918
1907,1872,1925
2053,1878,1936
2385,1952,1998
1935,1854,1779
1490,1811,1770
1629,1831,1847
1829,1861,1920
1949,1861,1916
1990,1881,1803
1930,1889,1776
1868,1872,1858
1914,1903,1964
1874,1895,1904
1875,1885,1861
1872,1873,1938
1962,1883,1984
2054,1862,1830
1898,1872,1799
1867,1872,1867
1861,1888,1963
1870,1898,1997
1852,1861,1937
1840,1823,1727
1918,1861,1771
2283,1942,1847
2159,1883,1874
1759,1795,1831
1570,1819,1833
1689,1851,1878
1846,1866,1997
1918,1843,1942
2035,1883,1891
2016,1907,1807
1905,1890,1871
1750,1851,1873
1815,1840,1810
1857,1851,1814
1979,1872,1836
2128,1882,1851
1906,1879,1881
1900,1878,1872
1811,1829,1957
1809,1841,1872
1833,1863,1824
1850,1845,1791
1871,1863,1820
1939,1857,1926
1872,1849,1938
2046,1899,1870
2057,1855,1763
1872,1844,1815
1829,1885,1858
1925,1861,1794
1798,1814,1783
1845,1856,1968
1796,1840,1967
1734,1834,1849
1833,1822,1847
1952,1857,1872
1916,1894,1763
1957,1883,1796
1931,1831,1739
1879,1822,1868
1967,1874,1968
1914,1877,1924
1779,1809,1717
1806,1821,1792
1831,1866,1917
1873,1867,1808
1868,1897,1865
1962,1878,1881
1904,1844,1957
1790,1822,1793
1785,1856,1741
1939,1863,1803
1936,1851,1863
1973,1839,1927
1850,1846,1896
1792,1878,1808
1847,1874,1814
1885,1879,1840
1910,1872,1764
1793,1846,1858
1807,1835,1886
1780,1855,1891
2043,1904,1891
2093,1893,1821
1732,1799,1694
1649,1794,1703
1722,1825,1854
1852,1849,1865
1904,1872,1887
1907,1879,1875
1932,1871,1938
1883,1831,1758
1900,1875,1783
1829,1885,2000
1807,1842,1881
1821,1840,1709
1891,1840,1721
1954,1888,1854
1879,1872,1871
1871,1843,1844
1876,1857,1890
1904,1873,1887
1921,1834,1718
1853,1799,1732
1823,1838,1903
1782,1842,1904
1842,1853,1874
1863,1872,1822
1895,1854,1777
1807,1895,1808
2108,1874,1786
1966,1856,1831
1889,1839,1872
1686,1812,1873
1779,1853,1904
1886,1850,1953
1936,1894,1857
1840,1882,1712
1792,1850,1698
1826,1835,1839
1871,1837,1841
1851,1841,1823
1869,1859,1822
1872,1858,1877
1862,1883,1883
1903,1873,1865
1921,1861,1915
1840,1807,1788
1747,1858,1809
1776,1872,1840
1887,1863,1753
1858,1840,1777
1926,1872,1875
1805,1867,1798
1691,1846,1840
1821,1808,1885
1855,1845,1866
1824,1878,1867
1952,1890,1890
1827,1826,1793
1870,1856,1891
1769,1843,1885
1865,1869,1832
2000,1890,1783
1815,1847,1759
1722,1840,1782
1807,1810,1808
1988,1845,1853
1815,1826,1831
1741,1851,1871
1769,1847,1813
1877,1863,1840
1962,1881,1893
1904,1859,1921
1833,1872,1818
1918,1874,1872
1881,1833,1744
1795,1868,1777
1762,1856,1809
1809,1838,1842
1889,1857,1872
1869,1872,1808
1807,1872,1853
1778,1811,1814
1797,1842,1906
1802,1868,1909
1850,1854,1807
1925,1855,1795
1909,1873,1862
1786,1889,1899
1776,1855,1895
1859,1873,1759
1986,1902,1733
1840,1861,1807
1843,1881,1898
1904,1873,1853
1840,1857,1875
1703,1818,1871
1686,1815,1799
1810,1844,1817
1933,1869,1957
1903,1852,1811
1794,1849,1706
1811,1867,1826
1966,1875,1823
1993,1877,1815
1808,1889,1861
1792,1901,1887
1808,1879,1935
1775,1843,1863
1807,1862,1810
1858,1864,1837
2000,1904,1894
1881,1837,1828
1789,1808,1825
1823,1813,1789
1878,1858,1837
1969,1883,1810
1985,1873,1910
1872,1824,1917
1754,1841,1795
1838,1879,1814
1829,1871,1862
1745,1835,1809
1744,1858,1904
1802,1872,1825
1831,1855,1826
1861,1861,1856
1936,1853,1820
1913,1848,1932
1821,1856,1919
1829,1869,1809
1904,1856,1765
1920,1874,1821
1901,1840,1899
1837,1840,1855
1839,1879,1839
1877,1888,1854
1910,1866,1801
1788,1836,1831
1792,1825,1859
1943,1859,1783
1840,1834,1750
1786,1827,1884
1840,1864,1949
2022,1872,1887
1856,1839,1835
1694,1840,1806
1729,1888,1803
1780,1856,1833
1869,1834,1919
2047,1894,1859
1936,1857,1779
1712,1840,1808
1708,1831,1763
1840,1859,1838
2032,1857,1825
2000,1877,1920
1840,1854,1914
1747,1823,1892
1773,1827,1744
1817,1882,1771
1971,1872,1865
1984,1844,1829
1787,1847,1794
1718,1885,1857
1750,1858,2000
1810,1872,1869
1904,1885,1789
1971,1914,1849
1937,1841,1791
1680,1791,1872
1712,1861,1891
1902,1884,1840
2021,1883,1781
1861,1845,1849
1860,1840,1837
1779,1865,1965
1713,1840,1868
1808,1853,1808
1910,1861,1831
2034,1903,1895
1889,1834,1770
1756,1843,1792
1803,1857,1839
1849,1872,1856
1805,1856,1872
1819,1851,1839
1891,1856,1855
1872,1872,1875
1855,1875,1844
1825,1895,1883
1835,1872,1942
1948,1879,1883
1903,1882,1910
1790,1841,1918
1763,1840,1874
1942,1863,1762
1834,1847,1761
1759,1835,1839
1831,1861,1846
1876,1855,1903
1939,1878,1874
1857,1919,1872
1857,1868,1824
1824,1883,1873
1840,1874,1906
1966,1933,1927
2031,1874,1835
1713,1776,1824
1792,1840,1761
1936,1849,1794
1783,1840,1803
1691,1842,1861
1732,1841,1893
1901,1885,1872
1993,1899,1839
1901,1894,1835
1899,1840,1808
1812,1835,1871
1750,1808,1904
1765,1900,1940
1919,1874,1763
1939,1904,1816
1979,1943,1857
1892,1911,1877
1773,1878,1840
1856,1838,1804
1791,1801,1883
1830,1855,1941
1838,1818,1863
1910,1898,1792
1930,1890,1792
1818,1843,1882
1803,1879,1859
1859,1899,1852
1981,1849,1808
1968,1891,1847
1872,1902,1870
1781,1837,1847
1728,1846,1947
1901,1887,1909
2097,1894,1911
1807,1840,1787
1619,1777,1755
1767,1837,1842
1866,1831,1776
1936,1897,1824
2034,1877,1895
1854,1858,1903
1875,1872,1889
1744,1814,1851
1744,1850,1883
1872,1841,1829
1879,1850,1798
1808,1869,1860
1843,1872,1861
1872,1911,1890
1872,1874,1833
1904,1851,1818
2047,1903,1901
1926,1852,1788
1849,1847,1808
1886,1853,1834
1793,1818,1872
1760,1895,1937
1819,1851,1898
1839,1842,1847
1919,1822,1814
1902,1870,1793
1877,1873,1868
1836,1867,1911
1842,1818,1809
1863,1834,1830
1915,1849,1840
1934,1822,1842
1849,1853,1881
1803,1840,1877
1758,1808,1831
1915,1913,1791
1917,1857,1780
1859,1856,1791
1779,1873,1856
1836,1890,1913
1929,1874,1925
2032,1911,1959
1915,1846,1818
1846,1872,1853
1941,1834,1823
1787,1775,1810
1837,1842,1917
1990,1885,1817
1919,1861,1745
1830,1811,1778
1845,1863,1778
1835,1829,1861
1903,1918,1973
1955,1937,1855
1872,1866,1861
1835,1815,1880
1741,1824,1786
1754,1809,1751
1862,1874,1901
2128,1920,1856
1995,1856,1781
