1889,1843,1822
1970,1899,1906
1862,1808,1963
1794,1794,1796
2175,1872,1859
1847,1885,1843
1678,1869,1823
1738,1811,1847
1782,1751,1789
2090,1857,1762
1840,1845,1910
1667,1802,1919
1775,1839,1927
1889,1848,1840
2225,1872,1781
2017,1831,1847
1619,1803,1879
1773,1872,1919
2058,1877,1904
1905,1814,1786
1731,1794,1794
1690,1819,1877
1865,1835,1861
1937,1790,1778
1931,1792,1799
1855,1904,1969
1893,1904,1923
1819,1806,1824
1920,1802,1823
1986,1821,1903
1868,1871,1930
1807,1838,1847
1920,1759,1663
1827,1822,1803
1818,1902,1953
1751,1887,1941
1849,1840,1863
2131,1830,1840
1855,1887,1889
1652,1765,1798
2044,1796,1857
2608,1938,1929
1708,1834,1759
1195,1783,1849
1456,1778,1877
2001,1886,1863
2176,1920,1808
2144,1872,1902
1845,1706,1860
1561,1823,1844
1943,1917,1806
2380,1809,1643
1629,1744,1827
1522,1877,1982
1835,1904,1911
2224,1872,1803
1859,1730,1689
1522,1815,1919
1859,1930,2022
1967,1802,1780
1831,1769,1791
1818,1885,1937
2109,1904,1872
2353,1901,1915
2012,1795,1735
1312,1787,1781
1383,1839,1903
1716,1803,1849
1878,1803,1801
2383,1955,1763
2222,1902,1879
1587,1735,1938
1520,1783,1856
1846,1907,1919
2223,1978,1963
2191,1787,1724
1590,1686,1745
1659,1877,1909
2100,2064,2033
2288,2017,1936
1926,1779,1696
1520,1811,1797
1643,1777,1865
2085,1926,1987
2194,1893,1856
1973,1887,1809
1686,1793,1730
1680,1808,1746
1952,1869,1910
1745,1827,1863
1885,1872,1712
1964,1885,1923
1969,1789,1915
1510,1739,1815
1586,1845,1787
1866,1861,1841
1975,1799,1856
1994,1882,1939
1913,1968,1915
1796,1853,1810
1765,1808,1843
1869,1863,1895
2617,1999,1968
2539,1773,1625
1330,1675,1664
1125,1858,1935
1611,1936,1953
1940,1872,1840
1879,1794,1734
1859,1867,1821
2013,1956,1899
1979,1877,1942
1743,1792,1831
1740,1840,1773
1829,1895,1808
1843,1824,1840
1846,1791,1829
1969,1933,1947
2160,1942,1935
1891,1792,1737
1609,1785,1734
1749,1875,1870
1907,1916,1907
1885,1856,1875
1840,1824,1827
1893,1886,1840
1939,1919,1845
1893,1857,1840
1872,1840,1838
1893,1882,1831
1909,1904,1898
1862,1839,1840
1855,1839,1851
1921,1889,1869
1959,1917,1840
1866,1841,1809
1840,1825,1861
1917,1889,1884
1949,1907,1878
1886,1842,1838
1873,1826,1829
1946,1881,1898
1968,1895,1893
1897,1831,1846
1875,1806,1839
1942,1872,1857
1974,1897,1892
1919,1840,1850
1889,1828,1856
1957,1896,1870
1994,1935,1936
1936,1911,1891
1904,1918,1862
1958,2002,1915
2000,2073,1948
1939,2034,1873
1924,2031,1858
1989,2113,1891
2022,2159,1953
1963,2127,1904
1936,2130,1873
2015,2224,1953
2063,2286,1973
1986,2242,1915
1957,2233,1867
2027,2303,1968
2065,2349,1936
1991,2294,1891
1968,2281,1872
2038,2352,1943
2078,2399,1965
2012,2352,1879
1984,2335,1830
2064,2405,1953
2112,2446,1998
2043,2387,1913
2017,2362,1904
2094,2423,1968
2132,2467,1973
2074,2422,1927
2047,2387,1923
2112,2469,1975
2153,2512,1984
2092,2454,1947
2075,2432,1959
2159,2496,2000
2193,2535,2032
2130,2469,1967
2102,2428,1969
2177,2486,2037
2211,2518,2100
2145,2447,2032
2119,2407,1936
2192,2464,2002
2236,2485,2077
2154,2420,1968
2124,2387,1968
2195,2443,2003
2256,2464,2079
2189,2411,1989
2166,2367,2018
2229,2429,2098
2261,2469,2097
2209,2401,2032
2177,2367,2036
2241,2399,2099
2277,2442,2081
2206,2369,2003
2183,2327,2058
2256,2371,2119
2289,2399,2109
2222,2342,2064
2186,2308,2061
2256,2365,2098
2288,2381,2113
2224,2310,2093
2193,2279,2065
2269,2335,2121
2305,2352,2128
2222,2272,2058
2182,2242,2064
2262,2310,2153
2320,2341,2149
2241,2256,2078
2204,2222,2093
2269,2288,2129
2306,2319,2138
2236,2238,2075
2207,2211,2071
2273,2262,2131
2309,2295,2112
2242,2230,2077
2203,2179,2047
2260,2224,2127
2292,2263,2095
2227,2202,2084
2190,2160,2069
2251,2209,2108
2301,2237,2144
2240,2171,2092
2204,2143,2014
2271,2193,2139
2304,2221,2143
2229,2142,2081
2188,2111,2067
2263,2165,2132
2299,2186,2150
2224,2118,2085
2192,2075,2064
2246,2128,2112
2288,2159,2141
2224,2099,2096
2175,2064,2065
2234,2103,2106
2270,2133,2128
2208,2084,2078
2176,2055,2058
2230,2095,2115
2263,2114,2129
2197,2052,2064
2161,2026,2040
2222,2080,2091
2255,2105,2115
2192,2043,2058
2160,2022,2045
2206,2061,2095
2237,2081,2101
2177,2021,2042
2147,1995,2021
2205,2032,2074
2241,2059,2107
2171,2003,2043
2132,1975,2008
2192,2018,2077
2214,2032,2096
2187,1982,2037
2109,1945,2010
2133,1989,2065
2243,2027,2109
2186,1971,2037
2091,1935,2011
2187,1970,2061
2229,1997,2090
2149,1948,2021
2163,1913,2000
2160,1947,2062
2176,1974,2073
2122,1929,2019
2102,1914,1994
2175,1939,2042
2186,1964,2067
2096,1927,2016
2068,1902,1994
2128,1936,2032
2160,1971,2065
2121,1914,2010
2073,1882,1980
2128,1914,2023
2149,1936,2047
2099,1898,2004
2039,1875,1985
2104,1906,2026
2151,1929,2035
2106,1885,1981
2065,1854,1963
2101,1902,2018
2160,1931,2054
2070,1879,1997
2034,1850,1963
2063,1891,2011
2132,1907,2035
2071,1866,1985
2044,1858,1957
2094,1889,2000
2119,1915,2037
2068,1875,1984
2013,1854,1954
2041,1881,1990
2078,1904,2016
2065,1861,1973
2067,1841,1957
2071,1875,2000
2096,1904,2027
2045,1856,1968
2004,1830,1942
2042,1865,1968
2095,1899,2011
1994,1840,1965
2046,1823,1935
2017,1869,1979
2096,1899,2000
1990,1851,1949
2011,1815,1921
2064,1863,1970
2032,1879,1998
1984,1840,1948
2003,1822,1920
2001,1863,1968
2070,1899,2026
2045,1872,1991
2009,1861,1968
2026,1914,2018
2125,1950,2062
2038,1926,2023
2039,1928,2031
2179,1999,2128
2256,2039,2175
2203,2021,2132
2139,2005,2111
2175,2065,2175
2265,2109,2224
2257,2065,2174
2160,2043,2144
2272,2077,2183
2315,2128,2228
2261,2096,2195
2239,2073,2163
2221,2113,2206
2304,2139,2240
2260,2097,2192
2205,2069,2160
2276,2121,2208
2263,2131,2231
2263,2097,2190
2260,2064,2167
2253,2102,2209
2306,2141,2238
2256,2098,2185
2228,2073,2158
2257,2112,2193
2339,2136,2225
2251,2092,2162
2224,2062,2130
2271,2102,2190
2309,2130,2230
2245,2079,2173
2208,2037,2130
2251,2086,2173
2282,2113,2207
2227,2067,2158
2158,2022,2127
2197,2080,2164
2267,2112,2189
2187,2063,2140
2186,2014,2105
2211,2061,2134
2211,2097,2176
2194,2043,2125
2167,2003,2092
2197,2034,2123
2224,2064,2151
2146,2009,2101
2159,1979,2070
2202,2013,2112
2191,2038,2133
2178,2004,2099
2130,1960,2059
2150,2000,2094
2253,2027,2121
2147,1984,2061
2112,1952,2032
2163,1984,2081
2192,2009,2112
2160,1977,2055
2067,1937,2014
2139,1968,2042
2165,1991,2074
2133,1957,2039
2110,1929,2013
2203,1957,2032
2129,1983,2064
2112,1942,2013
2084,1917,1979
2096,1942,2015
2145,1968,2039
2096,1927,2001
1970,1897,1972
2095,1925,2003
2115,1959,2044
2071,1921,1995
2032,1886,1954
2082,1919,1991
2143,1941,1997
2035,1891,1948
2027,1854,1954
2027,1895,2003
2112,1931,2010
2054,1879,1942
2032,1857,1945
2053,1888,1999
2083,1909,1999
2054,1858,1964
2011,1819,1926
2065,1855,1968
2063,1877,1998
1986,1826,1935
1943,1787,1890
1991,1819,1934
2045,1857,1981
1994,1814,1926
1937,1769,1878
1983,1808,1915
2015,1829,1940
1968,1783,1893
1927,1755,1861
1971,1787,1899
2001,1810,1935
1955,1775,1883
1920,1743,1845
1950,1774,1872
1983,1797,1908
1936,1761,1865
1905,1724,1829
1945,1759,1886
1986,1787,1905
1939,1740,1845
1895,1707,1815
1932,1736,1856
1968,1771,1890
1920,1732,1846
1887,1706,1808
1923,1733,1854
1954,1764,1887
1906,1712,1823
1861,1669,1774
1904,1717,1797
1943,1793,1863
1890,1744,1867
1838,1705,1825
1872,1729,1840
1929,1754,1864
1903,1718,1811
1857,1808,1793
1902,1952,1859
1898,1675,1840
1837,1561,1771
1807,1575,1743
1842,1649,1801
1900,1682,1854
1841,1660,1793
1798,1638,1757
1881,1733,1846
1889,1759,1842
1823,1644,1755
1815,1616,1743
1968,1769,1763
1872,1636,1776
1728,1587,1779
1808,1815,1782
1956,1782,1795
1808,1527,1782
1713,1503,1744
1712,1535,1712
1777,1617,1748
1826,1674,1793
1779,1653,1750
1744,1685,1716
1815,1793,1751
1885,1609,1750
1805,1595,1779
1761,1650,1744
1892,1535,1755
2030,1766,1809
1770,1792,1736
1586,1424,1675
1695,1562,1669
1879,1617,1700
1722,1658,1767
1618,1553,1730
1683,1559,1744
1712,1629,1758
1680,1609,1711
1730,1628,1774
1759,1649,1792
1690,1629,1731
1606,1590,1648
1629,1586,1667
1692,1759,1731
1680,1616,1743
1643,1515,1699
1631,1499,1669
1686,1638,1728
1744,1659,1774
1679,1593,1712
1638,1581,1679
1664,1648,1766
1703,1654,1769
1648,1616,1709
1646,1745,1694
1710,1698,1756
1712,1616,1774
1648,1642,1716
1591,1637,1696
1658,1690,1746
1767,1809,1808
1671,1709,1742
1609,1696,1722
1633,1754,1744
1710,1835,1773
1644,1756,1699
1584,1682,1660
1639,1761,1712
1696,1849,1764
1654,1830,1735
1622,1809,1714
1721,1906,1795
1792,1969,1850
1695,1889,1774
1553,1766,1655
1630,1851,1714
1695,1943,1751
1629,1891,1695
1598,1872,1689
1679,1919,1754
1722,1953,1771
1667,1904,1722
1627,1891,1717
1652,1924,1734
1721,1957,1783
1680,1903,1751
1614,1875,1695
1674,1937,1738
1729,1967,1776
1673,1918,1721
1650,1852,1712
1721,1915,1777
1737,1919,1777
1661,1855,1725
1591,1808,1680
1650,1883,1729
1721,1919,1771
1695,1861,1741
1678,1918,1733
1722,2027,1786
1718,1894,1759
1665,1706,1709
1638,1717,1698
1735,1957,1749
1919,2036,1737
1657,1790,1734
1577,1701,1715
1615,1786,1752
1750,1926,1777
1712,1998,1707
1680,1889,1741
1662,1814,1776
1697,1829,1789
1648,1856,1738
1635,1869,1725
1680,1904,1776
1712,1856,1776
1671,1779,1735
1621,1830,1707
1669,1867,1759
1739,1889,1808
1691,1888,1753
1643,1810,1710
1694,1878,1755
1770,1889,1808
1689,1819,1730
1628,1712,1726
1839,1744,1811
1822,1869,1763
1582,1855,1739
1534,1757,1750
1662,1855,1804
1809,1897,1869
1743,1834,1778
1623,1713,1725
1650,1754,1742
1744,1834,1763
1703,1811,1782
1649,1764,1757
1698,1789,1791
1739,1897,1819
1680,1817,1759
1712,1776,1791
1810,1986,1863
1715,1822,1798
1591,1606,1661
1729,1690,1764
1936,1885,1918
1773,1766,1854
1520,1680,1671
1507,1715,1619
1702,1829,1783
1875,2007,1873
1669,1776,1757
1581,1760,1711
1706,1998,1789
1825,2176,1847
1845,2403,1888
1870,2599,1919
1600,2801,1777
1465,3230,1594
1620,3854,1646
1635,4095,1687
1683,4095,1781
1777,4095,1877
1584,4095,1681
1527,4095,1566
1556,4095,1653
1600,4095,1693
1606,4095,1679
1595,4095,1697
1585,4095,1677
1564,4095,1606
1674,4095,1600
1535,4095,1579
1531,4095,1627
1739,4095,1751
1576,4095,1666
1436,4095,1471
1673,4095,1605
1605,4095,1674
1427,4095,1428
1535,4095,1472
1689,4095,1648
1531,4095,1654
1475,4095,1643
1506,4095,1583
1610,4095,1535
1535,4095,1465
1427,4095,1425
1558,4095,1580
1826,4095,1765
1626,4095,1600
1186,4095,1363
1361,4095,1366
1581,4095,1619
1568,4095,1726
1641,4095,1643
1424,4095,1379
1475,4095,1403
1493,4095,1490
1510,4095,1615
1739,4095,1712
1273,4095,1269
1168,4095,1186
1333,4095,1306
1326,4095,1424
1485,4095,1395
1632,4095,1559
1609,4095,1388
1088,4095,1104
917,3702,1205
1164,3461,1326
1362,3171,1358
1168,3003,1101
1257,2960,1242
1283,2914,1299
1291,2902,1323
930,2559,1168
949,2474,1111
1173,2469,1139
1358,2395,1217
1294,2258,1175
1083,2218,1266
1021,2123,1264
1017,2092,1106
1018,1911,1040
1345,1969,1207
1328,1905,1286
1158,1675,1204
983,1526,1235
1023,1488,1310
1159,1486,1266
1232,1387,1246
1197,1168,1151
1101,1193,1171
1133,1121,1225
1089,967,1217
1039,803,1200
983,879,1247
1214,843,1404
1371,784,1315
1216,533,1187
1198,579,1391
1488,544,1385
1243,391,1264
944,274,1293
973,144,1117
1115,163,1244
1113,156,1280
1048,66,1289
1023,46,1370
1181,25,1402
1456,0,1441
1520,0,1424
1184,0,1349
951,0,1296
1069,0,1277
1126,0,1214
1171,0,1360
1318,0,1577
1359,0,1348
1223,0,1311
1265,0,1577
1279,0,1520
1155,0,1294
1232,0,1433
1303,0,1343
1303,0,1358
1280,0,1456
1191,0,1525
1054,0,1501
1215,0,1489
1486,0,1520
1526,0,1479
1340,0,1472
1408,0,1482
1286,0,1510
1062,0,1503
1235,0,1611
1439,0,1456
1360,0,1302
1286,0,1371
1233,0,1643
1280,0,1730
1341,0,1627
1456,0,1535
1707,0,1755
1423,0,1485
1291,0,1440
1351,0,1584
1471,0,1671
1291,0,1654
1258,0,1639
1429,0,1710
1453,0,1488
1667,0,1519
1382,0,1594
1134,0,1595
1259,0,1675
1535,0,1701
1742,0,1781
1776,0,1690
1331,0,1535
1399,0,1653
1559,0,1776
1149,0,1535
1160,0,1625
1454,0,1777
1644,0,1759
1616,0,1764
1553,0,1647
1667,0,1619
1685,0,1648
1351,0,1722
1299,0,1773
1705,0,1804
1800,0,1809
1328,0,1727
1297,0,1734
1535,0,1710
1936,0,1845
1641,0,1787
1439,0,1779
1534,0,1775
1600,0,1612
1607,0,1662
1600,0,1859
1423,0,1857
1557,0,1804
1711,0,1727
1645,0,1872
1626,0,1873
1648,0,1750
1619,0,1682
1510,0,1681
1618,106,1862
1697,110,1855
1721,48,1648
1694,81,1857
1744,165,1974
1679,194,1953
1535,165,1798
1472,134,1722
1639,272,1837
1791,272,1845
1579,195,1751
1599,262,1785
1708,366,1860
1814,384,1842
1808,314,1762
1693,330,1906
1691,432,1910
1731,510,1849
1781,454,1802
1695,480,1914
1728,566,1904
1780,499,1808
1841,511,1837
1671,617,1999
1695,665,1999
1764,701,1814
1935,688,1813
1616,628,1825
1552,702,1855
1652,715,1861
1821,747,1869
1918,826,1905
2149,999,2053
2095,864,2032
1371,645,1663
1344,757,1737
1775,997,1939
1936,993,1911
1936,906,1843
1895,944,1895
1773,1038,1925
1756,1095,1957
2154,1179,2073
1907,961,1887
1437,1023,1799
1506,1115,1868
1853,1073,1844
2000,1121,1839
1910,1238,1999
1738,1251,1969
1777,1229,1835
2207,1424,2135
2077,1371,2080
1618,1159,1687
1566,1199,1727
1787,1328,1983
1878,1389,2019
1901,1328,1915
1879,1355,1872
1932,1424,1950
1901,1491,1937
1771,1392,1747
1735,1391,1794
1981,1534,2017
1957,1495,2027
1816,1515,1931
1754,1471,1851
1827,1491,1901
1902,1583,2015
1884,1535,1898
1893,1519,1811
2098,1663,1954
2091,1664,1918
1822,1569,1903
1744,1558,1869
1870,1616,1904
1885,1728,1969
1707,1678,1921
1781,1650,1882
1927,1673,1939
2158,1823,2065
2019,1749,1749
1838,1673,1731
1890,1776,2033
1974,1812,2061
1839,1808,1953
1735,1753,1813
1982,1801,1874
2121,1840,1830
1922,1853,1889
1825,1818,1915
1840,1882,1919
1892,1941,1958
2042,1983,2014
1943,1893,1873
1851,1819,1750
2031,1963,1917
1978,1951,1957
1906,1935,1908
1899,1915,1835
1954,1951,1965
2063,2000,1975
1842,1999,1903
1842,2014,1956
1975,2046,1931
1944,2010,1808
1822,1962,1862
1852,1998,1907
1945,2091,2002
1904,2069,1860
1938,2065,1840
1987,2071,1854
2016,2114,1861
1918,2109,1893
1897,2043,1855
1920,2064,1930
2077,2193,1961
2012,2160,1847
1936,2069,1808
2112,2117,2038
1883,2147,1936
1779,2137,1856
1929,2112,1879
2222,2150,1803
2035,2271,1939
1834,2212,1982
1808,2102,1756
1827,2100,1808
1891,2153,1936
1901,2181,1902
1867,2185,1887
1994,2215,1887
2158,2255,1904
2127,2271,1940
2033,2140,1763
1931,2208,1790
2033,2348,2102
1786,2188,1901
1797,2118,1821
1936,2192,1898
1946,2265,1855
1978,2303,1855
1919,2221,1890
1957,2193,1856
2160,2259,1824
2127,2316,1908
2046,2301,2021
1705,2166,1861
1713,2241,1850
1863,2283,1850
2096,2306,1936
2128,2269,1906
1791,2228,1855
1781,2243,1817
1840,2224,1749
2089,2266,1829
2416,2378,1963
2003,2286,1927
1616,2230,1879
1715,2252,1840
1948,2303,1896
2266,2363,1890
2171,2215,1879
1754,2208,1890
1801,2330,1893
2062,2301,1745
1975,2254,1859
1943,2313,2016
2061,2334,1872
2017,2333,1851
1738,2231,1823
1759,2213,1793
2191,2396,1981
2221,2329,1968
1857,2155,1666
1659,2178,1719
1936,2327,1923
2007,2383,1975
1968,2263,1827
2085,2289,1872
2173,2384,1980
1975,2349,1975
1726,2226,1799
1749,2182,1791
2041,2311,1766
2086,2320,1787
1841,2282,1973
1905,2288,2029
2198,2348,1989
2030,2256,1783
1854,2225,1686
1849,2289,1786
2064,2384,1962
2074,2322,1981
1787,2159,1823
1831,2243,1873
2003,2320,1899
2105,2345,1907
2047,2259,1917
1911,2229,1818
2106,2329,1861
2047,2316,1873
1967,2213,1806
1944,2256,1895
1971,2291,1990
1882,2257,1855
1936,2221,1837
1968,2240,1967
1919,2320,1961
1961,2287,1793
1919,2237,1765
2100,2309,1949
2150,2259,1947
1921,2259,1918
1902,2274,1937
2061,2262,1885
2097,2269,1915
1921,2243,1815
1812,2198,1831
1974,2282,1938
2167,2307,1862
2054,2245,1872
1777,2224,1888
1886,2272,1926
2053,2277,1968
2083,2262,1948
2078,2200,1905
2160,2194,1851
1983,2224,1711
1777,2196,1628
1872,2195,1838
1978,2203,2014
1982,2278,2031
2137,2304,2036
2181,2214,1823
1932,2120,1808
2234,2310,1982
2010,2256,1766
1623,2128,1762
1698,2164,1866
1904,2224,1897
2160,2245,1879
2083,2167,1855
1874,2144,1882
1924,2221,1863
2063,2226,1916
1968,2211,1911
1904,2192,1885
2039,2222,1968
2288,2247,1856
2223,2126,1739
1974,2122,1927
1751,2192,1895
1742,2190,1785
1871,2163,1873
1979,2185,1921
2096,2205,1842
2333,2207,1758
2129,2057,1678
1760,2106,1875
1895,2258,1999
1937,2162,1900
1948,2110,1842
2067,2096,1886
2109,2125,1827
2041,2224,1917
1739,2101,1840
1774,2089,1846
2047,2165,1870
2287,2169,1865
1968,2068,1865
1875,2081,1808
2000,2165,1916
2091,2176,1934
2041,2063,1878
1981,2059,1843
1910,2099,1798
1793,2110,1878
1872,2092,1891
1985,2093,1896
2191,2133,1874
2330,2169,1919
2099,2057,1803
1755,1932,1734
1812,2091,1913
1958,2135,1953
1829,2061,1839
1794,2032,1792
2117,2146,1855
2182,2087,1823
1868,2025,1904
1937,2032,1907
2141,2112,1863
2150,2119,1887
1989,2088,1999
1840,1962,1935
1899,2031,1808
1910,2047,1731
1803,2017,1838
1877,2021,1865
2085,2107,1920
2064,2055,1862
1968,1973,1794
1974,2021,1883
2235,2156,1980
2006,2047,1900
1905,1978,1861
2141,1993,1845
2155,2032,1878
1791,1984,1849
1744,1964,1856
1860,2007,1936
1997,2037,1808
1998,2046,1767
1971,2007,1829
2026,1998,1919
2164,2038,1933
1968,1983,1842
1897,1983,1869
2075,1969,1855
2157,2104,1973
2029,2031,1842
1706,1901,1751
1825,1935,1786
2091,2007,1872
1974,1968,1898
1888,1933,1898
2027,2038,1951
2167,2046,1918
2071,1966,1755
1872,1879,1782
1819,1893,1791
1846,1981,1883
1887,2005,1961
1975,1946,1879
2139,1985,1885
2161,1978,1879
1942,1963,1887
1837,1931,1820
2021,1980,1849
2141,1964,1853
1777,1936,1789
1748,1882,1856
1990,1891,1870
2032,1955,1904
1959,1970,1874
1887,1920,1853
2107,1934,1878
2144,2013,1928
1941,1966,1829
1809,1854,1741
1853,1890,1845
2034,1984,1942
2027,1919,1879
1964,1933,1859
1879,1915,1808
1938,1917,1854
2094,1971,1917
1927,1907,1824
1885,1861,1775
1935,1913,1881
2007,1906,1901
1878,1898,1854
1880,1858,1778
1899,1957,1905
1981,1994,1882
2026,1924,1861
1968,1870,1851
1961,1906,1841
1971,1942,1881
2017,1955,1904
1897,1898,1821
1967,1887,1905
2046,1898,1810
1753,1833,1767
1808,1863,1808
1975,1968,1957
2128,1963,1887
1979,1872,1802
1806,1855,1891
1889,1901,1973
2035,1959,1901
1987,1918,1813
2003,1823,1773
1942,1854,1762
1871,1867,1751
1743,1870,1862
1833,1872,1863
2033,1923,1962
2000,1914,1904
1920,1866,1808
1863,1849,1843
1925,1915,1904
2032,1934,1890
1993,1893,1822
1968,1858,1775
1891,1866,1766
1824,1840,1760
1817,1802,1827
1891,1824,1831
1984,1909,1911
2063,1889,1840
1922,1889,1867
1884,1805,1838
1921,1906,1890
1984,1904,1847
1749,1859,1798
1775,1841,1817
1981,1897,1855
2061,1872,1791
2032,1804,1701
1951,1839,1833
2026,1952,1968
1831,1862,1874
1680,1783,1792
1795,1822,1823
1933,1910,1885
2133,1937,1854
1899,1800,1819
1797,1812,1790
1897,1827,1773
1900,1835,1797
1889,1834,1795
1948,1871,1879
1952,1904,1966
1931,1893,1872
1904,1840,1758
1878,1841,1835
1915,1823,1852
1909,1840,1840
1877,1861,1849
1859,1837,1824
1890,1871,1825
1911,1837,1764
2013,1825,1765
2032,1870,1877
1949,1870,1879
1852,1811,1771
1826,1821,1793
1811,1840,1899
1974,1872,1907
1887,1836,1840
1787,1805,1753
1747,1803,1827
1919,1890,1940
2113,1902,1923
2155,1789,1721
1754,1766,1755
1669,1861,1872
1825,1910,1911
2000,1839,1779
1764,1761,1755
1853,1840,1920
1850,1859,1958
1797,1779,1777
1910,1831,1798
2123,1877,1861
1936,1829,1814
1802,1798,1834
1894,1825,1842
1878,1872,1883
1890,1895,1886
1938,1869,1869
1898,1790,1776
1837,1808,1881
1869,1846,1856
1790,1759,1700
1856,1837,1834
1894,1876,1909
1796,1859,1907
1851,1791,1856
2039,1840,1839
2123,1921,1872
1789,1863,1867
1696,1807,1824
1883,1808,1824
1938,1854,1840
1975,1858,1823
1947,1814,1863
1897,1822,1854
1827,1818,1805
1713,1834,1852
1719,1830,1872
1946,1840,1910
2054,1904,1891
2081,1873,1757
1925,1851,1802
1777,1811,1838
1753,1827,1866
1866,1842,1867
1839,1780,1829
1776,1825,1820
1888,1903,1911
2117,1897,1875
1936,1803,1831
1730,1843,1814
1854,1903,1879
1919,1869,1904
1921,1808,1791
1806,1744,1729
2064,1891,1934
1909,1877,1901
1659,1786,1819
1743,1795,1858
1999,1874,1923
1915,1862,1876
1714,1810,1797
1726,1823,1758
2000,1963,1899
2134,1926,1979
1769,1749,1773
1754,1777,1649
1912,1886,1828
1854,1874,1935
1736,1814,1888
1773,1781,1845
2061,1878,1876
2192,1899,1863
1847,1790,1762
1647,1782,1769
1776,1859,1897
1981,1873,1950
1918,1831,1776
1858,1791,1743
1828,1858,1856
1907,1862,1879
1820,1776,1776
1830,1814,1843
1885,1903,1918
1840,1874,1856
1827,1805,1744
1754,1785,1783
1882,1862,1903
1935,1881,1904
1923,1856,1888
1887,1807,1744
1872,1856,1810
1922,1860,1847
1825,1822,1824
1776,1818,1858
1885,1904,1897
1940,1899,1863
1792,1769,1796
1750,1797,1779
1781,1815,1825
1899,1887,1853
1931,1874,1842
1850,1791,1801
1888,1872,1859
1828,1907,1895
1783,1831,1842
1769,1808,1792
1938,1863,1882
2009,1938,1911
1877,1787,1763
1751,1741,1694
1862,1903,1904
1873,1954,1953
1709,1829,1818
1766,1824,1805
1870,1873,1861
2055,1875,1788
1838,1775,1750
1761,1767,1784
1795,1875,1921
1931,1951,1938
1821,1846,1813
1824,1776,1834
1981,1863,1873
1888,1871,1790
1713,1827,1754
1664,1823,1798
1938,1920,1917
2224,1929,1955
1824,1750,1681
1647,1801,1814
1678,1867,1879
1819,1887,1894
1865,1811,1797
1886,1807,1782
1904,1872,1776
1891,1846,1796
1763,1791,1845
1747,1808,1824
1875,1907,1890
1923,1886,1853
1867,1823,1837
1776,1770,1826
1809,1839,1765
1776,1841,1844
1744,1821,1843
1781,1840,1849
1874,1919,1904
2055,1919,1941
1968,1829,1808
1801,1776,1717
1783,1825,1898
1797,1835,1858
1763,1785,1722
1819,1803,1811
2011,1890,1869
1886,1840,1847
1655,1782,1789
1751,1799,1882
1875,1865,1881
1919,1906,1819
1823,1861,1835
1846,1829,1861
2016,1837,1821
1949,1867,1787
1750,1801,1832
1782,1851,1826
1952,1907,1861
1840,1871,1812
1742,1788,1776
1719,1817,1842
1785,1873,1904
1937,1898,1871
2128,1916,1829
2161,1866,1759
1686,1802,1771
1563,1765,1852
1578,1815,1813
1774,1818,1874
2005,1927,1863
2043,1840,1838
1737,1735,1778
1740,1751,1808
1819,1872,1904
1856,1969,1821
2000,1915,1822
2030,1870,1818
1759,1825,1905
1749,1854,1865
1842,1808,1743
1819,1830,1869
1808,1899,1971
1807,1885,1838
1794,1823,1728
1758,1830,1830
1883,1856,1936
1901,1904,1839
1837,1804,1717
1919,1853,1786
2032,1966,1931
1862,1854,1884
1679,1771,1846
1733,1789,1827
1941,1857,1858
1890,1880,1844
1859,1877,1883
1936,1855,1891
1871,1883,1802
1725,1819,1757
1725,1791,1755
1872,1834,1859
1968,1886,1949
1892,1865,1891
1872,1810,1797
2015,1866,1805
1843,1844,1781
1671,1858,1850
1735,1873,1889
1818,1824,1822
1887,1887,1821
1878,1877,1846
1844,1885,1851
1961,1882,1919
1840,1818,1881
1968,1969,1805
1940,1835,1821
1827,1792,1886
1730,1911,1878
1743,1908,1850
1807,1760,1786
1910,1838,1843
1889,1891,1890
1861,1901,1872
1780,1881,1777
1741,1808,1802
1936,1936,1878
2128,1937,1845
2003,1827,1865
1795,1806,1904
1767,1853,1851
1801,1876,1930
1795,1866,1837
1766,1813,1829
1837,1919,1871
1881,1856,1879
1846,1797,1838
1911,1866,1857
1909,1969,1879
1920,1950,1840
1986,1949,1894
1899,1870,1835
1973,1893,1898
1813,1902,1869
1599,1851,1855
1726,1809,1889
1926,1861,1855
1983,1951,1849
1950,1881,1855
1811,1798,1760
1835,1818,1830
1879,1909,1886
1872,1858,1823
1808,1849,1817
1902,1872,1843
2043,1926,1841
1904,1904,1879
1769,1879,1911
1823,1863,1898
1951,1889,1872
2023,1814,1747
1728,1833,1854
1697,1872,1906
1806,1852,1855
1926,1863,1803
2007,1873,1897
1981,1901,1779
1787,1840,1813
1746,1824,1805
1847,1846,1887
1900,1853,1888
2019,1975,1895
1872,1805,1771
1776,1825,1890
1831,1968,1939
1837,1890,1882
1890,1838,1765
1802,1782,1733
2006,1875,1879
1963,1883,1885
1667,1817,1817
1727,1805,1834
1948,1852,1886
2095,1998,1871
2023,1857,1806
1729,1829,1840
1773,1887,1970
1842,1899,1888
1883,1856,1778
1933,1835,1801
1814,1899,1872
1872,1904,1942
1831,1853,1872
1904,1783,1739
2006,1841,1791
1846,1927,1970
1852,1872,1899
1818,1814,1826
1843,1875,1785
1830,1919,1890
1804,1850,1873
1819,1824,1836
1879,1840,1835
1866,1867,1872
1886,1869,1907
1915,1847,1808
1887,1866,1846
1849,1824,1777
1776,1808,1762
1783,1845,1916
1911,1870,2023
2065,1950,1952
1853,1899,1760
1691,1877,1778
1854,1917,1847
1984,1922,1875
1982,1865,1861
1868,1806,1834
1941,1920,1894
1814,1850,1824
1835,1835,1801
1934,1798,1781
1869,1861,1931
1786,1859,1936
1792,1840,1791
1742,1830,1795
1839,1901,1904
1984,1903,1911
1928,1843,1879
1967,1874,1945
1840,1869,1853
1778,1870,1777
1840,1825,1783
1850,1825,1841
1985,1895,1941
1963,1872,1840
1971,1849,1833
