1703,1715,1776
1747,1749,1776
1744,1749,1745
1697,1715,1737
1696,1725,1770
1735,1755,1778
1739,1756,1757
1701,1728,1758
1703,1730,1778
1734,1761,1776
1730,1745,1755
1685,1725,1744
1699,1730,1776
1747,1765,1776
1731,1756,1744
1687,1729,1746
1696,1744,1789
1742,1775,1791
1727,1770,1760
1691,1730,1755
1686,1735,1761
1732,1775,1777
1739,1777,1762
1695,1741,1761
1684,1744,1783
1738,1777,1783
1730,1781,1774
1687,1746,1759
1697,1759,1797
1740,1793,1805
1729,1785,1766
1698,1747,1755
1696,1753,1783
1743,1791,1790
1738,1795,1762
1687,1759,1761
1687,1767,1783
1739,1799,1792
1734,1801,1762
1691,1767,1746
1695,1774,1791
1742,1803,1808
1732,1804,1775
1683,1773,1755
1693,1771,1797
1731,1808,1799
1728,1810,1765
1681,1775,1756
1683,1775,1788
1731,1806,1795
1739,1810,1776
1689,1773,1761
1696,1773,1785
1730,1810,1791
1728,1810,1771
1685,1776,1757
1693,1782,1791
1728,1807,1797
1723,1801,1758
1675,1771,1745
1690,1779,1793
1740,1822,1801
1727,1826,1760
1677,1783,1755
1679,1779,1781
1729,1818,1799
1739,1808,1775
1679,1763,1751
1680,1776,1776
1728,1815,1796
1741,1837,1781
1693,1806,1770
1680,1785,1790
1728,1813,1798
1731,1814,1781
1682,1799,1764
1683,1789,1782
1731,1827,1808
1746,1824,1799
1682,1801,1773
1685,1807,1797
1734,1824,1803
1738,1845,1780
1684,1795,1771
1679,1765,1790
1718,1805,1802
1725,1819,1774
1680,1786,1759
1685,1791,1786
1743,1833,1808
1738,1829,1783
1692,1805,1777
1689,1797,1798
1744,1830,1809
1744,1830,1777
1684,1791,1765
1689,1791,1793
1733,1821,1807
1745,1839,1789
1687,1806,1764
1675,1818,1787
1741,1844,1825
1744,1850,1801
1687,1786,1775
1687,1787,1795
1737,1838,1821
1728,1838,1791
1679,1802,1775
1686,1808,1808
1726,1834,1818
1725,1825,1785
1680,1794,1760
1680,1794,1787
1739,1847,1822
1748,1859,1808
1691,1813,1779
1681,1793,1807
1732,1841,1812
1739,1854,1794
1680,1803,1768
1681,1804,1797
1723,1851,1808
1735,1851,1786
1693,1808,1776
1687,1808,1800
1740,1841,1822
1750,1840,1798
1699,1817,1776
1706,1828,1799
1758,1871,1829
1749,1855,1808
1690,1791,1778
1683,1792,1805
1734,1857,1819
1744,1866,1795
1691,1802,1769
1690,1801,1807
1751,1849,1829
1758,1866,1792
1706,1819,1781
1705,1814,1809
1749,1851,1830
1749,1854,1797
1682,1807,1769
1695,1821,1808
1753,1863,1831
1757,1855,1805
1697,1827,1772
1690,1850,1797
1741,1864,1821
1749,1872,1808
1693,1826,1774
1683,1829,1798
1759,1867,1817
1760,1866,1797
1706,1824,1782
1706,1848,1808
1755,1868,1814
1760,1856,1799
1702,1821,1779
1699,1819,1808
1758,1872,1834
1767,1894,1814
1717,1841,1799
1709,1822,1813
1769,1854,1823
1775,1859,1798
1706,1835,1770
1695,1842,1795
1760,1889,1831
1776,1886,1803
1712,1838,1775
1702,1835,1803
1743,1875,1831
1760,1882,1809
1719,1840,1798
1713,1841,1817
1775,1876,1840
1771,1872,1808
1703,1832,1765
1705,1842,1803
1783,1895,1840
1791,1887,1820
1722,1824,1792
1728,1844,1813
1783,1905,1847
1795,1882,1823
1728,1838,1786
1719,1839,1807
1782,1888,1838
1797,1890,1820
1730,1856,1791
1725,1856,1810
1795,1904,1852
1798,1907,1830
1729,1841,1783
1719,1845,1823
1790,1910,1857
1806,1911,1833
1733,1852,1786
1731,1853,1833
1802,1918,1887
1793,1885,1789
1727,1822,1759
1715,1840,1807
1790,1893,1850
1807,1898,1819
1727,1843,1765
1721,1841,1807
1808,1903,1866
1814,1889,1843
1735,1824,1786
1723,1843,1835
1796,1923,1888
1813,1915,1845
1747,1837,1776
1729,1820,1799
1797,1870,1856
1806,1904,1841
1738,1863,1802
1734,1854,1822
1797,1892,1839
1799,1894,1819
1735,1840,1793
1742,1841,1828
1809,1901,1856
1818,1906,1827
1747,1844,1789
1744,1840,1811
1818,1902,1847
1826,1901,1840
1757,1836,1803
1747,1850,1820
1802,1909,1856
1812,1903,1840
1747,1851,1799
1748,1843,1815
1817,1904,1857
1831,1923,1835
1759,1840,1794
1751,1820,1812
1821,1888,1859
1825,1908,1840
1766,1851,1802
1770,1840,1808
1824,1879,1830
1830,1904,1820
1772,1859,1792
1765,1856,1822
1829,1904,1845
1834,1911,1825
1769,1856,1795
1764,1872,1819
1847,1938,1855
1855,1904,1827
1776,1830,1798
1775,1826,1817
1835,1872,1802
1850,1904,1791
1780,1872,1806
1772,1865,1833
1825,1906,1847
1840,1916,1839
1789,1871,1790
1782,1847,1807
1844,1906,1851
1860,1904,1840
1781,1835,1795
1760,1820,1802
1822,1891,1830
1835,1891,1820
1780,1827,1785
1779,1840,1809
1840,1899,1839
1845,1903,1818
1780,1846,1787
1773,1839,1813
1837,1899,1842
1849,1917,1835
1787,1862,1799
1775,1833,1805
1834,1887,1833
1850,1898,1831
1785,1835,1794
1767,1817,1783
1851,1881,1835
1862,1903,1822
1781,1869,1808
1768,1845,1828
1835,1920,1854
1856,1931,1840
1777,1809,1795
1774,1803,1805
1839,1875,1841
1850,1891,1808
1779,1839,1776
1782,1840,1828
1845,1905,1853
1860,1899,1819
1786,1840,1779
1773,1833,1794
1839,1879,1840
1852,1907,1831
1780,1853,1789
1771,1841,1809
1845,1891,1840
1855,1899,1819
1781,1844,1779
1776,1837,1808
1841,1886,1827
1859,1898,1813
1789,1839,1793
1782,1824,1814
1847,1886,1847
1865,1888,1842
1795,1831,1774
1779,1829,1749
1856,1891,1839
1870,1895,1827
1796,1833,1792
1782,1827,1783
1855,1883,1859
1872,1899,1840
1794,1840,1801
1789,1825,1782
1856,1891,1846
1881,1921,1851
1806,1846,1799
1791,1824,1788
1867,1881,1837
1872,1900,1837
1801,1840,1776
1793,1825,1840
1859,1878,1885
1875,1900,1865
1799,1840,1803
1793,1846,1815
1861,1896,1872
1874,1906,1851
1802,1857,1795
1792,1835,1826
1864,1892,1894
1885,1917,1841
1807,1872,1804
1791,1838,1791
1846,1869,1842
1869,1884,1854
1819,1841,1824
1811,1840,1839
1870,1887,1828
1886,1889,1823
1818,1845,1829
1809,1846,1856
1875,1917,1862
1890,1902,1844
1818,1831,1799
1809,1867,1839
1857,1918,1867
1871,1890,1813
1823,1840,1779
1821,1826,1807
1873,1886,1859
1887,2000,1828
1837,2006,1873
1797,1754,1818
1851,1759,1813
1888,1886,1846
1815,1823,1835
1787,1809,1815
1860,1904,1868
1895,1899,1846
1840,1895,1859
1819,1855,1822
1885,1840,1834
1887,1872,1822
1872,1968,1738
1870,2021,1861
1841,1824,1873
1839,1716,1808
1810,1754,1774
1834,1842,1822
1840,1851,1851
1872,1856,1869
1797,1826,1778
1782,1823,1795
1871,1922,1872
1915,2108,1910
1877,1851,1778
1758,1659,1744
1820,1761,1846
2023,1907,1923
2032,1895,1746
1946,1907,1719
1802,1851,1778
1803,1811,1828
1744,1763,1804
2010,1833,1809
1875,1898,1940
1741,1950,1830
1663,1805,1692
1702,1773,1748
1821,1793,1885
1838,1909,1837
1743,1912,1729
1721,1862,1728
1825,1892,1854
1855,1777,1802
1745,1835,1774
1708,1894,1703
1808,1968,1744
1826,1979,1794
1717,1902,1746
1716,1892,1798
1828,2026,1856
1817,1938,1801
1722,1849,1782
1713,1861,1795
1808,1959,1842
1830,2029,1831
1731,2000,1784
1726,1903,1808
1839,2000,1886
1867,2082,1829
1756,1984,1777
1728,1968,1793
1809,2062,1841
1808,2125,1841
1742,2095,1783
1763,2157,1873
1850,2256,1888
1831,2255,1818
1747,2171,1766
1749,2242,1815
1833,2383,1859
1858,2461,1858
1789,2447,1757
1745,2443,1813
1808,2529,1813
1845,2591,1863
1802,2559,1798
1825,2601,1808
1846,2643,1834
1819,2651,1807
1738,2593,1775
1754,2602,1751
1816,2709,1869
1841,2815,1837
1829,2827,1879
1891,2896,1903
1822,2901,1839
1751,2932,1746
1713,2906,1726
1773,2945,1773
1829,3019,1830
1825,3054,1799
1759,2944,1749
1755,2928,1763
1819,3019,1808
1840,3094,1822
1785,3024,1794
1786,2991,1814
1850,3037,1829
1877,3093,1823
1778,2943,1766
1728,2891,1776
1802,2955,1820
1832,2991,1792
1778,2934,1751
1772,2902,1748
1838,2961,1818
1858,2976,1815
1794,2906,1773
1776,2875,1792
1806,2903,1829
1831,2899,1786
1778,2811,1722
1776,2769,1774
1840,2815,1871
1869,2832,1849
1798,2757,1790
1772,2723,1767
1839,2768,1779
1879,2793,1811
1825,2703,1777
1789,2651,1806
1845,2718,1837
1872,2727,1838
1808,2643,1791
1795,2609,1794
1865,2670,1877
1907,2697,1893
1835,2606,1855
1785,2471,1792
1851,2519,1840
1913,2529,1886
1845,2519,1834
1808,2494,1811
1893,2512,1881
1931,2518,1878
1850,2422,1823
1822,2375,1826
1894,2411,1868
1918,2415,1883
1859,2326,1855
1845,2275,1868
1918,2313,1920
1936,2357,1877
1872,2261,1847
1855,2210,1873
1919,2228,1916
1950,2240,1910
1887,2161,1865
1859,2092,1879
1929,2117,1926
1956,2120,1910
1891,2026,1866
1885,2010,1891
1967,2059,1937
1982,2033,1924
1904,1994,1883
1872,1953,1886
1936,1879,1919
1981,1903,1936
1913,1808,1885
1905,1742,1886
1984,1820,1951
1994,1809,1950
1936,1701,1904
1952,1654,1949
1984,1725,1968
1968,1637,1886
1932,1519,1846
1926,1533,1914
1952,1592,1940
1989,1584,1933
1969,1533,1936
1919,1494,1955
1943,1558,1995
2003,1523,1999
1909,1467,1840
1842,1446,1831
1934,1489,1936
2063,1573,2015
1926,1520,1914
1851,1469,1854
1919,1353,1900
1949,1387,1901
1904,1372,1872
1887,1341,1905
1969,1424,1966
1999,1469,1952
1908,1391,1865
1891,1360,1879
1961,1456,1943
1963,1435,1919
1921,1424,1903
1872,1374,1903
1924,1397,2021
1962,1419,1981
1887,1370,1749
1843,1353,1814
1934,1392,1932
1998,1441,1931
1893,1410,1870
1922,1488,1909
1979,1507,1943
1890,1375,1843
1843,1297,1832
1887,1329,1847
2035,1493,1904
1962,1466,1872
1785,1219,1856
1795,1207,1927
1882,1365,1817
1986,1485,1856
1981,1415,1854
1939,1331,1840
1918,1454,1872
1951,1504,1891
1850,1248,1839
1746,1167,1811
1840,1282,1872
1975,1334,1913
1911,1329,1824
1798,1398,1801
1885,1477,1873
1955,1339,1941
1891,1200,1813
1770,1232,1742
1829,1316,1782
1882,1411,1851
1830,1401,1853
1829,1329,1904
1991,1396,1983
1988,1424,1877
1776,1315,1735
1709,1343,1803
1826,1557,1955
1904,1535,1861
1829,1273,1757
1824,1283,1809
1941,1433,1991
1860,1484,1915
1744,1394,1889
1749,1413,1776
1876,1554,1820
2059,1584,1943
1987,1467,1869
1697,1354,1717
1742,1408,1798
1847,1488,1923
1797,1439,1823
1786,1472,1757
1926,1527,1925
1994,1574,1997
1891,1462,1808
1812,1402,1727
1808,1440,1790
1818,1493,1873
1818,1451,1856
1795,1456,1798
1933,1535,1895
2005,1488,1906
1840,1391,1862
1745,1389,1793
1931,1509,1885
1913,1503,1787
1802,1424,1707
1785,1391,1891
1825,1455,1904
1883,1527,1753
1840,1425,1699
1867,1454,1760
2010,1533,1853
2060,1535,1845
1925,1376,1795
1700,1335,1731
1712,1446,1766
1859,1515,1798
1863,1465,1753
1782,1406,1722
1809,1472,1739
1869,1492,1783
1835,1456,1814
1853,1483,1705
1967,1567,1751
2086,1507,1753
1806,1363,1584
1616,1302,1561
1712,1424,1702
1821,1514,1733
1798,1415,1648
1777,1433,1638
1846,1508,1754
1903,1520,1814
1976,1456,1828
2096,1463,1583
1791,1402,1489
1599,1434,1699
1613,1439,1678
1703,1452,1632
1834,1562,1714
1941,1567,1733
1936,1474,1606
1744,1354,1623
1708,1489,1764
1790,1554,1823
1773,1519,1823
1812,1555,1643
1959,1520,1555
1869,1501,1565
1814,1475,1657
1730,1424,1587
1811,1530,1743
1933,1610,1776
1873,1520,1679
2351,1584,1699
2047,1453,1614
1490,1437,1623
1660,1533,1766
2022,1520,1714
1777,1417,1557
1766,1489,1597
1856,1463,1820
1947,1475,1763
1763,1411,1498
1618,1362,1535
1759,1395,1734
1859,1483,1939
1749,1467,1757
1710,1454,1615
1648,1337,1488
1649,1296,1559
1838,1357,1600
1866,1396,1704
1767,1326,1493
1951,1350,1743
1888,1397,1723
1315,1297,1535
1419,1238,1461
1840,1286,1649
1575,1247,1691
1399,1291,1419
1530,1247,1361
1702,1290,1441
1761,1381,1680
2057,1438,1702
1683,1281,1657
1307,1168,1466
1585,1311,1509
1710,1309,1487
1455,1271,1575
1658,1367,1750
1837,1314,1455
1514,1292,1418
1310,1294,1507
1570,1315,1451
1747,1411,1647
1571,1313,1535
1402,1168,1458
1553,1291,1527
1585,1355,1533
1418,1312,1375
1511,1253,1398
1584,1299,1565
1666,1259,1535
1602,1358,1535
1374,1365,1531
1419,1245,1582
1681,1389,1613
1795,1461,1578
1674,1378,1496
1375,1241,1484
1200,1211,1452
1518,1410,1587
1790,1327,1506
1648,1263,1507
1286,1313,1424
1565,1409,1488
1411,1322,1515
1323,1354,1621
1712,1472,1727
1779,1446,1594
1341,1265,1349
1328,1225,1403
1613,1410,1701
1535,1392,1584
1268,1274,1434
1328,1199,1573
1719,1430,1652
1677,1429,1567
1728,1424,1589
1677,1375,1472
1570,1424,1519
1348,1278,1454
1333,1331,1535
1365,1302,1524
1630,1410,1685
1671,1407,1567
1399,1341,1625
1478,1377,1648
1793,1435,1610
1639,1341,1420
1168,1264,1363
1186,1308,1507
1483,1405,1658
1840,1469,1680
1794,1373,1535
1531,1378,1581
1697,1578,1727
1566,1329,1488
1136,1301,1429
1211,1360,1668
1477,1441,1671
1535,1443,1569
1535,1411,1535
1895,1425,1735
2032,1504,1759
1457,1348,1616
1091,1296,1410
1303,1365,1489
1615,1488,1695
1535,1520,1625
1581,1452,1531
1779,1451,1535
1490,1456,1648
1374,1473,1767
1770,1515,1783
1728,1456,1710
1307,1419,1503
1365,1497,1497
1680,1523,1612
1705,1526,1599
1451,1483,1603
1698,1606,1843
1475,1472,1710
1370,1457,1498
1581,1535,1613
1855,1575,1587
1653,1488,1523
1387,1523,1681
1372,1593,1709
1789,1689,1814
1813,1535,1678
1424,1411,1493
1535,1616,1658
1820,1719,1877
1457,1531,1713
1296,1456,1535
1523,1553,1554
1661,1651,1712
1634,1625,1695
1879,1573,1613
1605,1662,1652
1381,1680,1743
1563,1680,1842
1644,1584,1743
1571,1529,1616
1690,1669,1608
1620,1639,1700
1518,1616,1649
1585,1695,1765
1701,1722,1765
1918,1730,1649
1662,1618,1642
1392,1655,1711
1712,1785,1808
1664,1655,1693
1392,1631,1706
1631,1735,1904
1855,1729,1696
1719,1719,1625
1695,1750,1839
1808,1799,1909
1477,1697,1591
1558,1730,1643
1691,1744,1823
1648,1791,1852
1616,1775,1687
1736,1885,1791
1792,1813,1914
1684,1776,1716
1687,1798,1770
1678,1744,1615
1633,1715,1513
1730,1883,1721
1867,1898,1930
1641,1787,1821
1728,1808,1937
2000,1889,1834
1584,1777,1632
1703,1900,1681
1719,1787,1821
1679,1772,1799
1593,1806,1744
1629,1808,1759
1840,1863,1961
1711,1825,1874
1664,1922,1907
1943,1962,1909
1765,1778,1648
1785,1877,1728
2085,2022,1778
1647,1782,1712
1405,1791,1871
1626,1893,1939
1987,1962,1901
1881,1882,1797
1587,1791,1687
1690,1963,1792
1945,2032,1957
2491,2176,2099
1665,1696,1666
1098,1707,1463
1393,1831,1627
1920,1973,2023
1936,1938,1856
1738,1951,1811
1747,1986,1723
1929,2110,1953
1934,1984,1983
1602,1827,1767
1583,1839,1661
1890,1961,1783
1833,1927,1857
1645,1883,1792
1904,2013,1912
1644,1873,1694
1739,1936,1678
1695,1911,1828
1947,2111,2023
1762,1885,1744
1709,1897,1753
1724,1873,1812
1869,2047,1873
2178,2131,1983
2165,2066,1853
1573,1767,1682
1670,1968,1827
1671,1985,1779
1914,1965,1856
1780,1954,1915
1661,1927,1717
1572,1862,1666
1792,1920,1738
2320,2116,2084
1955,2003,2006
1493,1839,1535
1722,1847,1677
2019,1990,1942
1968,2032,2063
1687,1878,1773
1535,1925,1680
1904,2120,1919
2512,2226,2082
2037,1864,1702
1504,1749,1648
1355,1835,1726
1653,2000,1807
2086,2078,2096
2001,1922,1875
1600,1942,1778
1589,1984,1643
1996,1968,1803
2176,2067,1971
1833,1962,1891
1653,1966,1714
1693,2028,1808
1968,2022,1911
1967,1950,1964
1773,1984,1935
1743,1937,1703
1717,1870,1765
1839,2007,1939
2162,2112,1881
2085,1969,1797
1645,1958,1819
1601,1990,1885
1794,2023,1872
1863,1989,1875
1855,1904,1754
1840,1977,1869
1872,2015,1911
1983,2013,1842
1789,1903,1805
1803,2032,1875
2085,2156,1914
2014,2042,1903
1764,1951,1813
1754,2027,1742
1948,2128,1856
2045,2016,1930
1823,1804,1811
1733,1970,1872
1842,2082,1902
2000,2097,1876
2107,1911,1803
1808,1974,1790
1777,2069,1922
1686,1943,1815
1759,2005,1805
1984,1993,1798
2087,2059,1961
1937,2021,2032
1933,2010,1898
1827,1936,1630
1835,2027,1807
1874,2035,1843
1861,1934,1861
1964,2074,1962
1852,1957,1904
1910,1969,1837
1860,1927,1937
1901,2014,1921
1968,2071,1793
2032,1995,1679
1927,1909,1859
1793,1916,1799
1919,2103,1968
1741,2031,1884
1866,1890,1743
2229,2064,1927
2128,2114,2035
1917,1945,1852
1715,1901,1753
1874,2021,1954
1840,2005,1872
1936,1986,1729
2025,1943,1736
1927,1977,1877
1968,2027,1904
1881,1990,1856
1998,2001,2004
1959,2026,2096
1872,1969,1898
1925,1968,1699
1840,1917,1616
1927,2035,1856
2161,2046,1919
1967,2002,1936
1728,1879,1963
2087,2064,1939
2043,2078,1871
1803,2000,1746
1714,1902,1805
1875,1968,1851
2112,2039,1846
2292,2080,2026
2021,1984,1948
1933,1967,1906
1713,1946,1810
1737,1946,1743
1872,1931,1728
2081,2070,2022
2033,2078,1959
1892,1954,1745
1914,1943,1885
1919,1961,1892
2019,2054,1893
1957,1987,1909
2002,2001,2006
1956,2015,1842
1904,2041,1804
2096,2038,1918
1901,1872,1785
2081,2037,2018
2080,2064,1871
1872,1861,1630
1799,1853,1804
2031,1999,2000
2257,2077,1824
1842,1860,1627
1670,1873,1891
1802,1968,2043
2256,2099,1970
2052,1931,1878
1803,1933,1808
2033,2047,1946
2033,1997,1793
1907,1969,1793
1776,1859,1867
2035,2014,2022
1937,2013,1915
1899,1954,1801
1931,1916,1845
2117,2029,2021
2096,2032,1915
1957,1974,1754
1906,1964,1945
1941,1975,1980
1855,1893,1754
1922,1915,1869
1943,1922,1880
2064,2002,1887
2133,2058,1840
1986,1967,1909
1716,1865,1899
1954,1979,2005
2162,2047,1935
1904,1876,1637
1829,1831,1699
2065,1984,1937
2112,2009,1906
1858,1956,1923
1735,1926,1882
1837,1932,1841
2130,2064,1982
2112,1927,1974
1857,1850,1786
1826,1872,1735
2005,1967,1853
1987,1991,1927
1828,1932,1843
2085,2046,1990
2003,1941,1827
1923,1830,1809
1877,1902,1863
1917,1986,1919
2017,2013,1923
2035,1963,1921
1937,1943,1871
1965,1906,1808
2032,1936,1846
1957,1921,1963
1971,1941,1863
2015,1927,1868
1809,1950,1841
1966,1986,1825
2160,2009,2018
1895,1903,1905
1854,1939,1808
1822,1872,1887
2042,1908,1892
2227,1901,1751
2082,1925,1760
1818,1936,1918
1787,1932,1893
1810,1925,1857
1882,1978,1931
2064,1922,1917
2054,1808,1789
2060,1946,1866
1919,2061,1940
1889,1943,1932
1909,1827,1915
1967,1941,1835
1990,2009,1904
1968,1923,1826
1889,1817,1797
1989,1850,1836
2003,1949,1910
1847,1936,1904
1781,1891,1936
1959,1893,1799
2173,2029,1918
2064,1980,1999
1893,1891,1922
1835,1856,1812
1973,1939,1807
2031,1907,1783
1962,1811,1786
1939,1930,2015
1920,1927,1923
1872,1894,1836
1906,1824,1901
1956,1933,1887
1962,1993,1853
1934,1891,1779
1840,1827,1834
2060,1886,1900
2270,2010,1995
2033,1926,1875
1620,1808,1804
1689,1851,1846
1968,1904,1904
2118,1902,1804
2059,1841,1810
1918,1893,1904
1744,1924,1873
1839,1922,1903
1985,1861,1902
1959,1865,1798
2004,1941,1837
2015,1933,1984
2157,1904,2005
1859,1791,1724
1703,1881,1822
1724,1855,1835
1883,1861,1885
2111,1893,1808
2160,1957,1904
1846,1853,1831
1814,1855,1943
2029,1904,1951
1962,1926,1863
1911,1910,1869
2005,1856,1846
1885,1778,1669
1855,1840,1863
1936,1854,1844
1904,1802,1806
1897,1861,1920
1859,1941,1894
1938,1906,1907
1886,1879,1789
1917,1919,1839
1967,1903,1798
2055,1870,1793
1873,1780,1743
1834,1856,1915
1905,1903,1947
1882,1843,1894
1921,1809,1842
1959,1846,1759
1956,1990,1936
1938,1957,1912
2045,1890,1839
1866,1783,1782
1840,1825,1834
1962,1856,1825
1919,1808,1822
1910,1856,1909
2002,1904,1928
1955,1893,1871
1770,1802,1791
1840,1881,1872
2087,1959,1970
2019,1862,1815
1821,1778,1727
1823,1879,1941
1996,1909,1900
2031,1833,1714
1871,1782,1786
1920,1914,2035
1968,1928,1936
1886,1894,1811
1923,1818,1837
1968,1830,1872
2041,1904,1923
1954,1826,1791
1725,1798,1840
1767,1867,1866
2064,1953,1941
2190,1898,1904
1755,1731,1745
1821,1835,1810
1931,1935,1859
1905,1881,1858
1837,1822,1834
1979,1872,1984
2126,1938,2000
1919,1845,1825
1667,1758,1749
1825,1850,1843
2039,1905,1863
1968,1850,1827
1775,1811,1839
1769,1835,1872
1895,1872,1936
1904,1842,1919
1868,1813,1904
1899,1856,1869
1978,1915,1857
2000,1859,1825
1811,1770,1827
1862,1827,1865
2002,1919,1911
2042,1918,1910
1935,1867,1945
1775,1806,1911
1903,1869,1925
1985,1863,1781
1793,1812,1749
1787,1804,1855
1909,1837,1764
1982,1815,1763
1842,1777,1820
1871,1872,1984
1959,1895,1978
1949,1839,1750
1827,1808,1872
1937,1856,1840
1952,1856,1877
1810,1855,1859
1769,1801,1870
1922,1858,1856
1991,1886,1882
2043,1825,1775
1934,1795,1903
1727,1811,1907
1811,1861,1917
2156,1914,1939
1895,1783,1755
1731,1773,1722
1892,1872,1870
1899,1813,1868
1850,1775,1823
1791,1845,1933
1902,1914,1929
1936,1851,1814
1863,1715,1709
1873,1791,1871
1917,1879,2055
1843,1833,2046
1705,1762,1739
1783,1797,1837
1953,1898,1872
1961,1823,1918
1968,1792,1777
1969,1826,1691
1951,1930,1860
1968,1888,2068
1825,1788,1820
1824,1741,1655
1836,1807,1781
1895,1850,1825
1866,1840,1945
1792,1807,1948
1878,1882,1863
1872,1859,1817
1873,1771,1863
2110,1867,1950
1984,1898,1911
1815,1872,1936
1693,1740,1904
1867,1741,1738
1901,1902,1733
1919,1862,1948
1805,1774,1927
1861,1819,1900
1928,1880,1838
1953,1862,1861
1831,1808,1887
1822,1803,1799
1913,1910,1846
1922,1897,1922
1755,1759,1874
1834,1776,1810
2041,1865,1798
2064,1894,1863
1664,1776,1807
1710,1806,1911
1952,1890,1879
1975,1850,1841
1834,1807,1840
1786,1808,1823
2114,1904,1955
2063,1877,1888
1635,1760,1882
1578,1783,1800
1835,1872,1742
2039,1889,1895
1876,1810,1783
1777,1791,1765
1858,1855,1906
1926,1830,1872
1826,1782,1899
1802,1805,1923
1870,1862,1862
1871,1909,1845
1986,1862,1872
1950,1788,1742
1774,1803,1748
1739,1856,1919
1783,1733,1875
2142,1783,1828
1818,1873,1894
1623,1851,1809
1755,1777,1759
1879,1829,1821
1914,1842,1814
1922,1911,1905
1914,1796,1821
1936,1801,1805
1737,1853,1814
1685,1812,1904
1713,1761,1837
1915,1806,1911
1935,1849,1801
1858,1879,1776
1977,1840,1798
1863,1772,1795
1721,1869,1887
1758,1859,1838
1856,1781,1765
2096,1878,1872
1909,1858,1885
1678,1792,1807
1759,1739,1815
1872,1839,1920
1895,1897,1871
1951,1832,1815
1887,1808,1772
1744,1807,1812
1810,1904,1927
1904,1847,1819
1771,1808,1865
1872,1840,1885
1990,1904,1951
2015,1903,2089
1831,1805,1705
1653,1775,1588
1738,1869,1840
1819,1911,1993
1789,1808,1840
1922,1837,1802
2000,1905,1966
1887,1904,1823
1835,1792,1720
1931,1845,1862
2175,1987,2058
1879,1867,1932
1520,1699,1685
1775,1818,1777
2019,1915,1863
1842,1872,1872
1823,1823,1807
1981,1841,1847
1975,1868,1883
1863,1866,1858
1810,1821,1917
1718,1808,1897
1797,1869,1876
1878,1884,1791
1869,1815,1805
1874,1882,1855
1964,1918,1898
1869,1823,1782
1754,1765,1753
1930,1843,1872
2070,1947,1933
1999,1893,1904
1857,1792,1857
1693,1807,1797
1856,1939,1904
1990,1905,1776
1920,1808,1769
1828,1796,1853
1900,1909,2041
1922,1888,2032
1744,1803,1700
1809,1854,1769
1872,1879,1791
1971,1887,1797
1929,1808,1813
1802,1893,2002
1787,1913,1929
1841,1882,1876
1857,1763,1774
1908,1841,1774
1957,1945,1973
1999,1923,1917
1918,1799,1766
1775,1799,1751
1791,1870,1874
1924,1897,1861
1855,1794,1811
1840,1834,1800
1855,1925,1871
1939,1887,1834
1920,1785,1808
1897,1856,2023
1799,1943,1963
1983,1981,1878
1843,1829,1746
1747,1808,1779
1935,1930,1919
2017,1856,1818
1702,1770,1761
1738,1831,1870
2038,1927,1916
1965,1866,1840
1733,1808,1857
1848,1873,1929
1962,1916,1777
1859,1856,1782
1810,1857,1919
2041,1883,1874
2053,1869,1754
1742,1840,1879
1599,1817,1891
1846,1869,1887
2069,1892,1843
1945,1919,1895
1834,1818,1834
1893,1818,1747
1940,1872,1755
1924,1887,1882
1722,1830,1883
1691,1830,1873
1918,1973,1915
2032,1904,1840
1930,1780,1770
1767,1840,1914
1890,1906,1886
2028,1930,1930
2032,1847,1849
1745,1777,1745
1782,1839,1709
1850,1888,1815
1782,1850,1869
1813,1846,1879
2022,1920,1891
1985,1865,1831
1777,1838,1856
1751,1869,1851
1904,1894,1826
1953,1872,1840
1834,1820,1870
1920,1813,1904
2013,1865,1780
1793,1878,1785
1623,1840,1818
1835,1899,1893
2128,1995,1969
1951,1885,1966
1733,1778,1750
1907,1849,1758
2175,1904,1751
1936,1837,1747
1664,1819,1874
1643,1828,1800
1936,1923,1975
1971,1904,1873
1919,1851,1798
1920,1837,1782
1931,1871,1805
1917,1835,1725
1789,1788,1787
1696,1806,1969
1895,1915,1957
1858,1904,1904
1904,1839,1817
1872,1802,1787
1866,1890,1895
1872,1902,1810
1842,1820,1829
1802,1843,1792
1821,1934,1871
1980,1895,1904
1786,1822,1872
1757,1837,1895
2016,1949,1899
1946,1839,1703
1766,1743,1808
1822,1867,1842
1917,1931,1825
1893,1891,1840
1808,1831,1920
1805,1840,1843
1890,1879,1817
2032,1911,1907
1957,1840,1818
1824,1821,1824
1856,1851,1848
1853,1890,1905
1696,1795,1795
1795,1806,1724
2031,1930,1853
1918,1905,1894
1695,1801,1825
1841,1862,1886
1893,1923,1918
1824,1904,1861
1760,1819,1774
1893,1813,1763
2195,1932,1826
1909,1890,1801
1777,1813,1811
1808,1834,1901
1849,1902,1884
1858,1901,1840
1776,1818,1837
1840,1866,1859
1941,1923,1887
2096,1935,1827
1779,1771,1776
1714,1808,1866
1969,1889,1804
1852,1888,1807
1719,1818,1819
1781,1824,1847
1981,1953,1935
1933,1908,1874
1824,1851,1872
1947,1853,1820
1972,1889,1776
1815,1872,1808
1727,1831,1882
1866,1875,1868
1933,1881,1862
1808,1883,1867
1732,1819,1838
1844,1844,1827
2011,1849,1761
2074,1911,1905
1815,1840,1856
1842,1872,1843
1909,1934,1884
1857,1922,1877
1715,1776,1798
1814,1781,1810
1997,1914,1889
1930,1966,1846
1792,1783,1710
1760,1783,1791
1866,1881,1936
1936,1918,1937
1891,1851,1802
1887,1911,1877
1967,1951,1955
1792,1867,1808
1715,1807,1807
1953,1890,1913
2071,1902,1734
1836,1860,1747
1689,1763,1801
1823,1838,1840
2073,1986,1986
1949,1866,1920
1795,1746,1814
1820,1867,1866
1936,1969,1850
1915,1901,1766
1799,1819,1782
1825,1831,1822
1895,1915,1853
1856,1888,1904
1931,1796,1894
1985,1854,1879
1845,1894,1823
1776,1875,1834
1713,1823,1810
1927,1861,1866
2182,1939,1902
1902,1870,1812
1671,1786,1817
1751,1821,1832
1933,1936,1898
2011,1979,1905
1911,1776,1750
1905,1793,1773
