1856,1837,1794
1904,1870,1826
1846,1862,1808
1819,1839,1817
1845,1848,1888
1903,1874,1842
1882,1861,1886
1851,1841,1769
1853,1858,1827
1856,1884,1893
1835,1846,1841
1874,1825,1782
1904,1819,1795
1862,1871,1921
1871,1884,1907
1818,1825,1790
1833,1847,1894
1870,1887,1878
1883,1888,1840
1866,1841,1781
1877,1845,1842
1872,1877,1856
1823,1853,1840
1813,1836,1756
1907,1862,1821
1902,1899,1915
1854,1875,1919
1845,1841,1767
1845,1861,1825
1863,1901,1848
1851,1872,1887
1835,1856,1848
1872,1867,1835
1882,1882,1834
1871,1872,1795
1830,1850,1812
1849,1840,1807
1889,1898,1890
1872,1877,1857
1834,1844,1785
1856,1854,1808
1882,1884,1883
1874,1878,1877
1843,1844,1808
1855,1856,1821
1883,1885,1869
1872,1873,1872
1847,1849,1817
1859,1857,1827
1885,1884,1878
1875,1873,1839
1843,1850,1808
1857,1865,1839
1885,1888,1925
1873,1882,1877
1851,1855,1827
1872,1871,1806
1895,1890,1869
1887,1872,1886
1859,1854,1805
1877,1861,1843
1899,1879,1898
1885,1903,1842
1863,1867,1859
1885,1827,1857
1905,1869,1907
1893,1904,1858
1878,1858,1830
1899,1845,1904
1919,1899,1874
1904,1871,1871
1872,1809,1808
1914,1809,1890
1953,1873,1933
1949,1901,1936
1926,1916,1875
1933,1995,1809
1951,2126,1889
1959,2272,1904
1955,2446,1865
1968,2418,1870
1975,2496,1904
1981,2537,1879
1977,2800,1874
1956,2929,1837
1986,3046,1879
1988,3101,1868
1968,3027,1817
1977,3139,1835
1984,3239,1861
1977,3247,1835
1971,3280,1767
2000,3280,1819
2021,3312,1847
2001,3294,1771
1978,3309,1760
1985,3275,1792
2026,3312,1869
2028,3282,1817
2022,3253,1772
2033,3264,1716
2074,3311,1808
2080,3275,1822
2069,3086,1787
2070,3101,1762
2086,2992,1783
2066,2926,1776
2054,2926,1730
2096,2967,1770
2127,2943,1835
2110,2965,1832
2074,2941,1758
2083,2912,1761
2112,2918,1818
2111,2933,1831
2078,2926,1787
2074,2819,1768
2105,2758,1829
2111,2655,1835
2078,2549,1781
2097,2683,1808
2093,2847,1830
2071,2777,1825
2069,2789,1794
2087,2595,1785
2091,2391,1825
2081,2526,1810
2064,2579,1814
2113,2657,1873
2139,2736,1901
2059,2354,1810
2004,2269,1757
2085,2384,1853
2097,2337,1869
2078,2455,1825
2032,2166,1776
2059,2142,1811
2066,2192,1904
2067,2203,1905
2017,2133,1839
2025,2158,1840
2042,2255,1881
2039,2192,1872
1969,2074,1823
2000,2082,1842
2057,2067,1904
2087,1990,1902
1983,1901,1836
1987,1934,1833
2046,1989,1879
2085,1917,1892
2006,1851,1858
2074,1943,1861
2017,1835,1851
1991,1733,1854
1979,1719,1882
2003,1731,1904
2025,1715,1925
2039,1777,1936
2039,1662,1861
1991,1613,1855
2037,1598,1924
2000,1573,1919
2009,1613,1945
2032,1585,1910
2029,1482,1917
2038,1600,1947
2032,1468,1878
1953,1377,1856
1960,1431,1969
2005,1374,1986
1984,1269,1920
2017,1231,1961
2036,1456,1977
2041,1414,1918
1959,1184,1861
1969,1136,1924
1995,1184,2000
2064,1328,2034
1968,1254,1939
2002,1065,1872
1971,1005,1936
1989,1041,1987
1983,1003,1947
1983,1053,1962
2037,1139,2014
2031,1100,1991
2000,967,1915
1942,848,1911
2007,912,1983
2032,912,1968
1956,933,1887
2000,917,1921
1975,848,1975
2006,816,2014
1963,754,1939
1941,784,1933
2000,822,1968
2022,891,2008
1963,816,1962
1917,655,1872
1969,653,1941
1963,687,1970
1943,688,1924
1968,762,1936
1970,816,2009
1973,837,1955
1847,531,1878
1938,448,1932
1917,571,1985
1936,648,1995
1910,633,1927
1953,624,1931
1935,690,1968
1920,662,1965
1982,615,1906
1959,579,1920
1953,602,1968
1937,615,1967
1902,599,1909
1912,609,1918
1986,643,1968
1910,622,1968
1927,611,1910
1935,632,1935
1936,655,1986
1986,641,1966
1945,609,1899
1874,623,1924
1989,672,1991
2035,707,2023
1985,683,1954
1912,630,1915
1947,673,1991
2113,801,2117
2061,767,2015
1834,606,1850
1823,615,1893
1904,687,1952
1966,714,1931
1957,705,1909
1903,710,1920
1854,719,1923
1958,722,1887
1962,758,1914
1999,819,1991
2006,833,1967
1904,775,1855
1999,823,1903
2018,886,1978
1879,854,1923
1821,831,1825
1915,886,1859
1917,960,1889
1947,1035,1879
2004,1069,1834
2025,1152,1846
1984,1254,1872
1977,1333,1852
1943,1392,1798
1956,1466,1809
2061,1558,1871
2019,1623,1861
1977,1692,1792
1917,1711,1795
2035,1760,1840
2065,1799,1824
2007,1872,1806
2015,2061,1767
2064,1999,1823
2129,1894,1835
1994,2001,1750
2091,2151,1785
2032,1740,1756
2032,1773,1744
1971,1815,1726
2065,1810,1823
2121,1926,1904
2112,2296,1818
1969,2213,1670
1951,1782,1710
2007,1731,1827
2015,1805,1822
2077,1855,1777
2072,2001,1719
1989,2081,1792
1994,1872,1797
2028,1673,1741
2093,1799,1780
2093,1719,1817
1991,1711,1789
2030,1771,1753
2064,1823,1783
2143,1719,1841
2087,1744,1799
2065,1744,1771
2059,1718,1797
2085,1701,1868
2091,1698,1861
2071,1666,1790
2097,1691,1791
2123,1695,1873
2169,1733,1869
2121,1677,1759
1997,1649,1791
2003,1655,1863
2032,1651,1875
2044,1635,1807
2042,1635,1802
2064,1653,1839
2061,1645,1855
2032,1615,1799
2044,1617,1785
2059,1643,1841
2046,1636,1867
2017,1597,1808
2068,1611,1817
2127,1650,1919
2071,1642,1898
1957,1557,1799
1967,1535,1791
2085,1619,1874
2189,1682,1939
2096,1611,1876
1926,1495,1789
1919,1506,1808
1950,1513,1819
1968,1511,1802
1990,1523,1816
2006,1535,1856
2006,1554,1858
1979,1526,1799
1983,1531,1806
2002,1561,1855
1995,1557,1864
1963,1535,1808
1979,1563,1818
2005,1610,1870
1987,1618,1840
1962,1667,1783
1968,1595,1797
1983,1501,1830
1974,1535,1830
1971,1687,1803
2013,1936,1857
1999,1619,1801
1968,1569,1776
1951,1671,1775
1920,1535,1771
1947,1471,1857
1958,1648,1871
1903,1731,1735
1920,1783,1753
1945,1781,1822
1942,1819,1811
1926,1835,1803
1968,1916,1845
1953,1827,1825
1936,1911,1792
1917,1835,1766
1915,1694,1774
1940,1765,1834
1955,1882,1872
1933,1851,1808
1915,1776,1735
1939,1808,1847
1923,1831,1847
1906,1801,1805
1919,1778,1791
1958,1826,1866
1988,1847,1901
1902,1827,1803
1886,1782,1803
1936,1783,1862
1936,1776,1859
1901,1754,1808
1910,1782,1826
1949,1840,1869
1935,1763,1865
1904,1712,1822
1917,1719,1823
1941,1758,1875
1957,1776,1887
1955,1801,1813
1895,1779,1789
1892,1680,1895
1899,1700,1900
1898,1701,1825
1904,1719,1835
1947,1744,1883
1934,1772,1879
1888,1697,1841
1881,1711,1830
1910,1739,1879
1919,1731,1899
1904,1728,1841
1915,1801,1860
1920,1712,1875
1903,1654,1872
1879,1654,1818
1898,1673,1790
1920,1715,1886
1906,1727,1926
1872,1710,1869
1891,1719,1847
1988,1773,1920
1979,1757,1916
1853,1700,1831
1819,1705,1827
1883,1735,1906
1897,1751,1909
1968,1812,1910
2187,1975,2073
2084,1888,2000
1735,1666,1760
1674,1619,1680
1776,1715,1765
1872,1763,1872
1882,1744,1878
1863,1769,1815
1874,1901,1858
1895,1819,1905
1970,1815,1973
2073,1926,2015
2166,1985,2064
1914,1794,1909
1727,1717,1838
2143,2106,2126
2352,2233,2186
1822,1866,1801
1477,1724,1508
1573,1849,1535
1745,2039,1712
1837,2178,1798
1823,2294,1791
1739,2343,1702
1745,2342,1717
1799,2405,1831
1802,2479,1834
1782,2496,1722
1783,2601,1728
1793,2659,1776
1776,2672,1747
1775,2702,1714
1861,2800,1777
1791,2796,1757
1701,2755,1674
1681,2743,1645
1708,2813,1680
1877,2882,1797
1941,2987,1810
1664,2775,1635
1610,2691,1613
1701,2853,1735
1751,2850,1798
1734,2887,1655
1755,2875,1622
1767,2817,1681
1761,2803,1685
1715,2736,1639
1729,2781,1667
1770,2814,1729
1767,2864,1664
1742,2788,1643
1744,2724,1851
1751,2730,1731
1761,2779,1651
1734,2747,1616
1743,2751,1648
1770,2783,1722
1770,2738,1735
1738,2750,1685
1754,2773,1691
1789,2725,1747
1789,2689,1749
1783,2774,1713
1767,2704,1697
1770,2615,1677
1781,2559,1671
1778,2541,1644
1813,2586,1690
1870,2635,1763
1870,2591,1744
1830,2520,1690
1855,2471,1728
1894,2446,1787
1931,2531,1831
1914,2620,1754
1920,2558,1753
1934,2510,1742
1941,2379,1755
1920,2319,1750
1952,2363,1808
2001,2146,1856
2001,2256,1779
1941,2375,1687
1982,2204,1782
2033,2111,1827
2031,2209,1839
1999,2219,1790
2037,2174,1842
2081,2224,1894
2062,2176,1845
2020,2067,1872
2029,2014,1779
2066,2047,1871
2077,2081,1935
2083,2098,1872
2076,1955,1853
2047,1968,1907
2054,2061,1893
2045,1943,1856
2046,1840,1827
2090,1903,1923
2096,1935,1951
2070,1885,1904
2058,1858,1855
2071,1840,1883
2087,1792,1920
2043,1744,1883
2064,1731,1907
2096,1840,1955
2098,1817,1963
2020,1799,1858
2027,1776,1872
2070,1712,1943
2086,1744,1967
2037,1675,1888
2056,1755,1902
2078,1699,1950
2067,1825,1968
2000,1535,1865
2000,1393,1861
2102,1590,2020
2191,1764,2102
2176,1776,1991
2112,1711,1968
2057,1603,1995
1965,1535,2060
1881,1567,1845
1933,1559,1788
2209,1739,2055
2446,1904,2323
2091,1651,2015
1721,1424,1703
1904,1482,1965
2306,1749,2448
2159,1677,2160
1749,1421,1757
1966,1535,1895
2592,1904,2554
2505,1790,2343
1795,1408,1658
1829,1585,1776
1842,1584,1825
2021,1703,1973
2545,2031,2361
1890,1561,1857
1358,1247,1511
1642,1424,1717
2014,1636,1953
1989,1782,1945
1883,1707,1915
2064,1587,1981
1926,1521,1886
1661,1487,1738
1751,1696,1792
2007,2006,1958
1985,2026,1920
1743,1710,1772
1760,1521,1782
2043,1865,1935
2102,1971,1952
1712,1847,1749
1553,1753,1767
1847,1970,1985
2351,2302,2075
1939,1977,1818
1442,1855,1584
1613,2023,1657
1616,1973,1712
1618,2064,1830
1678,2182,1715
1851,2419,1744
2454,2749,2164
1997,2202,1895
1195,1907,1450
1249,2000,1327
1584,2213,1585
1791,2471,1879
1894,2629,1807
1787,2485,1127
1851,2489,1054
1484,2317,351
1422,2423,978
1643,2557,1488
1791,2709,2028
1839,2779,2018
1680,2811,1863
1503,2698,1799
1759,2837,1815
1744,2847,1828
1441,2771,1833
1445,2652,1829
1679,2837,1833
1732,3065,1827
1741,3067,1835
1650,3153,1833
1535,3147,1830
1419,3216,1834
1354,3422,1834
1357,3670,1833
1554,4019,1834
1616,4095,1833
1679,4095,1834
1723,4095,1837
1277,4095,1835
1135,4095,1834
1280,4095,1831
1424,4095,1834
1591,4095,1833
1556,4095,1836
1370,4095,1833
1247,4095,1834
1246,4095,1836
1520,4095,1837
1513,4095,1836
1455,4095,1830
1482,4095,1767
1486,4095,1825
1199,4095,1641
1139,4095,1488
1259,4095,1570
1609,4095,1729
1842,4095,1743
1487,4095,1571
964,4095,1373
1047,4095,1519
1337,4095,1631
1419,4095,1612
1409,4095,1479
1717,4095,1629
1962,4095,1750
1374,4095,1535
826,4095,1294
1021,4095,1435
1303,4095,1474
1437,4095,1376
1517,4095,1378
1515,4095,1257
1292,4095,1206
1180,4095,1203
1279,4095,1283
1519,4095,1303
1535,4095,1229
1393,4095,1086
1267,4095,1198
1266,4095,1235
1315,4095,1184
1341,4095,1104
1420,4095,1142
1567,4095,1226
1345,4095,1110
1270,4095,1050
1329,4095,1056
1409,4095,1103
1430,4095,1123
1411,4095,1072
1411,4095,1017
1575,4095,1006
1741,4095,871
1499,4095,746
1232,4095,947
1295,4095,1023
1408,4095,977
1406,4095,865
1442,4095,828
1765,4095,825
1616,4095,815
1313,4095,849
1276,4095,889
1406,4095,919
1453,4095,901
1443,4095,855
1459,4095,887
1493,4095,933
1495,4095,959
1472,4095,937
1485,4095,958
1535,4095,1023
1564,3683,1060
1535,3366,995
1531,3216,976
1581,3295,1130
1599,3071,1200
1566,2800,1105
1571,2651,1093
1604,2559,1191
1653,2639,1303
1631,2458,1237
1621,2317,1172
1669,2219,1270
1695,2118,1350
1676,2007,1297
1697,2018,1342
1765,2011,1446
1770,1807,1483
1759,1656,1483
1743,1525,1426
1778,1449,1580
1793,1427,1655
1769,1258,1623
1808,1168,1667
1858,1154,1776
1877,1101,1822
1854,1022,1811
1829,899,1840
1863,863,1985
1886,844,2073
1877,727,2064
1888,643,2098
1925,573,2177
1978,544,2225
1936,454,2151
1911,415,2222
1937,393,2333
1961,336,2355
1979,256,2320
2160,221,2304
2118,148,2285
1995,139,2474
2039,111,2399
1891,0,2334
1806,0,2425
1904,0,2487
2055,0,2448
2124,0,2406
2020,0,2480
2016,0,2469
1933,0,2401
1899,0,2425
1982,0,2478
2010,0,2512
2098,0,2433
2101,0,2367
1983,0,2418
1915,0,2476
1909,0,2419
1989,0,2413
2007,0,2424
2011,0,2479
1967,0,2434
1909,0,2326
1963,0,2366
2047,0,2416
2062,0,2445
2047,0,2437
1981,0,2437
2014,0,2443
2123,0,2381
2096,0,2323
1943,0,2345
1939,0,2493
2058,0,2401
2128,0,2320
1974,0,2366
1921,0,2461
1968,0,2314
2128,0,2346
2107,0,2426
1963,0,2439
1966,0,2386
1918,0,2352
1998,0,2362
2100,0,2471
2064,0,2289
1998,0,2340
1968,0,2390
2096,0,2375
2000,0,2319
1941,0,2318
2000,0,2256
2279,0,2305
2208,0,2262
1859,0,2322
1968,0,2372
2030,0,2343
2057,0,2261
2070,0,2171
1968,0,2400
1963,0,2394
1969,0,2266
2031,0,2199
2031,0,2373
2021,0,2353
2037,0,2368
2103,0,2187
2083,0,2255
2091,0,2401
2004,0,2192
2000,0,2293
2129,0,2287
2084,0,2276
2046,0,2285
1935,0,2341
1927,0,2205
1963,0,2275
1998,0,2211
2003,0,2221
2096,0,2240
2115,0,2215
2009,0,2112
2014,0,2074
2004,0,2320
1914,0,2367
1888,0,2126
1998,0,2191
2037,0,2209
2005,0,2307
1937,0,2190
2015,0,2087
2112,0,2205
2061,0,2365
1937,0,2273
1984,0,2128
2089,0,2164
2077,0,2191
2065,0,2169
2045,0,2173
1920,0,2224
1920,0,2206
1936,0,2059
1979,0,2096
2039,0,2194
2021,0,2239
1936,0,2175
2047,0,2155
2082,0,2210
2007,0,2195
1982,0,2113
2021,0,2076
1951,0,2205
1958,0,2243
1931,0,2187
1963,0,2077
1999,0,2141
1949,0,2171
1958,0,2128
2046,0,2119
2103,0,2140
1951,0,2203
1874,0,2127
1941,0,2125
1952,0,2128
1953,0,2167
1956,0,2160
2005,0,2158
2000,0,2195
1939,0,2206
1935,0,2143
1954,0,2169
1952,0,2180
1933,0,2224
1936,0,2217
2059,0,2145
1971,0,2147
1917,0,2325
1895,0,2238
1991,0,2119
2069,0,2211
1989,0,2210
1867,0,2203
1890,0,2195
1915,0,2159
1947,0,2190
1951,0,2209
1985,0,2109
2047,0,2165
1875,0,2220
1814,0,2176
1876,0,2137
1998,0,2080
2001,0,2213
1936,0,2192
1878,0,2126
1935,0,2150
1936,0,2231
1931,0,2113
1946,0,2107
2035,0,2103
2043,0,2080
1902,0,2039
1867,0,2057
1841,0,2125
1887,0,2172
1904,0,2003
1899,0,2014
1925,0,2138
1943,0,2194
1931,0,2115
1890,0,1967
1946,19,2045
1930,59,2096
1872,65,1987
1924,109,1989
2009,158,2044
1942,213,2047
1935,225,1965
1873,253,1950
1871,316,2070
1891,366,2076
1883,355,1950
1922,391,1989
1949,464,2000
1906,481,2017
1859,493,2002
1841,493,1963
1902,583,2011
1961,647,2020
1961,677,1911
1904,679,1870
1853,694,1920
1903,770,1959
1925,791,1908
1885,823,1936
1911,887,1959
1891,937,1950
1854,912,1877
1879,912,1873
1921,1011,1924
1897,1068,1904
1904,1155,1875
1922,1174,1825
1936,1088,1863
1902,1177,2000
1847,1118,1890
1914,1050,1846
1920,1123,1845
1924,1221,1934
1919,1239,1855
1831,1296,1826
1791,1318,1859
1872,1349,1872
1889,1413,1885
1858,1394,1849
1884,1442,1868
1981,1474,1831
1973,1493,1839
1827,1505,1819
1827,1526,1734
2022,1621,1856
1885,1655,1968
1792,1661,1891
1846,1661,1754
1973,1674,1822
1905,1695,1856
1776,1654,1669
1941,1766,1811
1915,1829,1968
1812,1790,1792
1927,1815,1633
1953,1887,1841
1767,1850,1805
1803,1895,1703
1830,2032,1837
1870,1959,1861
1906,1904,1761
1904,1939,1744
1835,2033,1824
1842,2055,1841
1886,2087,1839
1856,2096,1743
1858,2082,1677
1975,2144,1705
1999,2177,1762
1791,2167,1727
1687,2183,1655
1805,2215,1756
1882,2283,1858
1833,2237,1744
1835,2174,1535
1907,2323,1798
1801,2334,1808
1778,2233,1520
1840,2352,1717
1808,2413,1875
1738,2318,1682
1794,2293,1446
1910,2436,1808
1803,2487,1949
1764,2447,1794
1717,2399,1599
1821,2395,1585
1876,2477,1709
1751,2485,1717
1813,2447,1641
1798,2507,1692
1737,2527,1731
1806,2545,1717
1762,2559,1666
1667,2518,1584
1787,2559,1573
1878,2630,1748
1698,2559,1691
1690,2602,1638
1751,2597,1609
1827,2646,1712
1783,2651,1671
1629,2548,1498
1767,2647,1699
1810,2713,1840
1696,2704,1728
1727,2690,1584
1760,2690,1650
1794,2704,1690
1759,2671,1600
1721,2610,1495
1754,2715,1669
1744,2768,1723
1679,2718,1685
1728,2694,1616
1774,2724,1658
1825,2751,1681
1781,2729,1680
1685,2723,1632
1749,2746,1673
1728,2752,1632
1726,2763,1664
1686,2769,1643
1744,2758,1638
1808,2733,1646
1753,2740,1641
1698,2735,1634
1702,2752,1680
1830,2790,1730
1781,2800,1724
1709,2742,1614
1753,2757,1629
1733,2767,1691
1715,2771,1674
1761,2741,1662
1796,2777,1726
1685,2800,1723
1729,2766,1669
1725,2768,1621
1766,2767,1681
1764,2750,1634
1756,2762,1690
1747,2737,1698
1776,2747,1669
1762,2771,1652
1746,2757,1627
1730,2740,1700
1730,2741,1739
1796,2761,1734
1771,2736,1664
1798,2713,1618
1792,2739,1654
1767,2759,1778
1712,2747,1745
1730,2705,1687
1791,2719,1691
1759,2750,1731
1840,2727,1713
1765,2704,1705
1792,2711,1714
1808,2705,1729
1818,2702,1667
1792,2663,1562
1854,2724,1728
1801,2717,1817
1691,2686,1741
1737,2665,1734
1834,2704,1787
1823,2677,1712
1834,2657,1687
1745,2665,1749
1712,2656,1735
1765,2653,1723
1803,2683,1730
1851,2662,1725
1812,2661,1795
1803,2649,1783
1776,2616,1685
1807,2608,1631
1856,2626,1765
1866,2622,1771
1792,2599,1750
1713,2559,1693
1830,2654,1838
1821,2634,1817
1794,2582,1744
1790,2556,1685
1826,2597,1731
1831,2593,1744
1785,2605,1733
1807,2556,1740
1830,2540,1799
1830,2559,1847
1778,2557,1783
1781,2559,1721
1733,2557,1771
1895,2534,1795
1883,2499,1725
1811,2503,1664
1825,2540,1776
1814,2539,1840
1790,2493,1750
1821,2494,1750
1856,2514,1851
1847,2520,1818
1801,2475,1773
1838,2475,1747
1925,2480,1794
1885,2483,1755
1818,2453,1751
1737,2418,1751
1815,2444,1806
1808,2470,1855
1786,2445,1821
1803,2416,1808
1851,2422,1807
1883,2422,1785
1871,2416,1796
1811,2374,1785
1818,2417,1855
1824,2450,1854
1788,2415,1714
1834,2313,1716
1887,2342,1866
1886,2371,1913
1831,2387,1849
1808,2352,1777
1878,2355,1793
1975,2370,1835
1840,2323,1795
1766,2317,1804
1840,2311,1827
1854,2349,1910
1810,2317,1831
1850,2305,1807
1872,2305,1830
1890,2311,1835
1863,2303,1807
1837,2288,1796
1861,2307,1863
1874,2287,1859
1850,2258,1789
1820,2243,1751
1903,2285,1818
1909,2283,1893
1858,2239,1839
1839,2221,1826
1847,2240,1837
1850,2256,1877
1824,2246,1812
1833,2209,1753
1872,2205,1855
1891,2242,1875
1840,2210,1849
1840,2207,1808
1885,2222,1824
1904,2206,1834
1873,2172,1828
1890,2173,1811
1872,2161,1810
1873,2189,1842
1856,2179,1863
1837,2157,1852
1858,2180,1861
1882,2192,1900
1886,2130,1791
1861,2095,1726
1867,2143,1823
1883,2162,1887
1868,2139,1856
1837,2128,1872
1867,2123,1872
1875,2117,1873
1886,2096,1817
1917,2121,1835
1915,2113,1819
1888,2089,1790
1841,2095,1872
1821,2093,1898
1874,2090,1888
1904,2097,1858
1865,2070,1803
1859,2043,1806
1901,2077,1856
1933,2112,1926
1874,2079,1840
1851,2027,1779
1878,2033,1779
1952,2077,1881
1852,2063,1920
1822,2040,1899
1854,2037,1881
1869,2032,1851
1920,2037,1833
1930,2029,1831
1893,2011,1840
1900,2029,1872
1829,2005,1819
1839,1962,1787
1968,2034,1902
1968,2074,1946
1860,2005,1873
1830,1968,1822
1868,1987,1855
1907,2011,1881
1874,1998,1830
1884,1955,1792
1991,1955,1773
1929,2006,1901
1806,1968,1866
1808,1934,1787
1897,1982,1863
1904,1984,1914
1888,1969,1848
1887,1945,1808
1902,1952,1866
1901,1971,1886
1872,1934,1805
1859,1915,1826
1894,1934,1824
1921,1943,1837
1904,1936,1856
1862,1936,1867
1910,1935,1846
1936,1936,1842
1895,1930,1857
1867,1904,1840
1873,1936,1865
1906,1951,1904
1904,1925,1857
1852,1897,1825
1936,1919,1848
1898,1918,1843
1904,1919,1837
1897,1902,1823
1861,1891,1906
1861,1933,1903
1883,1914,1817
1925,1872,1738
1904,1899,1845
1872,1925,1932
1847,1891,1851
1888,1900,1834
1904,1915,1862
1877,1910,1905
1830,1857,1776
1901,1846,1822
1923,1910,1857
1906,1919,1925
1886,1898,1904
1841,1851,1795
1885,1904,1806
1851,1907,1884
1878,1872,1855
1887,1830,1837
1905,1808,1814
1904,1892,1904
1872,1851,1834
1859,1834,1787
1914,1887,1849
1906,1911,1882
1840,1854,1843
1823,1837,1735
1962,1877,1768
1919,1844,1903
1805,1872,1867
1818,1837,1794
1853,1826,1823
1934,1885,1873
1901,1875,1883
1865,1805,1794
1875,1846,1799
1881,1874,1863
1872,1856,1832
1842,1795,1834
1884,1808,1857
1889,1840,1823
1909,1854,1807
1867,1841,1764
1843,1864,1883
1863,1857,1877
1873,1807,1833
1886,1808,1780
1901,1838,1841
1982,1826,1859
1883,1790,1802
1791,1824,1840
1814,1854,1904
1853,1858,1874
1844,1822,1806
1855,1776,1794
1857,1775,1824
1901,1838,1843
1907,1919,1853
1867,1815,1825
1851,1775,1879
1887,1809,1924
1856,1843,1793
1842,1825,1744
1875,1799,1841
1890,1811,1903
1920,1825,1825
1882,1814,1756
1819,1750,1791
1865,1829,1882
1850,1819,1877
1867,1759,1823
1871,1855,1831
1850,1793,1834
1850,1806,1839
1859,1783,1761
1851,1813,1850
1860,1776,1913
1863,1855,1821
1856,1771,1776
1846,1759,1783
1919,1807,1856
1904,1809,1838
1872,1744,1772
1873,1799,1806
1879,1776,1846
1821,1790,1879
1809,1769,1836
1862,1806,1841
1872,1803,1819
1882,1805,1821
1903,1818,1801
1877,1808,1770
1855,1825,1847
1822,1827,1831
1885,1822,1776
1942,1813,1831
1859,1827,1918
1786,1765,1862
1776,1753,1746
1868,1817,1815
1935,1771,1846
1881,1766,1803
1840,1712,1758
1872,1818,1840
1866,1775,1875
1882,1664,1808
1867,1771,1826
1861,1759,1863
1872,1764,1851
1865,1739,1811
1865,1726,1720
1850,1748,1858
1856,1769,1904
1805,1754,1840
1783,1721,1791
1861,1736,1835
1908,1772,1846
1856,1744,1827
1796,1715,1807
1821,1725,1843
1909,1761,1858
1905,1730,1792
1801,1701,1779
1810,1813,1839
1826,1746,1847
1843,1718,1807
1859,1712,1837
1853,1719,1856
1867,1776,1891
1812,1712,1817
1840,1646,1771
1859,1681,1821
1889,1794,1854
1867,1680,1808
1776,1681,1808
1808,1706,1845
1842,1705,1874
1850,1680,1850
1865,1744,1799
1886,1696,1809
1856,1659,1810
1833,1739,1813
1824,1653,1797
1847,1682,1825
1867,1749,1901
1845,1715,1861
1838,1655,1780
1890,1687,1808
1886,1690,1884
1828,1661,1814
1822,1654,1776
1823,1681,1859
1854,1708,1920
1851,1703,1838
1866,1655,1730
1887,1680,1806
1902,1677,1872
1815,1649,1847
1791,1661,1812
1865,1680,1853
1907,1617,1882
1871,1670,1831
1869,1674,1757
1898,1678,1786
1860,1668,1873
1835,1653,1901
1860,1725,1823
1842,1658,1825
1855,1670,1877
1843,1622,1818
1874,1666,1797
1894,1702,1904
1872,1646,1910
1843,1673,1823
1841,1673,1791
1873,1614,1822
1887,1685,1872
1861,1701,1839
1796,1644,1731
1858,1661,1818
1905,1677,1915
1858,1682,1856
1840,1679,1810
1884,1699,1875
1885,1710,1904
1872,1675,1815
1856,1663,1749
1895,1681,1835
1849,1741,1919
1837,1687,1878
1842,1670,1831
1831,1666,1792
1891,1691,1810
1885,1686,1866
1853,1677,1840
1850,1683,1846
1856,1712,1888
1854,1712,1854
1857,1680,1808
1872,1695,1825
1904,1712,1872
1934,1717,1853
1840,1679,1813
1834,1701,1890
1905,1733,1894
1821,1691,1778
1877,1698,1744
1891,1712,1827
1808,1712,1875
1760,1685,1817
1831,1714,1809
1872,1733,1868
1863,1756,1906
1841,1726,1857
1846,1696,1787
1869,1729,1821
1875,1755,1885
1825,1728,1856
1836,1719,1809
1866,1718,1808
1930,1735,1800
1946,1767,1794
1840,1744,1859
1840,1761,1886
1838,1788,1893
1867,1784,1842
1854,1757,1830
1882,1775,1856
1876,1779,1877
1854,1787,1841
1857,1765,1797
1911,1779,1824
1860,1782,1869
1810,1742,1837
1826,1754,1793
1834,1783,1793
1907,1820,1872
1904,1807,1873
1879,1777,1829
1858,1814,1846
1854,1810,1863
1874,1777,1802
1840,1779,1798
1851,1814,1841
1863,1825,1883
1833,1808,1874
1815,1771,1757
1874,1807,1790
1874,1814,1889
1842,1815,1895
1839,1810,1850
1870,1851,1855
1883,1837,1833
1842,1808,1815
1861,1803,1808
1866,1842,1870
1858,1855,1873
1878,1850,1821
1902,1832,1771
1872,1810,1790
1854,1861,1910
1834,1850,1902
1827,1837,1850
1859,1853,1842
1909,1890,1856
1904,1858,1842
1829,1825,1784
1841,1839,1845
1873,1878,1922
1842,1880,1863
1806,1842,1776
1863,1879,1803
1910,1892,1867
1871,1874,1877
1873,1856,1840
1908,1869,1840
1844,1917,1894
1827,1899,1895
1840,1853,1811
1870,1874,1858
1886,1917,1881
1854,1892,1847
1859,1846,1727
1924,1875,1837
1887,1908,1953
1819,1903,1909
1827,1891,1818
1867,1901,1839
1857,1905,1875
1867,1890,1840
1854,1861,1785
1901,1879,1815
1904,1911,1920
1887,1906,1899
1833,1885,1789
1840,1902,1840
1861,1929,1913
1844,1885,1840
1838,1870,1783
1858,1916,1818
1886,1930,1919
1869,1916,1883
1855,1873,1805
1887,1902,1840
1869,1914,1855
1834,1919,1841
1826,1887,1807
1865,1905,1874
1902,1925,1907
1873,1893,1827
1881,1900,1758
1943,1903,1776
1836,1933,1925
1768,1902,1870
1795,1917,1793
1856,1920,1808
1887,1922,1903
1865,1904,1846
1837,1889,1771
1835,1926,1843
1857,1948,1933
1859,1931,1899
1850,1895,1803
1900,1911,1831
1878,1952,1881
1808,1926,1840
1817,1900,1791
1841,1901,1842
1856,1915,1808
1872,1937,1826
1871,1929,1872
1861,1918,1887
1856,1904,1819
1924,1937,1874
1904,1921,1774
1904,1925,1854
1888,1929,1915
1840,1935,1868
1841,1935,1812
1856,1933,1814
1845,1937,1897
1839,1897,1840
1841,1894,1829
1856,1910,1815
1898,1966,1903
1886,1939,1904
1852,1889,1787
1854,1890,1782
1915,1929,1901
1873,1891,1844
1849,1933,1841
1846,1945,1872
1878,1936,1856
1876,1907,1867
1855,1872,1827
1872,1911,1850
1882,1926,1897
1859,1881,1805
1831,1886,1710
