3086,1711,1869
3137,1725,1903
3090,1681,1875
3013,1687,1811
3037,1709,1847
3056,1738,1898
3007,1730,1870
2944,1734,1794
2960,1735,1839
2977,1748,1894
2935,1776,1865
2859,1786,1791
2878,1728,1836
2913,1744,1889
2864,1738,1855
2807,1742,1827
2816,1747,1850
2835,1776,1885
2793,1781,1835
2738,1729,1812
2746,1745,1874
2763,1744,1891
2726,1782,1861
2670,1757,1808
2674,1737,1888
2699,1807,1990
2630,1797,1894
2547,1781,1783
2617,1805,1856
2630,1766,1951
2610,1725,1965
2547,1714,1906
2553,1769,1920
2559,1811,1936
2527,1827,1904
2487,1708,1907
2498,1817,1929
2499,1834,1947
2454,1782,1911
2446,1775,1872
2470,1750,1919
2484,1807,1987
2435,1747,1961
2384,1795,1893
2385,1776,1934
2402,1838,1995
2368,1740,1950
2325,1731,1895
2351,1815,1928
2374,1787,1985
2320,1760,1943
2281,1793,1883
2309,1766,1930
2337,1797,1971
2314,1761,1939
2251,1745,1890
2261,1759,1969
2301,1767,2010
2274,1827,1961
2222,1711,1931
2227,1616,1955
2240,1762,2061
2215,1755,2390
2190,1728,3191
2145,1675,2527
1943,1503,2626
1647,1195,1520
1575,1072,903
1701,1206,1296
1826,1373,1810
1834,1405,1927
1839,1375,1872
1884,1392,1824
1931,1483,1814
1922,1535,1817
1906,1535,1825
1934,1503,1829
1973,1575,1828
1958,1581,1826
1936,1535,1822
1951,1579,1826
1972,1609,1826
1955,1685,1825
1927,1650,1830
1963,1696,1829
1994,1665,1834
1966,1668,1831
1922,1593,1827
1969,1629,1833
2004,1634,1825
1968,1705,1823
1929,1699,1826
1959,1693,1829
2001,1711,1821
1968,1731,1840
1776,1580,3408
1471,1257,3058
1065,877,2813
473,311,1826
67,0,1215
0,0,1430
0,0,1734
0,0,1853
0,0,1865
0,0,1792
0,0,1744
0,0,1535
0,0,1407
0,0,1090
0,0,1152
109,0,1585
486,47,1776
788,425,1807
1006,738,2022
1038,790,3575
767,542,3020
435,275,2355
76,0,1942
0,0,1709
0,0,1838
0,0,1607
0,0,1521
0,0,1279
0,0,1951
0,0,2462
0,0,2195
0,0,1745
0,0,1637
0,0,1867
0,0,0
0,0,0
0,0,0
0,0,834
0,0,4095
0,0,4095
0,0,4095
0,0,4095
0,0,4095
0,0,4095
0,0,4095
0,0,4095
0,0,4095
0,0,4095
0,0,4095
0,0,4095
0,0,4095
0,0,4095
0,0,4095
0,0,4095
0,0,4095
0,0,4095
0,0,4095
0,0,4095
0,0,0
0,0,0
0,0,0
0,0,0
0,0,0
0,0,0
0,0,0
0,0,0
0,0,0
0,0,0
0,0,1106
0,0,2359
0,0,3312
0,0,2413
0,0,1735
0,257,1837
0,458,1646
0,475,1772
0,375,1866
0,464,1719
0,658,1187
189,879,1902
502,1062,1883
704,1179,1858
845,1239,1680
976,1409,1799
1076,1535,1965
1233,1697,1823
1502,1877,1457
1668,2053,1136
1840,2238,1023
2150,2544,1589
2480,2889,1902
2694,3185,1906
2818,3435,1850
3004,3632,1823
3235,3743,1841
3383,3970,2957
2663,3130,4095
754,1364,4095
0,0,4095
0,0,4095
0,0,4095
0,0,4095
0,0,4095
0,941,4050
740,1837,2430
1801,2291,1650
2247,2624,1619
2349,2899,1787
2405,2973,1882
2602,3195,1845
2832,3547,1833
3005,3917,1831
3122,4095,1839
3230,4095,1840
3371,4095,1840
3533,4095,1840
3694,4095,1835
3859,4095,1839
4003,4095,1840
4029,4095,1839
4048,4095,1840
4095,4095,2108
3648,4095,4095
2192,4095,4095
0,1105,4095
0,0,4095
0,0,4095
0,0,4095
0,0,4095
0,0,4095
0,0,4095
0,0,4095
0,0,1818
0,0,4095
0,0,4095
0,0,4095
0,0,3775
0,0,2240
0,0,1601
0,336,3120
0,913,4095
0,734,4095
0,557,3018
0,203,2974
0,0,125
0,122,2526
0,174,1083
0,720,752
0,1329,1554
330,1941,1965
0,2551,1946
0,3011,1851
0,3242,1810
0,3516,1821
0,3856,1830
0,4095,1837
0,4095,1835
0,4095,1831
0,4095,1837
657,4095,1831
1871,4095,1835
2142,4095,1839
1966,4095,1835
1827,4095,1830
1808,4095,1834
1831,4095,1836
1846,4095,1833
1841,4095,1833
1840,4095,1831
1843,4095,1838
1840,4095,1835
1839,4095,2285
1840,4095,4095
1829,4095,2359
1833,4095,1418
1834,4095,1221
1839,4095,1375
1838,4095,1652
1840,4095,1847
1839,4095,2013
1840,4095,4095
1842,4095,4095
1841,4095,4095
1840,4095,4095
1840,4095,4095
1869,4095,4095
1985,4095,4095
2259,4095,4095
2611,4095,4095
2962,4095,4095
3338,4095,4095
3639,4095,3982
3875,4095,2407
4095,4095,1670
4095,4095,1648
4095,4095,1798
4095,4095,1855
4095,4095,1837
4095,4095,1889
4095,4095,1883
4095,4095,1818
4095,4095,1872
4095,4095,1817
4095,4095,1834
4095,4095,1830
4095,4095,1853
4095,4095,1840
4095,4095,1847
4095,4095,1826
4095,4095,1838
4095,4095,1839
4095,4095,1839
4095,4095,1836
4095,4095,1855
4095,4095,1840
4095,4095,1833
4095,4095,1791
4095,4095,1799
4095,4095,1831
4095,4095,1787
4095,4095,1771
4095,4095,1765
4095,4095,1807
4095,4095,1783
4095,4095,1712
4095,4095,1722
4095,4095,1778
4095,4095,1719
4095,4095,1660
4095,4095,1667
4095,4095,1690
4095,4095,1659
4095,4095,1621
4095,4095,1611
4095,4095,1631
4095,4095,1662
4095,4095,1519
4095,4095,1557
4095,4095,1648
4095,4095,1584
4095,4095,1535
4095,4095,1535
4095,4095,1574
4095,4095,1588
4095,4095,1518
4095,4095,1565
4095,4095,1594
4095,4095,1557
4095,4095,1513
4095,4095,1585
4095,4095,1533
4095,4095,1522
4095,4082,1457
4095,3935,1515
4095,3856,1582
4095,3799,1571
4095,3692,1477
4095,3654,1493
4095,3657,1554
4095,3583,1520
4095,3486,1508
4095,3455,1478
4095,3403,1559
4095,3397,1559
4095,3282,1469
4095,3250,1434
4095,3270,1499
4095,3229,1522
4095,3135,1503
4095,3110,1488
4095,3119,1519
4095,3054,1509
4095,2992,1525
4095,2960,1483
4095,2938,1511
4095,2895,1561
4095,2865,1478
4095,2833,1515
4095,2851,1534
4095,2769,1535
4095,2718,1471
4095,2710,1535
4095,2699,1584
4095,2674,1591
4095,2530,1529
4095,2533,1570
4095,2595,1535
4095,2559,1498
4095,2457,1515
4095,2373,1581
4095,2482,1673
4095,2501,1632
4095,2319,1521
4095,2299,1562
4095,2330,1535
4088,2310,1535
3946,2258,1587
4082,2335,1645
4095,2458,1792
3781,2318,1682
3390,2229,1515
3386,2304,1494
3487,2401,1584
3504,2469,1535
3398,2553,1616
3306,2704,1610
3248,2889,1621
3161,2963,1658
3056,3081,1575
3043,3278,1632
3039,3722,1660
2941,3790,1600
2811,3530,1535
2795,3629,1573
2815,3799,1648
2767,4045,1677
2666,4086,1583
2624,4095,1566
2611,4082,1641
2544,4095,1632
2451,4095,1567
2418,4095,1577
2432,4095,1638
2395,4095,1642
2313,4095,1558
2311,4006,1589
2331,4081,1607
2302,4095,1642
2239,3668,1559
2231,3462,1604
2259,3532,1600
2253,3599,1670
2201,3519,1631
2187,3403,1603
2202,3386,1648
2192,3345,1702
2144,3285,1696
2134,3200,1600
2171,3170,1680
2157,3123,1690
2099,3027,1629
2093,3025,1632
2129,3033,1679
2117,2991,1729
2081,2893,1655
2080,2830,1654
2111,2819,1695
2096,2794,1623
2044,2741,1661
2053,2704,1683
2085,2689,1698
2053,2654,1763
2000,2581,1707
2000,2556,1714
2023,2557,1771
2016,2515,1773
1975,2452,1709
1968,2431,1724
2000,2403,1791
2001,2357,1810
1953,2288,1755
1945,2295,1745
1975,2301,1804
1962,2256,1819
1903,2192,1743
1895,2174,1744
1933,2194,1819
1911,2154,1818
1869,2071,1775
1873,2030,1770
1901,2033,1811
1877,2017,1817
1823,1972,1763
1845,1939,1791
1857,1915,1831
1841,1923,1834
1808,1878,1788
1808,1872,1787
1833,1885,1843
1812,1871,1855
1754,1759,1776
1773,1743,1787
1797,1759,1854
1757,1730,1833
1723,1691,1776
1727,1665,1793
1750,1662,1856
1737,1699,1867
1685,1616,1789
1681,1584,1779
1701,1591,1844
1680,1584,1853
1661,1562,1825
1653,1559,1830
1650,1531,1826
1632,1506,1814
1591,1465,1771
1611,1457,1809
1623,1455,1841
1595,1463,1829
1535,1432,1773
1535,1392,1762
1571,1392,1823
1566,1389,1839
1523,1360,1786
1520,1338,1776
1535,1345,1822
1525,1343,1833
1472,1296,1763
1467,1291,1762
1491,1284,1815
1492,1283,1845
1450,1242,1774
1453,1232,1764
1466,1257,1797
1458,1234,1827
1425,1261,1791
1422,1168,1769
1426,1167,1793
1435,1166,1811
1393,1155,1759
1386,1156,1751
1423,1188,1832
1405,1173,1818
1366,1131,1744
1381,1137,1727
1411,1152,1785
1392,1157,1839
1344,1150,1792
1337,1136,1776
1366,1142,1793
1424,1167,1806
1418,1133,1727
1327,1093,1751
1393,1147,1875
1433,1164,1835
1346,1125,1759
1294,1099,1739
1302,1136,1815
1289,1142,1852
1381,1136,1830
1532,1141,1732
1445,1114,1660
1466,1156,1835
1317,1103,1796
1179,1094,1806
1461,1171,1876
1799,1200,1783
1238,1074,1712
982,1091,1844
1335,1181,1928
1339,1119,1787
1104,1072,1776
1205,1134,1843
1296,1131,1813
1170,1078,1750
1154,1038,1715
1178,1098,1795
1191,1125,1847
1131,1104,1773
1168,1104,1739
1215,1154,1792
1190,1182,1840
1169,1159,1762
1185,1113,1712
1141,1163,1795
1088,1203,1830
1099,1210,1783
1135,1163,1713
1131,1166,1786
1138,1194,1838
1183,1215,1855
1219,1168,1734
1328,1148,1667
1092,1182,1754
1034,1235,1893
975,1205,1823
1023,1202,1778
1098,1229,1798
1118,1232,1810
1104,1246,1750
1088,1293,1729
1094,1329,1779
1125,1371,1817
1115,1370,1749
1067,1360,1739
1132,1382,1681
1206,1466,1893
1115,1471,1908
1076,1462,1808
1118,1503,1818
1170,1497,1728
1171,1484,1725
1050,1501,1797
1089,1574,1835
1101,1520,1813
1098,1535,1783
1150,1591,1782
1102,1570,1815
1104,1587,1810
1072,1600,1839
1078,1589,1821
1092,1611,1830
1078,1627,1831
991,1535,1691
1103,1600,1756
1106,1590,1817
1114,1637,1839
1131,1619,1762
1184,1616,1739
1432,1697,1846
1162,1620,1802
924,1617,1854
987,1600,1793
1085,1648,1830
1090,1679,1872
1072,1648,1792
1135,1654,1783
1139,1680,1801
1095,1687,1846
1068,1657,1798
1100,1663,1790
1143,1700,1829
1133,1706,1845
1165,1699,1793
1456,1709,1743
1136,1630,1675
958,1679,1899
983,1674,1904
1093,1668,1867
1149,1717,1855
1150,1715,1856
1104,1665,1761
1130,1650,1760
1147,1636,1728
1235,1702,1881
1233,1692,1886
1143,1685,1882
1136,1681,1904
1248,1659,1776
1282,1646,1729
1114,1671,1895
1100,1709,1948
1092,1619,1810
1168,1648,1799
1188,1648,1853
1184,1656,1858
1203,1662,1871
1216,1652,1846
1203,1659,1867
1239,1665,1902
1215,1661,1877
1169,1614,1773
1200,1616,1760
1263,1686,1938
1226,1680,1943
1190,1649,1856
1222,1639,1840
1261,1652,1872
1255,1663,1882
1230,1630,1846
1251,1632,1847
1271,1659,1887
1264,1649,1868
1228,1620,1825
1255,1622,1841
1308,1647,1902
1297,1636,1901
1264,1605,1818
1271,1609,1823
1319,1639,1887
1344,1637,1899
1296,1607,1847
1296,1619,1847
1346,1633,1887
1365,1616,1857
1312,1587,1833
1314,1603,1877
1360,1630,1929
1375,1631,1900
1399,1601,1829
1344,1590,1854
1364,1632,1922
1383,1625,1887
1363,1605,1839
1360,1591,1832
1411,1617,1910
1438,1627,1958
1418,1584,1850
1448,1583,1851
1459,1616,1890
1422,1622,1923
1437,1573,1820
1653,1584,1821
1535,1584,1882
1342,1582,1904
1309,1535,1840
1407,1559,1846
1490,1590,1902
1517,1618,1919
1467,1584,1793
1437,1531,1830
1587,1581,1907
1518,1581,1845
1362,1529,1857
1357,1520,1854
1443,1571,1872
1477,1567,1873
1477,1531,1790
1518,1562,1799
1510,1600,1927
1511,1594,1899
1588,1574,1915
1506,1574,1882
1460,1602,1880
1456,1584,1879
1420,1519,1773
1535,1565,1808
1636,1638,1938
1477,1584,1867
1431,1574,1748
1498,1605,1853
1557,1601,2013
1533,1591,1970
1475,1573,1792
1507,1535,1724
1609,1595,1815
1535,1630,1913
1470,1575,1891
1501,1569,1865
1517,1590,1894
1558,1616,1866
1520,1603,1907
1562,1607,1859
1520,1610,1776
1517,1563,1829
1505,1570,1823
1535,1566,1821
1623,1658,1968
1627,1684,1985
1639,1600,1819
1642,1632,1852
1465,1600,1904
1485,1582,1886
1499,1605,1879
1472,1559,1847
1458,1581,1776
1652,1680,1869
1647,1664,1937
1535,1599,1866
1620,1647,1922
1691,1675,1941
1709,1616,1842
1625,1574,1661
1520,1649,1855
1499,1683,1921
1499,1637,1872
1535,1595,1890
1669,1648,1998
1648,1693,1973
1535,1603,1781
1585,1631,1763
1618,1654,1836
1610,1649,1844
1628,1649,1828
1621,1648,1857
1622,1673,1936
1600,1670,1911
1599,1654,1872
1587,1662,1787
1535,1606,1821
1580,1578,1737
1764,1675,1836
1634,1671,1914
1571,1673,1904
1599,1678,1899
1648,1609,1727
1674,1651,1743
1582,1683,1919
1613,1692,1968
1616,1664,1840
1616,1638,1819
1675,1667,1847
1674,1697,1841
1596,1633,1806
1683,1630,1808
1701,1692,1863
1645,1713,1939
1619,1680,1886
1648,1697,1797
1679,1680,1808
1701,1668,1856
1715,1639,1827
1671,1661,1807
1667,1739,1888
1744,1678,1830
1744,1633,1682
1535,1741,1922
1571,1781,2039
1623,1737,1968
1657,1655,1783
1650,1606,1697
1722,1690,1872
1703,1743,2027
1627,1808,1978
1659,1799,1823
1721,1774,1866
1693,1687,1885
1638,1694,1822
1659,1702,1796
1769,1735,1845
1860,1915,1821
1602,1649,1699
1655,1520,1712
1713,1695,1859
1583,1738,1913
1620,1747,1903
1620,1808,1859
1663,1808,1909
1727,1806,1964
1752,1925,1738
1654,1709,1723
1679,1683,1973
1772,1714,1893
1767,1693,1712
1758,1767,1744
1621,1667,1903
1626,1644,1930
1629,1727,1844
1567,1712,1795
1617,1774,1854
1635,1779,1810
1690,1637,1808
1670,1646,1744
1658,1789,1873
1584,1683,1764
1753,1585,1776
1690,1764,1746
1535,1669,1855
1616,1709,1772
1689,1765,1904
1616,1711,1882
1578,1677,1669
1743,1767,1803
1535,1677,1712
1498,1669,1601
1761,1873,2045
1711,1821,2013
1633,1723,1756
1648,1840,1806
1669,1847,1885
1623,1792,1861
1664,1784,1837
1679,1809,1826
1711,1855,1872
1721,1801,1874
1682,1795,1811
1670,1783,1835
1697,1835,1868
1718,1801,1791
1680,1763,1809
1691,1777,1818
1727,1846,1921
1727,1827,1863
1782,1814,1682
1807,1845,1686
1527,1777,1914
1611,1840,2002
1686,1835,1903
1647,1755,1776
1664,1763,1818
1706,1849,1890
1598,1713,1823
1662,1748,1779
1719,1789,1840
1783,1789,1872
1847,1778,1744
1674,1754,1840
1575,1780,1937
1664,1770,1930
1707,1762,1759
1725,1643,1758
1721,1710,1944
1658,1685,1840
1621,1668,1813
1696,1674,1775
1713,1727,1872
1745,1676,1954
1638,1663,1849
1656,1598,1773
1783,1651,1809
1679,1616,1840
1535,1561,1872
1622,1603,1937
1715,1637,1840
1691,1587,1866
1691,1600,1869
1787,1535,1731
1742,1535,1765
1679,1606,1870
1665,1611,1889
1584,1523,1873
1699,1584,1920
1874,1506,1841
1669,1587,1809
1535,1616,1875
1633,1565,1920
1744,1564,1915
1661,1515,1791
1649,1511,1840
1665,1533,1856
1722,1555,1906
1697,1535,1894
1778,1662,1858
1731,1626,1815
1635,1534,1871
1619,1465,1876
1739,1506,1863
1759,1527,1793
1702,1535,1810
1633,1495,1893
1804,1533,1837
1851,1526,1853
1742,1562,1949
1582,1568,1870
1601,1570,1863
1721,1535,1798
1781,1579,1907
1721,1584,1977
1692,1567,1909
1760,1559,1857
1836,1590,1894
1750,1584,1843
1605,1520,1808
1680,1584,1889
1712,1526,1781
1859,1554,1773
1811,1507,1936
1585,1615,1984
1507,1582,1706
1759,1597,1879
1833,1647,2061
1575,1459,1690
1951,1715,1936
1875,1666,2006
1711,1654,1979
1678,1630,1942
1671,1628,1881
1744,1670,1712
1777,1615,1822
1783,1783,1999
1766,1658,2077
1679,1580,1831
1765,1657,1871
1798,1674,1914
1767,1651,1855
1796,1654,1854
1808,1675,1878
1773,1673,1861
1807,1703,1923
1703,1641,1761
1830,1682,1833
1859,1735,1985
1904,1763,2027
1791,1702,1904
1709,1711,1887
1777,1738,1905
1835,1772,1899
1808,1737,1859
1779,1680,1819
1881,1705,1813
1922,1787,1998
1719,1744,1922
1709,1715,1845
1818,1768,1911
1856,1763,1962
1824,1703,1830
1825,1675,1715
1929,1800,1963
1879,1836,2021
1746,1728,1867
1781,1749,1907
1837,1808,1904
1840,1807,1930
1856,1771,1883
1846,1733,1825
1828,1765,1867
1808,1801,1906
1839,1782,1814
1842,1803,1921
1849,1827,1971
1840,1846,1903
1821,1738,1777
1904,1757,1842
1915,1799,1901
1792,1835,1909
1815,1810,1925
1883,1791,1890
1907,1827,1879
1765,1799,1754
1779,1767,1913
1808,1760,1954
1897,1834,1870
1890,1837,1933
1842,1831,1921
1845,1837,1844
1905,1872,1849
1866,1807,1840
1862,1835,1829
1877,1828,1915
1867,1811,1873
1878,1839,1897
1882,1851,1835
1847,1863,1899
1899,1839,1955
1915,1851,1945
1851,1872,1813
1855,1839,1728
1945,1839,1947
1941,1878,1998
1795,1863,1802
1751,1818,1766
1858,1825,1856
1931,1811,1868
1974,1862,1887
1840,1840,1874
1877,1808,1907
1836,1820,1919
1808,1776,1779
1797,1792,1771
1930,1749,1866
1983,1776,1871
1899,1796,1858
1834,1779,1873
1839,1781,1854
1813,1728,1811
1920,1733,1872
1883,1711,1863
1863,1733,1904
1874,1748,1841
1887,1735,1809
1936,1734,1856
1850,1719,1814
1849,1685,1872
1862,1693,1867
1933,1703,1883
1915,1713,1809
1873,1701,1888
1833,1674,1829
1908,1686,1715
1969,1696,1921
1901,1703,1974
1874,1695,1855
1935,1664,1738
1882,1664,1808
1922,1695,1937
1846,1681,1858
1839,1629,1730
1917,1643,1797
1951,1693,1959
1931,1680,1856
1904,1651,1793
1901,1686,1894
1919,1735,1893
1886,1680,1840
1947,1654,1808
1958,1680,1829
1843,1658,1856
1887,1645,1840
1872,1679,1828
1855,1674,1855
1870,1668,1881
1872,1677,1799
1918,1647,1815
1893,1681,1885
1840,1682,1899
1879,1658,1821
1961,1633,1806
1965,1687,1840
1878,1738,1809
1846,1665,1903
1900,1653,1883
1904,1682,1874
1856,1685,1862
1872,1660,1765
1877,1630,1765
1967,1706,1856
1899,1712,1897
1850,1687,1837
1861,1698,1807
1967,1710,1887
1933,1679,1833
1953,1665,1751
1870,1715,1820
1825,1719,1877
1886,1712,1991
1844,1701,1808
1874,1701,1791
1925,1722,1883
1999,1701,1790
1877,1687,1822
1760,1727,1890
1841,1725,1895
1900,1758,1823
1920,1744,1808
1909,1673,1807
1927,1733,1877
1907,1766,1965
1812,1724,1808
1686,1657,1635
1918,1748,1840
1923,1808,2017
1866,1765,1858
1874,1686,1743
1969,1761,1776
1911,1808,1927
1831,1721,1814
1872,1744,1799
1936,1765,1862
1867,1774,1899
1841,1745,1738
1869,1689,1679
1967,1807,1921
1903,1809,1981
1860,1751,1813
1883,1706,1681
1946,1790,1851
1937,1840,1990
1797,1740,1813
1810,1775,1835
1856,1824,1811
1945,1826,1872
1946,1803,1905
1886,1787,1845
1984,1831,1853
1906,1833,1877
1858,1819,1776
1879,1850,1852
1914,1847,1939
1882,1858,1897
1898,1855,1896
1904,1808,1859
1890,1824,1807
1985,1857,1902
1936,1840,1859
1806,1843,1827
1911,1881,1887
1967,1916,1826
1933,1856,1868
1883,1826,1875
1872,1872,1883
1943,1895,1867
1881,1873,1863
1860,1859,1783
1904,1883,1872
1947,1927,1945
1940,1922,1891
1921,1885,1755
2010,1889,1875
1840,1894,1910
1802,1911,1895
1871,1915,1790
1936,1885,1843
1962,1907,1936
1930,1915,1777
1894,1867,1693
1934,1898,1814
1846,1937,2010
1829,1919,1857
1907,1887,1840
1922,1915,1900
1883,1929,1808
1855,1900,1762
1902,1875,1759
1911,1917,1872
1922,1939,1914
1883,1947,1835
1902,1903,1837
1949,1933,1892
1892,1963,1918
1867,1920,1801
1841,1919,1847
1895,1962,1875
1897,1904,1811
1834,1917,1743
1882,1931,1843
1871,1954,1846
1927,1951,1878
1823,1916,1884
1915,1903,1778
1946,1933,1805
1968,1961,1857
1920,1917,1840
1856,1931,1793
1887,1975,1783
1917,1968,1882
1891,1906,1810
1879,1927,1820
1910,1952,1934
1874,1919,1806
1874,1903,1847
1887,1927,1826
1895,1970,1855
1931,1959,1904
1870,1905,1823
1883,1929,1830
1892,1950,1883
1895,1929,1837
1840,1931,1829
1853,1955,1856
1815,1937,1849
1891,1952,1870
1894,1952,1801
1867,1924,1712
1872,1921,1790
1999,1968,1799
1888,1923,1749
1805,1937,1854
1870,1958,1931
1969,1981,1809
1939,1967,1794
1831,1913,1715
1827,1936,1860
1867,1986,1835
1923,1943,1808
1904,1889,1741
1894,1936,1889
1857,1975,1849
1944,1941,1813
1904,1936,1819
1927,1958,1851
1923,1959,1854
1925,1937,1777
1905,1920,1787
1835,1909,1803
2032,1963,1807
1987,1939,1818
1857,1955,1856
1840,1945,1894
1878,1951,1923
1860,1927,1805
1942,1919,1842
1939,1936,1806
1903,1962,1858
1856,1927,1811
1887,1904,1725
1950,1925,1864
1933,1946,1932
1887,1887,1788
1862,1904,1759
1936,1936,1872
1939,1926,1891
1978,1921,1841
1899,1895,1774
1840,1922,1806
1835,1943,1873
1856,1926,1858
1883,1916,1829
1881,1907,1858
1927,1916,1825
1899,1878,1891
1882,1936,1795
1902,1926,1841
1908,1898,1814
1915,1906,1860
1846,1894,1809
1882,1881,1824
1936,1918,1837
1975,1901,1832
1967,1915,1822
1786,1920,1868
1898,1923,1847
1893,1895,1753
1901,1887,1805
1881,1911,1885
1917,1925,1895
1869,1882,1847
1911,1873,1840
1857,1897,1803
1897,1888,1841
1897,1888,1860
1909,1888,1856
1894,1894,1843
1919,1919,1838
1938,1888,1760
1920,1883,1747
1874,1898,1846
1841,1925,1874
1868,1904,1837
1856,1890,1808
1903,1889,1831
1920,1902,1831
1879,1889,1873
1839,1887,1865
1904,1875,1835
1889,1874,1808
1919,1889,1819
1893,1831,1765
1909,1885,1851
1878,1934,1905
1834,1872,1814
1887,1864,1775
1866,1874,1862
1937,1878,1894
1861,1845,1809
1835,1863,1765
1930,1866,1860
1888,1887,1846
1840,1831,1792
1872,1822,1746
1910,1847,1798
1872,1871,1888
1839,1841,1847
1837,1805,1796
1938,1840,1823
2000,1858,1777
1878,1850,1840
1805,1815,1838
1765,1825,1837
1904,1858,1823
1903,1835,1841
1834,1795,1784
1927,1838,1843
1872,1851,1913
1886,1819,1861
1833,1792,1803
1872,1788,1803
1943,1843,1873
1931,1839,1840
1852,1798,1801
1838,1825,1826
1868,1811,1783
1878,1806,1789
1904,1779,1803
1936,1806,1883
1859,1810,1872
1870,1791,1805
1966,1788,1719
1853,1815,1869
1859,1826,1909
1865,1840,1851
1874,1776,1725
1878,1783,1795
1854,1819,1901
1924,1808,1855
1938,1776,1781
1920,1837,1862
1883,1833,1873
1906,1800,1846
1814,1765,1789
1954,1833,1853
1927,1819,1856
1829,1776,1774
1881,1757,1777
1893,1792,1831
1837,1797,1848
1873,1776,1850
1869,1768,1782
1917,1778,1821
1902,1810,1894
1887,1782,1837
1847,1750,1795
1882,1748,1789
1919,1761,1827
1925,1798,1823
1888,1756,1761
1935,1774,1841
1902,1804,1907
1841,1783,1878
1841,1754,1798
1870,1759,1849
1982,1776,1840
1999,1769,1767
1820,1743,1731
1755,1753,1859
1865,1770,1921
1894,1775,1877
1854,1728,1796
1910,1744,1815
1904,1735,1859
1874,1735,1872
1875,1732,1826
1885,1756,1805
1903,1749,1872
1877,1700,1857
1895,1721,1837
1903,1729,1824
1905,1744,1846
1867,1736,1866
1853,1717,1773
1901,1690,1759
1904,1746,1909
1920,1766,1859
1887,1699,1824
1840,1698,1819
1903,1712,1863
1849,1699,1802
1872,1710,1805
1893,1733,1862
1872,1765,1860
1888,1734,1824
1854,1733,1860
1915,1724,1865
1861,1757,1903
1788,1715,1829
1872,1735,1794
1920,1772,1840
1885,1741,1894
1838,1723,1829
1856,1744,1791
1927,1735,1855
1866,1744,1861
1823,1722,1781
1793,1728,1808
1873,1740,1904
1875,1759,1881
1855,1742,1808
1834,1728,1803
1833,1742,1831
1872,1787,1901
1839,1730,1793
1958,1741,1745
1910,1744,1838
1847,1763,1839
1909,1785,1873
1830,1763,1867
1849,1744,1816
1887,1746,1775
1883,1754,1841
1859,1726,1835
1872,1771,1831
1872,1775,1803
1838,1739,1762
1805,1730,1808
1862,1775,1871
1913,1810,1892
1840,1751,1870
1758,1693,1616
1872,1808,1859
1912,1850,2037
1873,1817,1921
1883,1775,1763
1883,1808,1819
1903,1818,1918
1824,1782,1813
1835,1793,1691
1905,1795,1870
1863,1779,1898
1903,1797,1843
1845,1813,1877
1825,1797,1821
1883,1829,1901
1895,1821,1882
1889,1790,1825
1809,1779,1753
1879,1805,1792
1909,1829,1914
1859,1824,1882
1842,1834,1923
1820,1814,1871
1855,1822,1811
1895,1817,1814
1851,1815,1872
1903,1841,1922
1904,1808,1839
1840,1795,1781
1841,1841,1829
1872,1863,1872
1859,1835,1841
1867,1856,1863
1878,1856,1872
1839,1837,1846
1818,1815,1793
1888,1820,1811
1868,1879,1948
1849,1883,1904
1875,1872,1844
1831,1856,1837
1831,1841,1855
1889,1861,1884
1897,1859,1841
1879,1863,1763
1845,1872,1842
1835,1885,1903
1777,1833,1803
1824,1841,1829
1905,1887,1891
1898,1927,1909
1839,1876,1841
1805,1837,1754
1865,1885,1874
1874,1895,1941
1857,1889,1854
1839,1876,1787
1868,1862,1819
1861,1893,1881
1845,1907,1872
1792,1861,1805
1872,1862,1837
1863,1911,1904
1853,1907,1878
1816,1863,1776
1858,1906,1809
1886,1925,1923
1847,1895,1910
1837,1894,1811
1840,1904,1785
1847,1910,1881
1835,1889,1843
1823,1889,1819
1851,1866,1839
1921,1920,1866
1857,1920,1887
1774,1873,1764
1839,1881,1803
1850,1917,1862
1862,1955,1927
1831,1904,1813
1897,1904,1838
1885,1877,1827
1863,1901,1821
1796,1905,1881
1842,1951,1887
1836,1899,1806
1850,1894,1734
1875,1922,1824
1875,1948,1969
1901,1948,1949
1825,1919,1850
1793,1902,1814
1826,1915,1849
1893,1937,1862
1877,1922,1827
1842,1904,1808
1864,1911,1820
1858,1915,1851
1866,1936,1867
1878,1936,1872
1885,1922,1834
1909,1936,1830
1850,1904,1829
1820,1915,1867
1859,1937,1870
1872,1941,1904
1810,1911,1787
1841,1923,1801
1904,1914,1877
1889,1936,1902
1806,1919,1817
1815,1933,1862
1873,1949,1919
1877,1946,1875
1834,1928,1819
1825,1892,1746
1861,1925,1833
1873,1953,1922
1900,1935,1875
1840,1895,1776
1835,1885,1797
1853,1933,1889
1845,1931,1859
1833,1921,1853
1863,1946,1881
1839,1895,1810
1873,1934,1805
1875,1930,1851
1831,1921,1889
1851,1909,1872
1853,1899,1837
1857,1920,1819
1849,1939,1875
1859,1962,1919
1863,1942,1840
1866,1903,1789
1920,1883,1811
1849,1918,1823
1774,1904,1767
1830,1898,1787
1907,1955,1943
1879,1952,1970
1815,1903,1810
1795,1883,1731
1839,1935,1850
1893,1939,1911
1841,1913,1873
1820,1915,1765
1876,1927,1856
1862,1936,1919
1810,1915,1851
1812,1899,1793
1875,1909,1824
1887,1927,1885
1867,1938,1867
1805,1887,1713
1854,1903,1810
1861,1923,1913
1817,1918,1898
1794,1920,1819
1889,1911,1839
1890,1904,1822
1854,1919,1879
1790,1891,1851
1831,1905,1840
1872,1908,1861
1870,1923,1814
1861,1934,1828
