1834,1811,1866
1808,1788,1756
1842,1825,1841
1858,1863,1898
1840,1841,1829
1833,1837,1776
1889,1831,1796
1904,1876,1874
1845,1865,1876
1829,1813,1808
1852,1830,1836
1883,1857,1882
1871,1826,1835
1839,1819,1797
1824,1824,1825
1832,1872,1936
1823,1855,1840
1840,1827,1823
1851,1840,1836
1917,1856,1872
1877,1819,1836
1859,1824,1780
1861,1847,1831
1843,1858,1883
1823,1826,1873
1872,1822,1830
1889,1840,1845
1872,1856,1885
1808,1847,1812
1789,1824,1807
1904,1837,1891
1961,1843,1925
1853,1819,1835
1804,1790,1747
1843,1833,1874
1891,1863,1859
1913,1837,1849
1842,1779,1782
1835,1840,1811
1870,1861,1881
1857,1821,1876
1870,1785,1773
1872,1792,1795
1872,1850,1905
1841,1838,1904
1829,1826,1829
1873,1845,1851
1911,1841,1888
1881,1814,1818
1839,1803,1803
1815,1838,1851
1875,1838,1825
1869,1841,1850
1847,1815,1842
1870,1808,1884
1854,1834,1915
1812,1817,1888
1801,1795,1791
1864,1842,1840
1901,1873,1873
1834,1831,1808
1808,1796,1782
1886,1824,1841
1978,1843,1860
1915,1831,1842
1815,1795,1809
1808,1807,1782
1847,1835,1883
1841,1845,1915
1839,1819,1816
1863,1827,1779
1878,1838,1839
1909,1840,1822
1840,1818,1789
1827,1811,1881
1872,1837,1872
1841,1829,1839
1824,1822,1819
1866,1842,1855
1915,1841,1869
1915,1831,1907
1842,1791,1771
1921,1821,1791
1923,1850,1888
1843,1840,1885
1786,1811,1843
1808,1828,1857
1851,1841,1865
1870,1843,1843
1856,1818,1799
1871,1829,1829
1926,1869,1874
1877,1837,1840
1808,1808,1792
1891,1840,1877
1856,1840,1924
1839,1843,1839
1855,1832,1840
1845,1827,1817
1872,1857,1904
1904,1869,1968
1918,1827,1805
1883,1841,1830
1888,1855,1887
1832,1840,1856
1797,1815,1805
1836,1835,1893
1879,1870,1903
1905,1858,1835
1891,1830,1776
1857,1819,1820
1845,1853,1886
1819,1856,1869
1821,1834,1845
1859,1846,1866
1881,1844,1873
1931,1847,1841
1875,1817,1739
1827,1847,1850
1854,1868,1870
1863,1862,1859
1854,1840,1780
1920,1856,1857
1856,1863,1889
1840,1846,1879
1837,1839,1775
1856,1852,1868
1899,1857,1872
1859,1837,1796
1817,1819,1744
1856,1840,1825
1892,1865,1877
1857,1865,1843
1824,1829,1821
1860,1850,1839
1919,1874,1834
1847,1857,1783
1804,1829,1821
1835,1854,1861
1872,1881,1889
1887,1862,1808
1850,1808,1765
1862,1856,1830
1937,1891,1923
1900,1842,1791
1853,1819,1799
1829,1834,1808
1873,1875,1904
1931,1871,1890
1943,1843,1786
1837,1834,1771
1794,1861,1863
1796,1873,1884
1806,1815,1799
1904,1834,1831
1969,1869,1871
1819,1853,1882
1726,1841,1808
1798,1847,1808
1853,1865,1880
1843,1878,1873
1837,1840,1814
1879,1856,1795
1892,1851,1808
1842,1847,1871
1840,1840,1840
1882,1856,1845
1857,1875,1901
1843,1861,1842
1835,1834,1773
1872,1877,1880
1896,1883,1872
1831,1840,1840
1866,1829,1778
1815,1837,1791
1832,1885,1918
1839,1872,1887
1808,1839,1822
1883,1847,1814
1902,1853,1855
1788,1884,1835
1801,1851,1790
1825,1853,1847
1883,1860,1867
1787,1875,1857
1778,1840,1808
1926,1860,1837
1995,1882,1838
1780,1855,1837
1766,1831,1815
1866,1856,1853
1904,1857,1874
1904,1867,1846
1839,1826,1788
1799,1850,1847
1866,1853,1879
1840,1857,1853
1829,1857,1843
1865,1840,1833
1927,1860,1880
1910,1874,1841
1847,1817,1765
1799,1831,1869
1851,1863,1888
1827,1867,1850
1798,1849,1796
1872,1847,1824
1885,1872,1882
1827,1854,1855
1799,1839,1819
1837,1845,1835
1889,1875,1870
1835,1871,1837
1855,1851,1779
1806,1831,1821
1846,1854,1875
1871,1855,1854
1901,1842,1786
1853,1872,1854
1875,1898,1919
1911,1870,1835
1808,1844,1780
1808,1841,1829
1856,1873,1887
1842,1847,1853
1838,1835,1787
1849,1858,1808
1884,1878,1875
1872,1872,1877
1878,1841,1811
1847,1853,1819
1911,1840,1845
1936,1861,1845
1840,1871,1830
1859,1856,1845
1892,1871,1872
1857,1861,1863
1841,1846,1809
1877,1847,1776
1861,1877,1867
1874,1871,1840
1837,1855,1809
1865,1883,1854
1871,1866,1874
1855,1840,1833
1828,1850,1807
1799,1850,1824
1899,1834,1872
1936,1845,1857
1872,1847,1811
1810,1867,1843
1840,1871,1881
1875,1844,1835
1860,1850,1808
1790,1841,1815
1967,1857,1834
1904,1847,1882
1806,1829,1842
1877,1841,1831
1872,1872,1840
1871,1861,1824
1883,1843,1797
1858,1847,1826
1902,1887,1917
1872,1857,1849
1829,1823,1808
1825,1838,1840
1872,1873,1869
1883,1897,1903
1812,1835,1780
1883,1840,1808
1877,1859,1856
1874,1856,1821
1853,1851,1840
1827,1845,1856
1894,1908,1919
1901,1870,1920
1827,1833,1794
1845,1861,1829
1847,1895,1909
1822,1866,1889
1809,1812,1776
1872,1845,1791
1841,1863,1875
1863,1859,1827
1890,1813,1807
1903,1838,1819
1850,1871,1874
1809,1867,1803
1808,1857,1773
1869,1841,1919
1975,1829,1926
1855,1840,1843
1776,1839,1788
1926,1834,1842
1929,1867,1867
1824,1847,1845
1791,1855,1824
1814,1871,1889
1939,1873,1934
1849,1844,1842
1778,1827,1795
1874,1858,1835
1873,1846,1873
1838,1841,1825
1826,1835,1792
1883,1837,1831
1852,1872,1887
1851,1850,1835
1875,1782,1719
1863,1836,1854
1831,1867,1937
1830,1871,1882
1778,1825,1835
1852,1826,1790
1904,1868,1852
1867,1850,1840
1841,1841,1811
1807,1825,1808
1872,1858,1907
1893,1856,1907
1873,1808,1840
1856,1814,1794
1898,1868,1897
1909,1856,1799
1849,1811,1790
1837,1821,1838
1872,1873,1906
1777,1875,1840
1853,1840,1810
1873,1840,1849
1885,1847,1899
1862,1857,1873
1921,1825,1782
1840,1834,1808
1915,1849,1875
1871,1850,1808
1847,1835,1777
1885,1837,1782
1878,1870,1895
1852,1872,1890
1791,1814,1840
1790,1813,1850
1852,1846,1901
1851,1850,1843
1842,1847,1805
1856,1826,1814
1856,1872,1879
1838,1866,1855
1829,1819,1808
1857,1834,1814
1888,1863,1878
1865,1866,1875
1841,1841,1823
1851,1849,1817
1879,1886,1840
1863,1867,1843
1839,1826,1830
1857,1839,1849
1887,1871,1883
1860,1863,1847
1842,1852,1807
1862,1870,1830
1883,1884,1855
1873,1872,1840
1850,1833,1840
1866,1834,1841
1887,1858,1889
1874,1863,1879
1843,1861,1808
1869,1866,1822
1901,1884,1890
1886,1844,1871
1869,1770,1835
1885,1927,1856
1901,1895,1885
1895,1831,1885
1879,1808,1853
1951,2113,1950
2000,2167,1926
1892,1750,1802
1823,1629,1819
1881,1527,1898
1936,1745,1943
1921,1781,1911
1977,1924,1943
2143,2269,1997
1936,2112,1883
1840,2172,1878
1826,2435,1813
1889,3022,1868
2000,3391,1963
1974,4095,1874
1875,4069,1812
1849,3610,1791
1907,3721,1810
1933,3911,1839
1886,4095,1755
1915,4095,1782
1959,4095,1792
1970,4095,1757
1941,4095,1712
1840,4095,1690
1863,4095,1751
1950,4095,1755
1964,4095,1733
1847,4095,1706
1846,4095,1734
1874,4095,1760
1872,4095,1745
1879,4094,1743
1890,3941,1798
1859,3765,1762
1835,3706,1683
1858,3721,1735
1886,3760,1845
1872,3765,1794
1840,3469,1680
1843,3355,1697
1872,3439,1779
1872,3600,1806
1869,3882,1776
1878,3187,1751
1889,3124,1727
1817,3087,1714
1824,3037,1798
1905,3166,1865
1905,3195,1780
1846,3056,1734
1824,2927,1767
1887,2937,1786
1908,2781,1847
1899,2823,1879
1889,2963,1840
1904,2751,1808
1910,2596,1808
1898,2603,1827
1894,2602,1799
1920,2605,1855
1950,2614,1890
1940,2559,1883
1911,2497,1819
1938,2456,1855
1968,2443,1904
1965,2415,1891
1946,2352,1843
1965,2309,1863
1997,2287,1936
2010,2291,1909
1978,2231,1838
1986,2183,1859
2017,2161,1937
1993,2123,1933
1970,2070,1872
2000,2047,1901
2046,2045,1968
2028,1992,1937
1991,1907,1901
2023,1901,1922
2041,1869,1970
2028,1819,1970
2009,1744,1929
2027,1702,1929
2039,1687,1959
2032,1632,1968
2002,1581,1919
2030,1535,1938
2076,1488,2032
2063,1469,1984
2019,1380,1953
2033,1357,1963
2079,1289,2015
2070,1235,2000
2047,1181,1963
2079,1136,1986
2083,1116,1983
2071,1073,1994
2066,1047,1979
2111,1162,2029
2110,986,2021
2069,827,1968
2089,830,1978
2107,851,1991
2143,870,2032
2128,848,2014
2096,803,1964
2122,823,1974
2153,841,2023
2149,811,2000
2123,761,1942
2143,844,1969
2171,962,2047
2149,822,2000
2133,726,1949
2207,645,1998
2257,702,2088
2166,891,2026
2035,643,1861
2064,528,1872
2135,627,1968
2144,741,1987
2097,777,1918
2096,765,1914
2131,816,1959
2134,870,1968
2111,960,1922
2115,983,1931
2113,983,1964
2096,1039,1937
2111,1045,1890
2332,1137,1904
2342,1168,1855
1999,1138,1899
1856,1158,1951
1943,1229,1949
2051,1295,1967
2066,1344,1945
2044,1343,1904
2160,1483,1935
2586,1631,1954
2559,1568,1669
1821,1470,1643
1590,1616,1994
1808,1719,2073
1969,1707,1966
1996,1737,1851
2010,1778,1858
2032,1861,1915
2032,1933,1895
2002,1971,1824
1987,2090,1813
2021,2177,1861
2147,2272,1908
2139,2310,1857
1953,2304,1793
2000,2349,1904
2224,2471,1889
2383,2464,1789
1787,2422,1854
1616,2465,1981
1805,2530,1872
1865,2448,1680
1907,2486,1799
1959,2539,1872
1919,2545,1855
1835,2519,1793
1831,2526,1756
1922,2502,1795
1963,2495,1826
1847,2556,1815
1845,2511,1814
1856,2555,1817
1872,2507,1827
1856,2463,1744
1873,2487,1755
1877,2388,1769
1865,2449,1808
1886,2383,1841
1804,2386,1835
1790,2416,1871
1788,2423,1890
1762,2310,1758
1808,2224,1725
1919,2266,1783
1919,2226,1843
1818,2224,1839
1786,2134,1796
1845,2149,1775
1922,2112,1803
1937,2067,1802
1927,2062,1803
1872,2096,1879
1827,1931,1804
1823,1922,1727
1858,1937,1858
1975,1853,1911
1913,1840,1838
1811,1770,1793
1791,1680,1799
1925,1711,1903
1911,1712,1920
1811,1642,1781
1818,1489,1806
1895,1557,1840
1925,1529,1798
1865,1374,1830
1991,1419,1824
1898,1370,1862
1744,1349,1925
1718,1307,1867
1825,1262,1828
1933,1228,1831
1952,1168,1780
1778,1121,1808
1718,1050,1847
1775,990,1917
1818,944,1865
1802,910,1856
1811,865,1840
1850,855,1889
1914,834,1873
1887,726,1775
1808,784,1803
1865,749,1870
1894,675,1839
1727,600,1877
1721,678,1890
1831,599,1914
1807,656,1869
1791,523,1812
1921,560,1765
1819,554,1842
1725,592,1968
1783,563,1888
1897,510,1805
1886,560,1844
1872,432,1885
1815,466,1815
1809,499,1843
1839,510,1847
1766,511,1830
1744,528,1794
1903,476,1801
1891,525,1869
1797,527,1899
1742,448,1860
1785,481,1803
1904,543,1804
1955,526,1840
1889,511,1846
1712,467,1813
1705,567,1863
1747,547,1867
1774,534,1813
1808,546,1809
1872,589,1862
1853,595,1841
1781,587,1776
1797,527,1797
1811,654,1873
1749,590,1872
1712,554,1783
1796,629,1810
1984,654,1873
1951,725,1825
1733,640,1778
1677,725,1855
1765,690,1846
1821,656,1819
1840,680,1741
1857,714,1798
1810,751,1902
1731,770,1878
1731,753,1826
1877,771,1819
1827,823,1879
1798,848,1885
1767,838,1805
1815,854,1801
1899,857,1794
1818,880,1809
1777,880,1795
1758,934,1840
1766,976,1864
1749,959,1854
1758,939,1792
1941,969,1785
1886,1008,1838
1702,1038,1837
1694,1041,1809
1758,1039,1825
1827,1091,1859
1885,1119,1830
1779,1115,1793
1726,1119,1750
1814,1149,1840
1876,1150,1858
1782,1168,1831
1809,1197,1802
1771,1212,1805
1741,1219,1826
1765,1234,1813
1798,1263,1840
1802,1265,1867
1782,1264,1815
1763,1306,1781
1805,1344,1776
1811,1361,1851
1783,1377,1884
1766,1373,1786
1799,1330,1719
1872,1354,1767
1777,1409,1901
1715,1424,1793
1739,1438,1797
1779,1465,1895
1783,1482,1872
1763,1472,1791
1793,1487,1783
1838,1506,1843
1802,1535,1892
1783,1535,1829
1808,1533,1744
1776,1581,1810
1793,1599,1875
1808,1587,1841
1757,1571,1744
1823,1616,1806
1849,1631,1872
1837,1637,1830
1807,1639,1795
1747,1641,1840
1806,1696,1872
1808,1683,1783
1753,1669,1818
1806,1710,1882
1808,1712,1850
1809,1687,1796
1799,1719,1791
1843,1750,1847
1850,1728,1851
1811,1733,1781
1846,1737,1746
1813,1763,1823
1811,1792,1872
1738,1804,1805
1719,1772,1775
1801,1807,1867
1829,1805,1882
1783,1829,1776
1786,1837,1776
1830,1826,1862
1789,1824,1856
1764,1840,1782
1813,1853,1744
1868,1872,1830
1833,1895,1831
1817,1871,1746
1757,1846,1763
1713,1918,1881
1776,1919,1841
1792,1870,1714
1782,1924,1750
1782,1959,1822
1789,1956,1846
1791,1932,1763
1814,1941,1781
1773,2006,1809
1765,2005,1823
1749,1975,1769
1742,1984,1746
1783,2023,1799
1815,2031,1808
1791,2026,1794
1741,2000,1738
1760,2080,1840
1773,2085,1840
1738,2071,1770
1702,2079,1762
1807,2101,1824
1797,2109,1848
1804,2103,1761
1747,2087,1738
1755,2126,1871
1733,2146,1874
1712,2130,1769
1728,2119,1750
1780,2146,1834
1811,2143,1805
1782,2123,1737
1744,2139,1795
1778,2131,1860
1789,2178,1841
1731,2171,1785
1715,2146,1784
1790,2149,1834
1791,2154,1870
1683,2155,1813
1712,2175,1798
1774,2201,1818
1773,2189,1818
1777,2176,1758
1775,2203,1773
1753,2183,1863
1796,2163,1840
1787,2176,1729
1741,2190,1807
1729,2213,1845
1716,2199,1842
1729,2174,1798
1744,2183,1781
1757,2198,1856
1779,2217,1861
1846,2199,1761
1831,2207,1746
1721,2189,1829
1715,2215,1904
1744,2195,1816
1727,2183,1762
1762,2199,1755
1795,2177,1795
1830,2177,1745
1840,2224,1765
1770,2227,1824
1717,2199,1787
1675,2197,1783
1724,2186,1847
1777,2197,1831
1820,2192,1889
1846,2177,1789
1805,2167,1774
1760,2201,1890
1777,2197,1859
1798,2194,1754
1806,2185,1743
1803,2193,1851
1792,2209,1817
1757,2185,1744
1775,2163,1777
1806,2193,1855
1784,2213,1851
1745,2190,1791
1776,2177,1761
1807,2192,1829
1890,2220,1835
1813,2195,1743
1699,2166,1764
1747,2202,1862
1786,2227,1826
1783,2185,1712
1775,2187,1739
1827,2226,1827
1838,2207,1806
1805,2161,1744
1820,2165,1781
1766,2225,1882
1794,2241,1872
1801,2215,1786
1738,2217,1776
1757,2211,1775
1808,2205,1786
1831,2218,1805
1776,2224,1773
1698,2214,1781
1716,2250,1894
1758,2219,1856
1808,2192,1750
1901,2239,1807
1793,2254,1825
1789,2233,1782
1735,2219,1729
1712,2259,1805
1737,2256,1874
1743,2226,1803
1753,2234,1776
1807,2266,1769
1814,2256,1811
1772,2222,1840
1771,2237,1796
1764,2267,1835
1819,2256,1831
1895,2246,1759
1750,2270,1845
1773,2277,1776
1747,2243,1787
1680,2235,1805
1739,2239,1836
1801,2243,1867
1840,2272,1787
1789,2250,1767
1699,2231,1815
1722,2261,1893
1737,2277,1852
1767,2237,1835
1791,2213,1763
1777,2224,1843
1823,2256,1822
1794,2249,1777
1719,2243,1787
1830,2262,1840
1808,2247,1882
1721,2228,1782
1690,2230,1825
1771,2285,1824
1783,2259,1857
1776,2235,1872
1754,2256,1740
1740,2234,1756
1755,2263,1889
1738,2226,1838
1746,2192,1806
1773,2223,1902
1767,2243,1862
1735,2213,1776
1792,2180,1798
1822,2215,1834
1809,2224,1841
1746,2209,1822
1783,2192,1842
1853,2186,1810
1818,2186,1823
1678,2173,1845
1667,2162,1872
1761,2193,1895
1759,2179,1861
1701,2131,1762
1765,2128,1770
1802,2122,1866
1840,2163,1920
1779,2132,1759
1747,2128,1776
1765,2122,1855
1797,2145,1943
1775,2112,1840
1809,2104,1835
1820,2093,1833
1761,2126,1911
1699,2080,1803
1741,2102,1801
1938,2118,1715
1894,2057,1758
1701,2039,1854
1657,2022,1866
1747,2077,1920
1808,2091,1869
1859,2063,1871
1798,2032,1813
1747,2043,1868
1767,2058,1883
1806,2043,1831
1806,2006,1824
1779,2010,1794
1813,2023,1864
1907,1983,1730
1872,2000,1776
1714,2016,1922
1693,1997,1920
1744,1980,1860
1838,1981,1840
1817,2009,1799
1776,1970,1824
1794,1949,1865
1808,1934,1905
1803,1979,1913
1799,1981,1892
1785,1933,1804
1833,1943,1818
1824,1940,1811
1791,1927,1875
1779,1930,1817
1847,1933,1894
1859,1949,1901
1840,1958,1807
1809,1925,1822
1791,1919,1781
1770,1930,1899
1786,1936,2001
1872,1903,1734
1916,1917,1838
1808,1931,1902
1763,1910,1905
1743,1887,1847
1802,1897,1839
1851,1910,1867
1885,1925,1856
1849,1898,1729
1826,1890,1785
1815,1858,1853
1866,1907,1863
1810,1905,1826
1817,1915,1840
1872,1905,1872
1854,1926,1854
1756,1901,1831
1795,1879,1807
1869,1899,1836
1889,1919,1908
1817,1903,1797
1803,1871,1811
1856,1876,1881
1873,1922,1892
1866,1903,1813
1886,1853,1733
1903,1872,1776
1811,1897,1870
1758,1901,1841
1802,1860,1803
1895,1899,1845
1878,1920,1878
1769,1895,1813
1818,1877,1750
1861,1874,1840
1981,1899,1897
1886,1886,1800
1744,1877,1804
1763,1885,1840
1808,1895,1904
1854,1872,1863
1807,1872,1794
1777,1875,1808
1883,1854,1843
1797,1840,1840
1883,1859,1803
1925,1903,1805
1904,1851,1791
1861,1861,1813
1744,1859,1838
1823,1869,1872
1808,1872,1863
1817,1853,1808
1845,1835,1801
1883,1859,1862
1894,1863,1831
1846,1840,1790
1840,1841,1789
1904,1892,1858
1850,1907,1929
1802,1870,1904
1776,1831,1760
1861,1821,1776
1899,1850,1874
1904,1847,1851
1869,1843,1867
1863,1863,1879
1840,1885,1872
1811,1841,1767
1858,1807,1806
1947,1840,1919
1917,1858,1915
1837,1843,1755
1859,1798,1712
1899,1836,1840
1799,1874,1909
1763,1830,1838
1858,1821,1827
1914,1851,1840
1853,1845,1872
1808,1830,1786
1829,1806,1810
1904,1829,1914
1904,1855,1932
1808,1827,1776
1833,1824,1715
1840,1834,1891
1856,1818,1916
1793,1806,1835
1858,1792,1796
1890,1828,1865
1887,1835,1885
1776,1811,1798
1794,1801,1771
1955,1808,1851
1878,1821,1840
1870,1808,1787
1840,1803,1712
1839,1783,1807
1893,1829,1942
1823,1799,1864
1758,1785,1790
1782,1808,1823
1821,1813,1836
1850,1781,1803
1810,1779,1808
1810,1810,1867
1856,1805,1858
1798,1772,1802
1778,1808,1806
1813,1824,1819
1797,1815,1835
1798,1798,1785
1824,1776,1726
1784,1783,1834
1755,1789,1913
1727,1792,1812
1731,1798,1801
1799,1803,1870
1802,1808,1852
1779,1779,1775
1959,1770,1734
1808,1763,1832
1642,1773,1887
1647,1778,1847
1735,1763,1790
1755,1789,1843
1770,1786,1818
1721,1762,1765
1691,1737,1753
1802,1773,1779
1774,1754,1813
1719,1718,1829
1712,1738,1823
1676,1770,1813
1686,1738,1826
1680,1694,1780
1698,1680,1713
1811,1716,1765
1778,1701,1738
1616,1690,1744
1535,1696,1790
1584,1666,1807
1605,1673,1811
1607,1648,1728
1681,1651,1693
1603,1674,1750
1647,1648,1776
1584,1642,1783
1486,1634,1746
1535,1653,1749
1621,1632,1744
1642,1607,1681
1535,1615,1725
1534,1626,1813
1609,1666,1792
1680,1628,1695
1558,1602,1744
1514,1650,1791
1521,1627,1793
1520,1611,1786
1535,1601,1746
1588,1631,1772
1557,1618,1723
1569,1588,1692
1564,1616,1775
1534,1609,1801
1641,1625,1732
1575,1622,1706
1472,1619,1790
1520,1637,1840
1686,1633,1797
1694,1602,1724
1482,1617,1744
1483,1633,1856
1535,1651,1845
1571,1621,1758
1635,1593,1715
1594,1631,1758
1643,1655,1789
1561,1634,1770
1554,1607,1750
1535,1613,1811
1585,1632,1863
1606,1600,1742
1649,1601,1689
1615,1628,1758
1534,1633,1845
1563,1596,1809
1664,1589,1773
1629,1616,1781
1405,1642,1840
1523,1629,1809
1535,1641,1808
1623,1647,1807
1666,1651,1821
1587,1630,1795
1596,1643,1822
1643,1671,1846
1702,1670,1868
1713,1660,1812
1651,1622,1797
1757,1690,1861
1680,1701,1886
1588,1708,1872
1629,1707,1858
1696,1703,1911
1756,1722,1919
1759,1704,1842
1756,1680,1839
1673,1686,1926
1664,1725,1968
1665,1706,1866
1691,1685,1805
1744,1712,1840
1725,1697,1930
1687,1695,1938
1689,1711,1933
1744,1739,1941
1807,1738,1929
1792,1706,1820
1634,1697,1872
1621,1742,1947
1701,1754,1966
1767,1728,1920
1735,1728,1897
1726,1742,1957
1805,1754,1941
1744,1728,1889
1655,1702,1914
1700,1724,1972
1746,1749,1943
1701,1743,1925
1744,1751,1909
1735,1761,1914
1751,1745,1968
1776,1733,1947
1806,1699,1926
1783,1742,1931
1750,1759,1958
1711,1736,1911
1723,1734,1930
1818,1758,1970
1798,1787,2011
1727,1734,1909
1744,1710,1927
1727,1733,2005
1745,1735,2019
1744,1708,1920
1789,1712,1933
1808,1744,1935
1833,1748,1953
1749,1716,1931
1749,1680,1895
1770,1727,1937
1783,1743,1991
1773,1710,1932
1761,1690,1918
1888,1730,1968
1913,1710,1927
1759,1675,1903
1706,1693,1919
1751,1754,1973
1819,1731,1955
1824,1684,1898
1766,1685,1919
1757,1715,1972
1779,1737,1983
1759,1717,1909
1767,1730,1926
1787,1723,1967
1814,1713,2000
1819,1728,1947
1882,1715,1867
1808,1725,1951
1779,1773,2033
1782,1757,1975
1810,1730,1926
1940,1776,1971
1885,1744,1922
1715,1714,1904
1750,1735,1989
1853,1766,2032
1889,1783,2016
1805,1725,1913
1808,1732,1918
1879,1789,1979
1931,1807,2033
1845,1744,1956
1835,1735,1890
1926,1787,1968
1920,1807,2000
1789,1783,1958
1837,1771,1946
1915,1799,1978
1970,1823,1948
1915,1778,1906
1870,1776,1952
1888,1796,2027
1962,1795,1991
1893,1822,1977
1878,1801,1981
1863,1835,2055
1898,1840,2003
2021,1840,1950
1959,1761,1906
1862,1801,1990
1862,1854,2066
1903,1847,1999
1919,1807,2009
1942,1831,4095
1936,1839,4095
1887,1822,4095
1891,1806,4095
1951,1788,3293
1911,1814,1943
1839,1807,1506
1885,1798,1633
1928,1840,1782
1879,1840,1808
1926,1810,1769
1981,1803,1728
1991,1855,1795
1981,1867,1839
1881,1818,1770
1877,1822,1847
1932,1870,1849
1967,1872,1840
1937,1821,1806
1990,1840,1814
2053,1886,1865
1949,1899,1857
1939,1819,1814
2026,1815,1790
2032,1869,1856
1969,1859,1882
1872,1776,1745
1894,1761,1695
1984,1757,1775
1904,1759,1814
1813,1728,1712
1808,1712,1687
1839,1718,1719
1851,1770,1783
1797,1755,1770
1855,1759,1759
1984,1776,1810
1935,1872,1885
1890,1786,1825
1885,1826,1735
1905,1765,1773
1986,1823,1808
1915,1850,1805
1840,1842,1872
1857,1834,1899
1872,1814,1818
1875,1769,1776
1872,1753,1759
1886,1757,1776
1929,1776,1799
1775,1680,1718
1728,1703,1682
1778,1754,1739
1823,1757,1775
1833,1690,1712
1863,1715,1723
1846,1776,1782
1836,1801,1827
1936,1770,1762
1958,1778,1778
1856,1825,1886
1895,1846,1910
1907,1823,1838
1910,1840,1835
1961,1878,1872
1975,1899,1938
1919,1855,1873
1982,1871,1844
2016,1884,1891
1970,1887,1950
1902,1877,1903
1921,1873,1890
1984,1872,1935
2002,1929,1980
1974,1907,1907
1978,1899,1870
2042,1917,1899
2061,1900,1920
1982,1910,1901
1985,1921,1936
1989,1889,1929
2078,1932,1986
2041,1923,1925
1984,1946,1924
2001,1904,1996
2039,1983,1962
2090,1938,1874
2009,1915,1867
1968,1950,1989
1985,1920,2033
1999,1881,1954
2010,1953,1909
2106,1954,1920
2067,1971,1948
1985,1947,1980
2034,1904,3056
2000,1962,4095
1969,1985,2750
1961,1904,1741
2064,1936,1597
2137,1872,1733
2007,1911,1840
1915,1930,1854
1975,1925,1839
2044,1940,1817
2031,1968,1824
2017,1905,1830
1978,1883,1831
1998,1932,1833
2016,1939,1834
1987,1941,1831
1999,1935,1828
2046,1953,1831
2037,1984,1830
2062,2000,1835
2047,1978,1830
2115,1974,1829
1984,1968,1830
1920,1965,1830
1968,1993,1827
2075,2023,1831
2207,1991,1831
2045,1953,1828
1963,1984,1829
1970,1984,1831
2075,1915,1831
2079,1968,1827
2041,1891,1828
2032,2004,1829
2095,2037,1831
2141,2000,1796
2064,1965,1663
2000,2000,1771
1972,2004,1909
2006,1968,1854
2034,1970,1823
2071,1982,1877
2191,2021,1856
2146,1997,1854
1963,1954,1849
1957,1986,1904
2061,1977,1905
2130,2000,1834
2106,1937,1747
2142,1941,1794
2098,1976,1954
1936,1971,1913
1935,1904,1843
2087,2057,1836
2157,1984,1954
2133,1936,1955
2083,1952,1939
2018,2014,1839
2054,1994,1936
2062,1937,1924
2057,1953,1882
2133,1986,1939
2098,1993,1983
2043,1926,1936
1998,1963,1837
2015,1949,1895
2083,1971,1984
2045,1973,1889
2035,1921,1771
1984,1908,1874
1969,1785,1943
1934,1780,1833
1925,1813,1746
1840,1751,1700
1751,1744,1755
1735,1710,1656
1712,1683,1648
1730,1646,1665
1756,1658,1664
1651,1564,1531
1599,1567,1580
1713,1645,1680
1712,1614,1669
1648,1565,1587
1535,1505,1441
1572,1482,1510
1555,1502,1561
1590,1503,1481
1522,1488,1488
1560,1475,1562
1571,1479,1602
1475,1425,1444
1449,1450,1406
1479,1458,1376
1457,1312,1374
1421,1334,1386
1316,1291,1376
1354,1349,1472
1364,1381,1467
1353,1314,1330
1455,1307,1339
1391,1328,1308
1369,1306,1401
1314,1321,1392
1266,1309,1379
1280,1318,1415
1335,1340,1392
1421,1323,1343
1412,1295,1333
1328,1360,1435
1342,1435,1520
1293,1373,1467
1301,1360,1469
1408,1424,1494
1419,1427,1456
1402,1418,1445
1391,1424,1461
1456,1447,1513
1457,1465,1571
1389,1456,1520
1437,1490,1489
1447,1520,1571
1475,1511,1637
1533,1508,1613
1445,1502,1631
1470,1578,1648
1572,1603,1617
1569,1568,1584
1518,1582,1648
1477,1595,1727
1500,1610,1775
1535,1616,1686
1584,1606,1610
1615,1621,1677
1657,1635,1776
1563,1639,1725
1530,1631,1617
1449,1631,1712
1492,1648,1764
1571,1645,1699
1601,1648,1697
1584,1649,1747
1520,1671,1732
1490,1645,1741
1566,1651,1744
1718,1665,1757
1573,1684,1709
1526,1669,1687
1598,1658,1681
1616,1705,1769
1579,1722,1809
1489,1670,1789
1524,1663,1735
1666,1727,1791
1723,1727,1799
1606,1693,1739
1510,1692,1725
1552,1658,1708
1511,1632,1727
1472,1585,1675
1490,1577,1633
1437,1621,1705
1439,1643,1781
1502,1597,1690
1584,1616,1689
1532,1649,1729
1558,1665,1712
1439,1611,1656
1472,1587,1674
1485,1585,1675
1499,1565,1648
1451,1559,1614
1450,1535,1594
1423,1511,1584
1269,1487,1605
1213,1445,1533
1259,1423,1526
1375,1472,1578
1346,1472,1562
1364,1473,1483
1296,1415,1466
1296,1417,1531
1265,1419,1497
1237,1395,1459
1258,1377,1462
1235,1394,1486
1283,1433,1531
1313,1470,1520
1213,1437,1465
1254,1459,1529
1360,1471,1589
1387,1486,1578
1329,1461,1564
1318,1473,1581
1409,1505,1602
1359,1469,1561
1287,1446,1501
1361,1487,1523
1353,1481,1627
1285,1488,1614
1296,1487,1590
1392,1535,1591
1397,1584,1682
1328,1535,1591
1408,1535,1565
1455,1574,1650
1409,1590,1729
1405,1603,1709
1424,1617,1633
1530,1662,1767
1552,1713,1827
1598,1701,1722
1535,1685,1698
1520,1721,1797
1535,1764,1864
1490,1725,1840
1510,1712,1765
1618,1751,1755
1577,1759,1826
1535,1763,1855
1630,1791,1865
1744,1830,1901
1723,1885,2001
1655,1889,1997
1664,1883,1950
1680,1904,1941
1691,1905,1953
1744,1887,1893
1801,1893,1963
1799,1934,1989
1807,2013,2061
1777,1999,2019
1837,2013,2078
1861,2017,2113
1894,2047,2063
1909,2086,2136
1910,2094,2146
1943,2127,2187
1898,2128,2210
