1839,1860,1815
1846,1872,1815
1863,1872,1835
1895,1882,1888
1854,1859,1861
1819,1875,1813
1862,1872,1824
1983,1879,1879
1875,1872,1846
1719,1851,1792
1862,1855,1846
1842,1876,1894
1810,1862,1840
1841,1846,1769
1882,1862,1839
1882,1893,1875
1889,1889,1840
1847,1857,1790
1905,1869,1837
1956,1911,1895
1903,1867,1869
1829,1850,1814
1801,1861,1831
1847,1862,1858
1871,1872,1863
1872,1840,1815
1889,1857,1798
1865,1881,1859
1861,1889,1834
1849,1876,1834
1886,1878,1840
1931,1889,1891
1865,1881,1859
1806,1856,1814
1851,1853,1810
1899,1881,1847
1819,1889,1872
1847,1851,1796
1865,1866,1789
1889,1900,1856
1872,1903,1883
1871,1879,1824
1878,1872,1820
1921,1879,1845
1846,1879,1866
1783,1850,1821
1825,1873,1853
1938,1901,1859
1867,1889,1861
1787,1842,1796
1938,1863,1830
1837,1871,1840
1841,1883,1859
1857,1870,1828
1927,1874,1828
1894,1895,1882
1829,1883,1882
1880,1856,1788
1858,1881,1853
1826,1883,1875
1858,1872,1843
1833,1849,1819
1856,1850,1843
1893,1901,1882
1859,1902,1860
1825,1869,1837
1877,1885,1825
1931,1904,1897
1906,1872,1870
1840,1838,1767
1835,1866,1837
1855,1894,1909
1858,1904,1875
1885,1867,1791
1825,1858,1808
1851,1893,1873
1849,1875,1872
1859,1869,1839
1858,1875,1825
1878,1872,1840
1921,1883,1838
1860,1862,1813
1840,1877,1834
1858,1878,1889
1861,1881,1893
1839,1850,1792
1867,1873,1810
1852,1891,1872
1869,1872,1901
1843,1894,1858
1861,1890,1835
1909,1898,1859
1872,1907,1861
1825,1845,1799
1854,1852,1821
1915,1871,1863
1883,1903,1872
1854,1868,1814
1885,1854,1804
1890,1877,1843
1887,1885,1847
1839,1846,1787
1855,1866,1825
1889,1905,1907
1871,1916,1898
1830,1872,1798
1836,1850,1782
1874,1890,1839
1885,1906,1885
1853,1858,1808
1890,1853,1796
1864,1875,1822
1855,1904,1886
1872,1889,1847
1914,1859,1808
1889,1899,1858
1830,1870,1825
1837,1856,1808
1871,1872,1842
1869,1899,1866
1837,1877,1815
1840,1865,1774
1872,1872,1808
1887,1889,1904
1867,1897,1904
1808,1859,1818
1856,1852,1814
1895,1872,1853
1888,1872,1895
1876,1871,1819
1869,1859,1751
1859,1888,1822
1840,1891,1882
1846,1877,1857
1846,1883,1815
1874,1865,1860
1840,1877,1887
1849,1855,1825
1870,1887,1819
1903,1907,1872
1851,1888,1843
1867,1871,1786
1853,1874,1809
1863,1910,1897
1856,1910,1872
1876,1894,1821
1909,1893,1834
1880,1879,1860
1840,1855,1880
1833,1877,1809
1839,1898,1821
1872,1919,1872
1872,1919,1870
1863,1872,1782
1877,1876,1824
1900,1905,1899
1886,1898,1847
1871,1859,1790
1840,1861,1827
1861,1883,1840
1895,1910,1872
1830,1879,1794
1849,1899,1842
1883,1933,1872
1872,1904,1865
1861,1870,1813
1887,1878,1819
1909,1886,1882
1850,1898,1876
1827,1865,1806
1854,1879,1851
1875,1901,1829
1871,1883,1853
1839,1825,1802
1878,1878,1849
1907,1904,1874
1856,1883,1845
1833,1888,1827
1858,1890,1842
1883,1888,1879
1856,1888,1856
1808,1872,1792
1851,1875,1807
1888,1897,1871
1911,1884,1873
1881,1865,1790
1858,1867,1846
1872,1881,1855
1877,1925,1890
1808,1885,1810
1803,1865,1788
1911,1898,1855
1925,1875,1843
1875,1851,1775
1822,1863,1855
1837,1887,1888
1839,1870,1841
1842,1858,1814
1865,1873,1837
1862,1901,1899
1888,1895,1846
1830,1862,1815
1820,1855,1797
1852,1887,1897
1852,1886,1891
1847,1858,1822
1855,1849,1792
1904,1884,1898
1897,1905,1909
1876,1869,1813
1886,1872,1807
1904,1883,1808
1859,1936,1872
1801,1830,1786
1840,1842,1836
1882,1872,1920
1882,1916,1823
1827,1808,1789
1856,1915,1847
1881,1927,1893
1891,1899,1888
1868,1942,1853
1885,1872,1837
1856,1915,1862
1863,1839,1839
1865,1891,1835
1855,1873,1793
1871,1874,1849
1868,1860,1887
1840,1872,1823
1861,1863,1866
1875,1872,1872
1872,1902,1923
1815,1867,1839
1809,1867,1787
1889,1853,1862
1919,1927,1865
1839,1827,1821
1835,1838,1801
1917,1843,1831
1858,1898,1849
1819,1871,1840
1841,1934,1809
1862,1887,1883
1856,1872,1875
1826,1842,1826
1850,1873,1810
1872,1863,1872
1881,1872,1854
1940,1870,1811
1904,1856,1776
1840,1877,1862
1838,1872,1854
1767,1839,1765
1850,1885,1840
1886,1885,1942
1858,1876,1936
1833,1865,1823
1843,1850,1808
1877,1840,1836
1899,1834,1855
1893,1855,1792
1827,1856,1820
1769,1839,1854
1857,1923,1867
1847,1891,1871
1867,1807,1860
1887,1858,1878
1886,1868,1820
1841,1815,1828
1847,1880,1840
1887,1857,1856
1952,1893,1829
1855,1840,1822
1819,1866,1869
1894,1871,1853
1878,1882,1873
1807,1840,1833
1807,1838,1818
1870,1904,1863
1855,1845,1855
1880,1842,1841
1868,1840,1848
1887,1870,1874
1901,1827,1819
1859,1861,1835
1856,1874,1836
1863,1905,1877
1808,1840,1842
1805,1793,1751
1873,1829,1833
1887,1860,1875
1893,1872,1886
1872,1808,1810
1857,1834,1825
1840,1843,1871
1842,1869,1858
1835,1855,1827
1842,1817,1796
1874,1837,1808
1863,1871,1854
1840,1847,1874
1853,1819,1850
1886,1834,1863
1838,1829,1813
1841,1853,1776
1850,1883,1822
1874,1863,1908
1846,1843,1872
1859,1840,1770
1834,1809,1762
1898,1869,1873
1877,1860,1936
1894,1843,1862
1882,1838,1809
1840,1851,1828
1904,1828,1851
1842,1817,1776
1802,1857,1814
1857,1886,1853
1875,1833,1817
1845,1795,1819
1840,1840,1866
1872,1832,1872
1898,1849,1867
1851,1917,1854
1837,1830,1808
1873,1923,1826
1893,1923,1872
1860,1884,1774
1881,1825,1792
1885,1883,1857
1856,1924,1872
1809,1842,1810
1876,1861,1842
1937,1872,1821
1866,1847,1799
1849,1861,1858
1831,1867,1866
1809,1855,1851
1899,1838,1805
1901,1895,1847
1811,1853,1876
1850,1885,1894
1882,1872,1872
1853,1871,1807
1863,1859,1797
1920,1856,1863
1873,1836,1837
1808,1808,1741
1855,1903,1837
1872,1875,1897
1874,1902,1886
1827,1789,1814
1837,1867,1840
1863,1872,1886
1859,1792,1830
1861,1840,1775
1842,1905,1814
1872,1856,1892
1851,1890,1858
1840,1834,1753
1847,1840,1777
1872,1860,1881
1859,1880,1904
1845,1889,1799
1844,1872,1829
1849,1813,1860
1841,1922,1856
1862,1895,1795
1859,1840,1801
1886,1872,1833
1878,1870,1809
1858,1874,1831
1823,1872,1872
1845,1876,1856
1870,1859,1856
1838,1857,1819
1841,1861,1830
1869,1872,1841
1859,1889,1840
1882,1882,1830
1846,1854,1782
1852,1871,1840
1834,1875,1831
1867,1834,1792
1869,1862,1834
1886,1904,1902
1862,1909,1890
1823,1865,1801
1856,1837,1790
1874,1866,1851
1867,1868,1841
1847,1840,1771
1857,1863,1780
1869,1863,1822
2001,1887,1825
1934,1902,1862
1833,1898,1886
1811,1889,1865
1817,1869,1857
1839,1846,1808
1872,1851,1840
1870,1864,1830
1878,1891,1850
1867,1866,1840
1879,1872,1855
1901,1895,1810
1875,1879,1852
1839,1855,1821
1862,1855,1840
1926,1877,1860
1931,1872,1783
1842,1856,1780
1862,1879,1888
1861,1915,1936
1866,1891,1878
1833,1855,1804
1846,1856,1798
1907,1899,1856
1922,1885,1849
1870,1846,1825
1857,1882,1827
1917,1914,1887
1918,1852,1828
1886,1853,1778
1959,1853,1797
1920,1908,1893
1807,1892,1910
1795,1845,1873
1857,1868,1859
1914,1914,1873
1895,1872,1831
1840,1839,1790
1861,1838,1826
1881,1872,1840
1883,1858,1863
1855,1841,1828
1892,1849,1855
1887,1863,1862
1924,1885,1855
1887,1829,1802
1873,1839,1840
1878,1890,1876
1844,1873,1898
1840,1829,1846
1847,1872,1844
1859,1869,1840
1881,1842,1824
1872,1830,2017
1875,1840,1795
1876,1870,1774
1847,1850,1812
1854,1841,1830
1855,1840,1837
1870,1857,1829
1885,1871,1827
1861,1841,1829
1872,1839,1829
1893,1859,1826
1910,1876,1826
1859,1838,1823
1859,1842,1826
1857,1837,1831
1856,1855,1830
1858,1882,1834
1857,1854,1833
1891,1862,1827
1861,1858,1823
1832,1840,1829
1847,1838,1827
1888,1843,1831
1903,1854,1828
1879,1855,1827
1878,1872,1831
1873,1875,1829
1840,1889,1830
1842,1862,1830
1868,1839,1830
1954,1856,1827
1951,1897,1826
1799,1868,1829
1808,1856,1843
1894,1883,1885
1903,1883,1873
1831,1863,1802
1867,1863,1809
1938,1875,1842
1888,1874,1842
1831,1870,1824
1840,1869,1836
1883,1877,1904
1891,1891,1939
1866,1872,2273
1874,1873,2033
1929,1872,1789
1913,1870,1744
1830,1861,1806
1823,1873,1895
1857,1894,1903
1877,1887,1876
1853,1854,1904
1583,1535,4095
0,0,4095
0,0,4095
0,0,4095
0,0,4095
0,0,4095
0,0,4095
0,0,4095
0,0,4095
0,0,2896
0,0,1805
0,0,1586
0,0,1739
0,0,1849
0,0,1862
0,0,1840
0,0,1833
0,295,1830
617,858,1827
967,1033,1803
1085,1139,1840
1163,1232,1831
1247,1328,1829
1306,1392,1828
1415,1479,1833
1511,1637,1829
1569,1535,1822
1600,1510,1804
1693,1724,1857
1776,1873,1813
1840,1950,1839
1858,1937,1790
1949,1987,1811
2069,2192,1808
2068,2259,1858
1946,2163,1837
2015,2295,1823
2121,2533,1784
2129,2519,1737
2160,2551,1708
2245,2783,1778
2240,2891,1762
2193,2806,1741
2267,2871,1726
2335,3055,1759
2271,3058,1675
2226,3056,1646
2337,3364,1691
2667,3558,1954
2830,3469,2058
2279,3259,1587
1959,3061,1311
2185,3139,1454
2362,3373,1566
2367,3663,2449
1989,3349,4095
1232,2559,2942
421,1744,1820
0,1088,1574
0,622,1730
0,497,1721
0,560,565
0,679,2768
0,317,1227
0,560,546
0,1122,1189
0,1635,2291
0,1743,2201
256,1888,1264
867,2180,1487
1219,2347,1821
1409,2542,1908
1600,2854,1869
1759,3031,1807
1818,3088,1850
1776,3093,1825
1853,3166,1796
1951,3334,1829
2032,3476,1812
2066,3561,1857
2111,3645,1843
2186,3761,1822
2241,3894,1845
2243,3891,1840
2242,3956,1825
2288,4053,1829
2314,4095,1829
2320,4080,1851
2375,4095,1904
2406,4095,1935
2426,4095,1890
2420,4095,1737
2447,4095,1755
2501,4095,1855
2486,4095,1838
2450,4095,1777
2511,4095,1673
2547,4095,1762
2558,4095,1844
2495,4095,1712
2517,4095,1633
2609,4095,1789
2581,4095,1691
2517,4095,1535
2537,4086,1575
2559,4095,1646
2629,4095,1634
2622,4075,1584
2543,4095,1646
2548,4095,1721
2559,4095,1680
2558,3997,1616
2591,3967,1502
2613,3984,1631
2607,4073,1651
2559,3969,1589
2554,3634,1535
2590,3682,1589
2618,4034,1626
2590,3685,1535
2620,3510,1523
2644,3547,1605
2559,3603,1615
2515,3547,1515
2523,3441,1510
2579,3551,1568
2625,3568,1565
2532,3403,1506
2467,3403,1459
2527,3526,1523
2596,3536,1595
2519,3345,1440
2469,3323,1406
2497,3421,1559
2687,3645,1680
2580,3525,1583
2351,3389,1442
2359,3472,1407
2421,3611,1486
2397,3569,1387
2401,3649,1365
2387,3751,1453
2395,3859,1461
2368,3824,1406
2327,3860,1392
2359,4032,1438
2330,4095,1403
2336,4095,1398
2325,4095,1376
2378,4095,1481
2320,4095,1425
2245,4095,1390
2251,4095,1375
2334,4095,1452
2384,4095,1520
2384,4095,1443
2272,4095,1394
2243,4095,1457
2218,4095,1472
2236,4095,1402
2320,4095,1375
2351,4095,1455
2266,4095,1535
2186,4095,1458
2173,4095,1467
2253,4095,1535
2304,4095,1509
2176,4095,1403
2180,4095,1501
2297,4095,1521
2303,4095,1535
2256,4095,1600
2234,4095,1534
2162,4095,1510
2186,4095,1508
2215,4095,1424
2175,4095,1584
2207,4095,1628
2229,4095,1634
2161,4095,1483
2192,4095,1511
2277,4095,1689
2290,4095,1638
2250,4095,1591
2187,4095,1535
2174,4095,1635
2306,4095,1651
2330,4095,1535
2238,4095,1578
2185,4095,1641
2176,4095,1642
2193,4095,1613
2162,4095,1616
2225,4095,1664
2284,4095,1667
2225,4095,1594
2144,4095,1664
2134,4095,1742
2211,4095,1751
2225,4095,1632
2170,4095,1654
2190,4095,1732
2211,4095,1744
2160,4095,1663
2163,4095,1681
2141,4095,1700
2117,4095,1741
2053,4095,1723
2031,4095,1730
2077,4095,1766
2093,4095,1808
1979,4095,1701
1989,4020,1680
1974,3744,1802
2000,3761,1872
2023,3442,1763
1857,3174,1678
1805,3174,1732
1877,3261,1834
1841,3222,1783
1894,3292,1773
1879,3247,1822
1830,3243,1853
1875,3317,1877
1854,2928,1829
1830,2757,1778
1879,2992,1830
1894,2798,1854
1955,2642,1881
1895,2829,1965
1798,2723,1899
1791,2544,1818
1813,2625,1900
1858,2675,1978
1917,2615,1983
1910,2437,1872
1808,2426,1911
1950,2446,2026
1907,2295,2046
1893,2240,1940
1879,2162,1862
1936,2183,1965
1937,2206,1993
1870,2114,1911
1894,2096,1972
2001,2128,2085
2038,2086,2082
2007,2016,2032
1968,1962,2018
1951,1888,2010
2067,1900,1984
2130,1906,1925
2113,1826,2027
1788,1693,2023
1718,1662,2022
2038,1599,1897
2097,1641,1972
1858,1614,2093
1905,1628,2161
1856,1587,2014
1730,1570,1982
1820,1594,2060
1866,1462,2030
1846,1374,1919
1882,1363,1954
1874,1450,2019
1893,1330,2005
1874,1229,1947
1843,1294,1978
1903,1463,2021
2021,1294,1996
2002,1212,1917
1795,1343,1977
1742,1133,1920
1900,1719,2094
1871,1641,1982
1776,579,1716
1877,621,1834
1963,1073,1987
2143,2553,2019
2000,1435,1859
1553,34,1808
1584,246,1930
1776,647,1936
1858,907,1936
1825,858,2000
1747,848,1961
1647,796,1847
1799,803,1837
1933,848,1930
1951,874,1958
1766,713,1872
1632,1117,1962
1698,702,1937
2119,610,1979
2325,738,1953
2077,592,1725
1872,551,1782
1691,645,1986
1595,551,1857
1517,558,1867
1654,608,1974
1785,638,1903
1830,592,1872
1739,535,1921
1691,578,1999
1616,579,1976
1587,544,1840
1692,511,1783
1743,563,1860
1717,573,1918
1666,474,1842
1662,457,1783
1719,533,1867
1696,570,1882
1655,542,1822
1647,490,1815
1744,498,1844
1790,582,1823
1744,655,1856
1616,451,1825
1759,413,1811
1994,510,1783
1664,444,1715
1488,478,1758
1535,576,1869
1693,470,1873
1783,452,1761
1762,503,1750
1899,592,1813
1841,595,1776
1628,586,1760
1453,651,1795
1491,720,1860
1579,771,1861
1535,731,1757
1632,767,1740
1807,842,1755
1968,882,1669
1775,893,1761
1513,965,1754
1809,1065,1725
1953,1155,1823
1825,1250,1834
1497,1254,1723
1442,1369,1909
1570,1407,1866
1637,1435,1760
1601,1493,1822
1503,1503,1685
1607,1657,1849
1667,1664,1853
1886,1751,1835
1723,1741,1742
1535,1775,1794
1488,1799,1831
1584,1809,1877
1769,1873,1793
1744,1849,1783
1756,1918,1827
1776,1936,1882
1567,1925,1902
1535,1971,1904
1535,1883,1827
1588,1881,1840
1559,1895,1815
1590,1942,1904
1915,1891,1893
1687,1837,1815
1608,1875,1920
1639,1822,1859
1643,1840,1887
1726,1805,1918
1770,1807,1937
1679,1838,1950
1792,1795,1894
1806,1717,1792
1769,1758,1990
1761,1776,2034
1648,1744,1911
1675,1714,1891
1808,1759,1939
1779,1745,1973
1709,1703,1950
1808,1697,1866
1872,1713,1949
1858,1692,1967
1872,1655,1930
1851,1714,1973
1742,1710,2012
1770,1645,2011
1808,1618,1915
1824,1600,1883
1899,1633,2003
1891,1622,1936
1795,1586,1981
1759,1501,1967
1987,1563,1967
1947,1594,2059
1773,1517,1993
1905,1527,2015
1925,1535,2015
1811,1523,1991
1809,1482,1922
1840,1450,1856
2018,1500,1934
2003,1527,2093
1821,1466,2063
1819,1484,1940
1867,1452,1995
1898,1415,1933
1981,1424,1939
1878,1431,2030
1924,1438,2047
1933,1427,2003
1961,1411,1951
1949,1370,1931
1890,1361,1985
1859,1347,2061
1966,1319,1974
1897,1291,1958
1904,1327,2005
1901,1280,1953
1973,1284,1902
1959,1265,1955
1975,1253,2015
2064,1267,1982
1931,1233,1950
1888,1225,1952
1941,1221,1952
2003,1232,2070
2001,1206,1919
1933,1199,1928
1887,1202,1958
1903,1216,2027
1945,1200,1969
1948,1153,1934
2043,1195,2000
2000,1183,1983
1957,1138,1903
1936,1127,1831
2078,1200,1923
1971,1200,2055
1855,1151,1986
1883,1087,1904
2112,1149,1937
2013,1184,2000
1893,1157,1958
1942,1137,1955
2000,1137,1954
1981,1168,1964
1968,1174,1904
1954,1115,1856
2039,1149,1959
1982,1167,1979
1987,1136,1885
1985,1138,1862
2001,1152,1911
1949,1162,2000
1904,1152,1936
1970,1168,1936
1984,1174,1925
2016,1213,1984
1962,1145,1879
1984,1178,1902
2027,1207,1905
1936,1189,1838
1922,1140,1856
1958,1168,1911
1966,1216,1967
1987,1205,1968
2027,1202,1845
1950,1207,1857
1937,1233,1923
1968,1235,1954
1938,1179,1843
1977,1186,1813
1961,1262,1927
1953,1294,1966
1931,1275,1871
1943,1230,1778
1970,1248,1866
2000,1299,1987
1991,1238,1943
1950,1227,1828
1991,1311,1846
2032,1313,1859
1946,1251,1792
1920,1254,1833
2066,1334,1959
1950,1328,1951
1865,1306,1904
1872,1297,1854
2011,1296,1882
2073,1310,1875
2047,1328,1809
1938,1327,1845
1904,1322,1894
1936,1355,1968
1906,1318,1893
1934,1327,1843
2064,1357,1781
2113,1360,1812
1991,1339,1834
1791,1351,1911
1827,1379,1955
1925,1394,1904
1974,1360,1808
1958,1406,1843
1961,1425,1898
1983,1394,1908
1951,1360,1810
1962,1365,1763
2000,1425,1871
2029,1474,1934
1934,1430,1873
1911,1415,1817
2004,1437,1808
1999,1387,1771
1831,1431,1837
1931,1491,1885
2058,1472,1844
1948,1441,1838
1871,1408,1827
1859,1437,1742
1920,1505,1821
1977,1488,1897
1907,1513,1792
1904,1421,1694
1999,1482,1845
1984,1535,1941
1899,1534,1872
1939,1565,1767
1968,1502,1840
1931,1520,1864
1929,1482,1773
1953,1488,1773
1903,1498,1838
1910,1568,1831
1919,1568,1815
1891,1524,1817
1941,1535,1803
1931,1584,1798
1936,1559,1795
1913,1573,1827
1941,1579,1861
1979,1622,1877
1963,1567,1770
2047,1600,1776
1899,1627,1796
1862,1609,1885
1840,1529,1821
1867,1572,1731
1961,1567,1771
1941,1632,1868
1930,1627,1814
1905,1609,1753
1925,1633,1824
1879,1630,1857
1936,1634,1815
1969,1616,1755
1970,1659,1818
1885,1661,1811
1856,1658,1859
1897,1663,1837
1907,1663,1823
2011,1685,1775
1987,1649,1744
2059,1633,1746
1872,1667,1840
1805,1747,1909
1821,1694,1846
1885,1716,1803
1952,1728,1808
1936,1740,1787
1918,1706,1795
1937,1651,1776
1968,1741,1778
1929,1742,1870
1831,1754,1828
1847,1766,1783
1904,1799,1841
1927,1738,1859
2012,1719,1774
1986,1746,1731
1846,1760,1853
1885,1785,1902
1897,1767,1799
1921,1791,1761
1953,1790,1809
1923,1808,1830
1951,1808,1805
1854,1753,1735
1864,1802,1856
1923,1842,1895
1947,1843,1781
1936,1808,1712
1891,1854,1831
1893,1795,1914
1905,1873,1817
1965,1831,1769
1923,1810,1830
1888,1862,1904
1839,1766,1755
1940,1888,1783
1940,1876,1803
1924,1850,1799
1934,1840,1794
1847,1837,1801
1890,1866,1827
1986,1932,1847
1918,1899,1838
1840,1937,1855
1863,1903,1850
1953,1902,1883
1914,1874,1814
1910,1878,1821
1895,1916,1865
1866,1887,1821
1873,1808,1680
1985,1897,1766
1918,1936,1914
1902,1950,1904
1879,1897,1747
1845,1873,1743
1873,1920,1847
1904,1952,1892
1904,1935,1818
1953,1899,1750
1973,1938,1819
1839,1906,1829
1833,1936,1783
1904,1932,1801
1920,1984,1864
1919,1995,1853
1872,1951,1805
1893,1959,1795
1957,1919,1840
1920,1972,1815
1881,1979,1819
1912,1931,1786
1917,1990,1845
1907,2063,1906
1876,1952,1765
1947,1972,1764
2001,1999,1855
1943,2003,1956
1898,1966,1830
1923,1935,1755
1968,1967,1840
1931,2005,1909
1923,1965,1796
1945,1995,1778
1926,2014,1893
2034,2000,1930
1909,1984,1855
1817,1971,1815
1887,1996,1843
1968,2112,1904
1908,2001,1854
1885,2016,1808
1968,2026,1901
2037,2044,1943
1955,2004,1827
1943,1941,1773
1888,2022,1886
1906,2000,1904
1897,1975,1776
1921,1995,1822
1984,2036,1947
1953,2075,1929
1891,1920,1846
1933,1946,1776
1985,1943,1740
1963,1861,1843
1863,1943,1872
1861,2000,1861
1951,1954,1947
1954,1935,1971
1903,1890,1818
1927,1844,1756
1925,1853,1855
1927,1872,1902
1899,1812,1847
1989,1795,1803
1969,1831,1869
1904,1813,1890
1841,1795,1856
1885,1776,1776
2031,1801,1811
1937,1823,1932
1858,1794,1889
1867,1790,1872
1895,1787,1840
1968,1815,1911
1951,1797,1858
1862,1751,1841
1862,1776,1839
1931,1809,1904
1935,1776,1841
1906,1755,1754
1891,1793,1812
1950,1791,1935
1904,1746,1823
1850,1737,1867
1870,1771,1908
1904,1783,1894
1886,1719,1774
1899,1744,1808
1931,1753,1872
1958,1770,1898
1890,1742,1776
1871,1719,1765
1930,1753,1818
1926,1746,1899
1827,1746,1875
1818,1718,1812
1920,1747,1840
1955,1776,1839
1917,1750,1866
1872,1749,1873
1866,1745,1840
1885,1763,1840
1872,1735,1728
1838,1724,1835
1872,1721,1916
1908,1691,1833
1907,1730,1808
1874,1771,1850
1866,1751,1851
1891,1741,1872
1872,1741,1797
1872,1728,1773
1907,1754,1846
1914,1751,1886
1842,1681,1732
1870,1676,1701
1913,1776,1891
1869,1791,1961
1851,1730,1872
1852,1719,1782
1921,1755,1824
1952,1744,1830
1853,1724,1813
1806,1729,1823
1836,1733,1791
1866,1779,1845
1839,1733,1795
1863,1698,1782
2011,1765,1838
1904,1786,1885
1811,1762,1847
1812,1739,1766
1851,1754,1793
1919,1765,1798
1893,1755,1806
1799,1767,1854
1811,1771,1840
1826,1761,1835
1867,1761,1781
1888,1783,1808
1857,1774,1829
1835,1787,1833
1830,1767,1803
1843,1765,1850
1879,1773,1840
1924,1759,1757
1907,1774,1824
1780,1787,1872
1821,1805,1874
1895,1808,1875
1893,1781,1802
1827,1739,1781
1842,1777,1808
1889,1797,1831
1873,1751,1734
1833,1781,1788
1808,1808,1888
1811,1792,1847
1833,1769,1809
1861,1764,1867
1917,1808,1853
1907,1797,1826
1821,1744,1761
1857,1750,1700
1930,1837,1909
1845,1806,1922
1787,1753,1798
1842,1747,1748
1894,1783,1818
1878,1824,1905
1804,1770,1806
1794,1716,1708
1938,1799,1845
1973,1826,1911
1876,1792,1840
1775,1749,1740
1827,1776,1831
1856,1790,1875
1792,1765,1788
1911,1808,1823
1903,1773,1783
1777,1754,1797
1809,1762,1755
1904,1812,1830
1903,1807,1805
1779,1760,1729
1873,1845,1861
1853,1837,1974
1882,1815,1943
1941,1808,1799
1899,1823,1786
1774,1769,1772
1857,1813,1807
1905,1855,1871
1837,1763,1730
1883,1775,1799
1819,1759,1831
1712,1716,1655
1917,1814,1818
1878,1839,1961
1811,1803,1887
1824,1779,1805
1865,1820,1888
1873,1825,1867
1872,1766,1789
1898,1744,1783
1859,1779,1841
1808,1781,1869
1809,1779,1808
1869,1778,1843
1845,1787,1872
1806,1760,1756
1904,1774,1767
1856,1783,1876
1845,1806,1891
1789,1795,1840
1829,1794,1843
1851,1796,1907
1825,1743,1777
1856,1766,1747
1867,1792,1840
1838,1803,1815
1818,1801,1909
1796,1793,1829
1838,1775,1867
1918,1815,1872
1842,1799,1746
1792,1777,1803
1837,1786,1803
1899,1854,1929
1837,1791,1873
1823,1747,1808
1831,1776,1805
1847,1850,1863
1808,1821,1826
1831,1799,1823
1839,1760,1767
1842,1825,1818
1840,1814,1877
1824,1792,1816
1850,1835,1851
1853,1840,1871
1855,1794,1817
1819,1821,1782
1839,1847,1865
1823,1827,1851
1770,1775,1690
1883,1821,1803
1857,1847,1917
1840,1875,1934
1794,1855,1865
1798,1809,1806
1851,1842,1827
1887,1870,1808
1847,1838,1792
1819,1806,1741
1884,1861,1840
1860,1878,1934
1782,1829,1872
1766,1789,1776
1836,1872,1875
1854,1901,1869
1831,1846,1859
1803,1776,1699
1872,1844,1810
1899,1885,1883
1857,1856,1895
1869,1845,1866
1844,1870,1834
1830,1859,1867
1793,1824,1782
1888,1827,1799
1819,1840,1841
1822,1859,1895
1821,1877,1888
1838,1875,1807
1865,1862,1899
1904,1873,1918
1846,1835,1847
1837,1841,1839
1850,1835,1818
1830,1861,1856
1749,1808,1899
1840,1850,2535
1893,1871,3520
1842,1871,4090
1767,1835,4033
1783,1808,4031
1831,1812,4095
1808,1814,4095
1778,1797,3915
1776,1790,4095
1705,1795,4095
1712,1801,4095
1712,1781,4095
1709,1750,4095
1734,1739,4095
1779,1760,4095
1718,1767,4095
1674,1761,4095
1718,1766,4095
1698,1771,4095
1673,1746,4095
1662,1748,4095
1699,1765,2250
1719,1773,523
1747,1795,178
1761,1791,369
1774,1808,598
1843,1859,691
1760,1859,640
1763,1829,583
1786,1854,650
1808,1885,724
1783,1867,682
1771,1819,619
1866,1849,573
1936,1923,848
1847,1914,816
1765,1893,771
1797,1891,758
1871,1911,779
1825,1894,833
1815,1882,827
1847,1892,839
1904,1936,850
1840,1907,843
1838,1867,835
1879,1903,889
1859,1954,1019
1856,1919,938
1856,1889,847
1868,1890,947
1911,1904,996
1861,1901,969
1872,1921,938
1872,1922,949
1856,1938,1062
1851,1920,1014
1883,1877,971
1917,1920,1088
1894,1947,1152
1879,1879,1012
1859,1873,1008
1882,1936,1130
1889,1956,1131
1893,1934,1123
1895,1895,1007
1904,1924,1105
1943,1931,1216
1916,1932,1143
1849,1891,1152
1872,1920,1225
1875,1924,1191
1906,1904,1152
1879,1883,1142
1901,1931,1264
1904,1956,1299
1857,1907,1219
1872,1921,1169
1927,1931,1245
1907,1945,1295
1891,1920,1280
1921,1891,1181
1927,1922,1264
1899,1962,1408
1860,1898,1289
1875,1873,1232
1898,1935,1346
1891,1955,1393
1878,1958,1378
1888,1915,1359
1873,1907,1357
1936,1911,1360
1931,1915,1347
1904,1909,1390
1893,1936,1449
1904,1957,1486
1888,1935,1449
1883,1917,1399
1887,1921,1411
1902,1903,1445
1937,1908,1388
1934,1918,1465
1872,1911,1535
1881,1938,1535
1873,1935,1487
1869,1906,1444
1898,1920,1485
1959,1935,1499
1998,1936,1500
1861,1904,1501
1902,1915,1552
1879,1918,1567
1872,1904,1497
1862,1913,1535
1903,1930,1581
1919,1946,1600
1899,1920,1560
1904,1893,1523
1906,1899,1573
1879,1911,1579
1871,1915,1593
1879,1881,1533
1983,1911,1573
1942,1925,1664
1888,1933,1675
1803,1905,1584
1893,1920,1604
1897,1923,1648
1937,1942,1694
1913,1894,1631
1882,1904,1618
1917,1935,1694
1861,1889,1646
1933,1894,1620
1904,1909,1683
1939,1931,1745
1857,1921,1664
1871,1907,1617
1941,1917,1681
1951,1904,1741
1890,1925,1730
1871,1866,1646
1890,1883,1658
1890,1930,1773
1920,1920,1767
1905,1891,1722
1919,1904,1733
1923,1920,1755
1867,1901,1712
1845,1892,1680
1904,1910,1760
1905,1937,1827
1851,1894,1717
1843,1858,1670
1903,1898,1744
1932,1936,1799
1887,1877,1730
1899,1875,1745
1883,1913,1811
1852,1917,1812
1869,1881,1744
1871,1869,1763
1884,1903,1818
1898,1926,1826
1833,1893,1767
1809,1863,1732
1856,1898,1791
1895,1922,1819
1923,1869,1744
1821,1836,1737
1851,1915,1826
1835,1915,1855
1862,1872,1779
1872,1833,1770
1863,1872,1791
1862,1908,1802
1856,1889,1830
1842,1869,1803
1882,1890,1829
1855,1890,1849
1877,1872,1806
1835,1865,1775
1902,1872,1802
1928,1887,1839
1911,1883,1808
1853,1863,1795
1888,1855,1782
1894,1879,1822
1785,1890,1862
1776,1904,1809
1867,1886,1854
1873,1891,1904
1838,1873,1850
1892,1865,1804
1879,1894,1866
1810,1899,1872
