1901,1470,1872
1904,1469,1877
1881,1431,1835
1863,1423,1815
1879,1435,1841
1879,1383,1870
1855,1373,1842
1834,1407,1792
1847,1357,1776
1857,1370,1818
1839,1361,1821
1811,1328,1781
1831,1291,1809
1843,1325,1802
1839,1355,1761
1818,1267,1783
1828,1264,1827
1849,1269,1840
1856,1227,1776
1820,1180,1728
1807,1163,1798
1819,1171,1850
1817,1166,1808
1808,1134,1780
1834,1149,1774
1844,1143,1840
1824,1115,1790
1813,1105,1756
1855,1136,1775
1852,1153,1867
1827,1089,1872
1811,1078,1803
1842,1135,1843
1862,1159,1887
1858,1153,1872
1847,1108,1802
1869,1075,1833
1889,1083,1907
1871,1086,1895
1859,1165,1858
1891,1184,1875
1936,1168,1872
1905,1205,1915
1871,1190,1898
1896,1165,1911
1936,1173,1990
1933,1186,1963
1914,1175,1918
1936,1218,1953
1959,1232,1938
1964,1287,1922
1943,1219,1943
1968,1223,2001
2002,1227,1988
2053,1234,1998
2012,1217,1971
1955,1232,2009
1973,1265,2032
1999,1269,2032
2019,1270,1981
2119,1299,1936
2015,1329,2058
1962,1286,2096
1984,1335,2055
2025,1325,2000
2032,1362,2039
2028,1363,2077
2019,1365,2058
2029,1472,2021
2064,1506,2064
2064,1514,1988
2047,1581,2045
2069,1641,2113
2094,1729,2130
2077,1735,2078
2070,1808,2045
2090,1820,2047
2133,1888,2135
2134,1921,2155
2077,1951,2047
2097,1968,2023
2119,1983,2124
2130,2006,2166
2098,2055,2135
2113,2130,2117
2127,2181,2129
2129,2205,2155
2131,2215,2135
2146,2259,2146
2159,2306,2192
2144,2319,2170
2142,2332,2128
2145,2369,2099
2184,2381,2182
2219,2388,2172
2160,2389,2139
2163,2405,2160
2151,2412,2207
2157,2415,2195
2169,2412,2126
2232,2416,2150
2234,2413,2158
2161,2401,2192
2119,2399,2174
2178,2391,2144
2282,2384,2192
2240,2379,2192
2177,2393,2176
2158,2407,2176
2193,2401,2239
2220,2385,2239
2176,2367,2163
2181,2373,2192
2207,2388,2245
2218,2377,2224
2215,2370,2191
2225,2357,2169
2243,2354,2220
2287,2350,2213
2232,2325,2165
2253,2335,2228
2229,2336,2269
2224,2305,2233
2218,2271,2163
2235,2270,2166
2304,2288,2284
2303,2271,2288
2235,2242,2221
2331,2273,2258
2325,2267,2269
2224,2225,2230
2224,2180,2210
2288,2181,2221
2291,2201,2298
2260,2194,2259
2256,2158,2199
2283,2139,2230
2288,2145,2254
2299,2143,2259
2351,2138,2222
2329,2121,2239
2288,2124,2263
2298,2096,2267
2299,2082,2253
2330,2079,2245
2384,2069,2267
2368,2045,2255
2304,2013,2187
2327,1982,2187
2352,1988,2256
2332,2013,2333
2320,1995,2289
2343,1984,2258
2354,1949,2261
2308,1913,2213
2295,1899,2187
2420,1923,2240
2506,1915,2306
2383,1892,2311
2314,1862,2265
2347,1861,2211
2381,1841,2256
2393,1809,2266
2395,1777,2241
2391,1776,2202
2398,1764,2214
2381,1749,2224
2384,1713,2234
2384,1694,2209
2413,1695,2229
2405,1665,2229
2336,1633,2209
2342,1621,2241
2373,1618,2251
2362,1581,2210
2338,1535,2176
2362,1535,2191
2384,1527,2222
2416,1521,3047
2381,1471,2580
2375,1458,2161
2401,1430,2071
2403,1395,2125
2411,1344,2098
2466,1328,2144
2349,1347,2175
2294,1335,2166
2292,1309,2124
2322,1294,2140
2322,1271,2160
2307,1269,2154
2342,1233,2129
2395,1205,2134
2463,1232,2148
2438,1227,2157
2320,1162,2145
2304,1163,2160
2351,1162,2172
2364,1154,2149
2357,1111,2139
2368,1126,2141
2435,1100,2142
2323,1072,2099
2373,1046,2067
2283,1043,2102
2343,1090,2214
2348,1016,2185
2349,1033,2133
2363,1040,2179
2339,1042,2147
2384,1037,2118
2407,1008,2123
2387,1022,2161
2430,1008,2137
2389,971,2131
2351,928,2120
2374,987,2143
2443,1014,2198
2433,970,2129
2381,971,2111
2438,1009,2166
2429,976,2218
2345,992,2176
2359,1008,2129
2442,1019,2148
2489,1014,2158
2651,1044,2192
2559,1019,2078
2259,1001,2114
2306,1038,2190
2498,1052,2201
2506,1053,2183
2406,1077,2233
2368,1121,2224
2413,1106,2250
2518,1097,2197
2456,1073,2112
2397,1082,2170
2442,1121,2255
2477,1109,2272
2486,1125,2224
2482,1155,2195
2493,1141,2173
2446,1119,2057
2455,1149,2096
2485,1146,2152
2449,1166,2150
2399,1159,2141
2433,1185,2181
2430,1187,2189
2427,1184,2193
2435,1159,2129
2437,1199,2128
2496,1195,2153
2402,1210,2181
2308,1202,2128
2374,1254,2143
2436,1256,2162
2467,1263,2122
2426,1232,2158
2363,1243,2133
2475,1294,2138
2559,1261,2001
2254,1200,1982
2263,1264,2062
2314,1293,2089
2327,1258,2077
2385,1277,2095
2449,1323,2096
2394,1351,2122
2325,1296,2013
2358,1279,1997
2386,1300,2059
2320,1371,2096
2269,1356,1945
2275,1322,2083
2357,1341,1835
2489,1363,1771
2288,1328,1825
2202,1344,1840
2288,1344,1831
2261,1371,1826
2191,1379,1833
2150,1307,1841
2133,1311,1824
2128,1317,1814
2101,1225,1808
1968,1141,1857
1974,1162,1842
1968,1200,1861
1995,1203,1868
1968,1182,1815
2019,1165,1864
2014,1219,1824
1977,1264,1816
2032,1246,1788
2064,1263,1856
2029,1312,1811
1889,1351,1824
1956,1360,1828
2039,1395,1826
2030,1392,1830
1985,1398,1835
2077,1409,1803
2084,1463,1818
2032,1505,1807
1981,1506,1834
2014,1494,1859
2103,1509,1776
2135,1535,2121
2000,1577,2559
1973,1577,2075
1990,1569,1791
2022,1603,1838
1994,1614,1831
2032,1615,1857
2035,1649,1914
2075,1677,1885
2082,1655,1903
2044,1682,1835
1935,1669,1836
1923,1685,1971
1910,1698,1895
1935,1711,2131
1987,1712,2001
2039,1712,1785
1968,1696,1805
1899,1732,1851
1931,1744,1841
2026,1775,1843
1962,1727,1821
1931,1707,1830
1915,1742,1861
2031,1787,1827
1934,1767,1827
1858,1763,1830
1877,1793,1829
1918,1823,1830
2021,1806,1834
1919,1747,1827
1793,1782,1834
1833,1810,1845
1904,1821,1776
1875,1809,1805
1867,1837,1857
1840,1839,1850
1847,1840,1851
1840,1840,1799
1846,1851,1815
1868,1841,1855
1811,1855,1779
1783,1857,1866
1905,1883,1815
1934,1877,1851
1799,1872,1819
1711,1857,1807
1787,1861,1808
1818,1871,1840
1782,1879,1863
1792,1897,1632
1887,1918,1713
1793,1891,1751
1701,1873,1811
1712,1883,1823
1732,1910,1841
1800,1921,1827
1744,1904,1786
1689,1873,1755
1765,1913,1761
1817,1942,1815
1722,1927,1818
1770,1907,1776
1790,1919,1735
1699,1940,1874
1655,1929,1863
1651,1914,1838
1789,1920,1750
1835,1991,1867
1651,1947,1813
1578,1913,1745
1691,1927,1823
1721,1943,1808
1643,1936,1770
1607,1914,1703
1631,1934,1753
1649,1936,1782
1639,1917,1749
1654,1890,1717
1563,1907,1727
1535,1922,1793
1590,1886,1787
1584,1857,1706
1615,1906,1755
1583,1881,1706
1509,1889,1705
1586,1869,1714
1586,1889,1703
1520,1892,1750
1445,1877,1701
1448,1860,1673
1488,1866,1706
1513,1886,1699
1472,1870,1657
1518,1850,1637
1520,1847,1660
1503,1862,1687
1438,1867,1691
1419,1854,1654
1456,1871,1677
1445,1892,1738
1428,1855,1690
1439,1840,1598
1491,1856,1635
1428,1851,1679
1407,1842,1691
1478,1850,1648
1441,1840,1661
1381,1834,1728
1377,1843,1680
1409,1847,1650
1424,1840,1648
1419,1827,1680
1365,1810,1677
1355,1808,1639
1344,1819,1665
1331,1829,1651
1481,1792,1615
1434,1776,1602
1392,1792,1635
1293,1805,1722
1249,1799,1680
1300,1777,1635
1405,1777,1636
1454,1799,1670
1383,1786,1616
1312,1758,1600
1279,1776,1634
1344,1797,1689
1338,1771,1641
1340,1741,1596
1327,1767,1601
1246,1757,1615
1299,1767,1628
1319,1757,1631
1338,1763,1631
1335,1778,1671
1306,1754,1648
1291,1732,1584
1462,1753,1584
1424,1751,1646
1225,1746,1662
1214,1742,1614
1273,1750,1633
1342,1779,1692
1346,1776,1670
1286,1738,1603
1270,1744,1622
1328,1786,1687
1396,1791,1665
1370,1761,1617
1312,1747,1631
1338,1785,1689
1342,1773,1659
1303,1774,1617
1341,1776,1649
1233,1776,1655
1289,1783,1671
1345,1765,1611
1328,1779,1675
1338,1795,1714
1316,1778,1678
1296,1768,1654
1369,1774,1651
1397,1807,1731
1321,1791,1721
1303,1776,1693
1395,1776,1695
1383,1791,1662
1399,1785,1696
1295,1728,1687
1289,1735,1693
1323,1758,1744
1368,1743,1760
1386,1669,1693
1397,1687,1715
1371,1678,1744
1344,1653,1712
1360,1620,1682
1405,1627,1715
1436,1617,1748
1408,1590,1737
1347,1563,1678
1394,1552,1703
1504,1553,1771
1404,1520,1745
1349,1479,1680
1359,1501,1767
1358,1498,1776
1379,1487,1762
1340,1452,1674
1374,1456,1735
1423,1471,1789
1408,1479,1764
1338,1444,1694
1374,1455,1757
1463,1474,1819
1392,1470,1744
1399,1453,1694
1419,1449,1766
1390,1471,1821
1319,1455,1771
1377,1444,1714
1423,1430,1733
1419,1473,1788
1394,1456,1718
1426,1456,1743
1359,1447,1761
1392,1451,1762
1363,1462,1776
1333,1456,1743
1375,1456,1744
1415,1456,1761
1434,1463,1718
1487,1455,1681
1394,1437,1680
1309,1454,1748
1282,1440,1711
1312,1430,1682
1339,1439,1676
1368,1453,1696
1370,1417,1655
1399,1400,1614
1357,1418,1627
1328,1453,1713
1290,1431,1643
1226,1401,1569
1279,1410,1614
1306,1433,1655
1362,1434,1568
1259,1424,1585
1290,1424,1634
1323,1447,1690
1228,1447,1645
1232,1451,1578
1346,1475,1615
1328,1466,1619
1326,1466,1611
1331,1472,1589
1232,1488,1629
1316,1525,1697
1306,1534,1635
1307,1488,1535
1319,1528,1594
1345,1558,1648
1335,1555,1628
1271,1520,1615
1267,1553,1663
1329,1583,1668
1305,1579,1629
1363,1577,1604
1408,1595,1633
1333,1617,1694
1351,1627,1670
1286,1597,1614
1317,1616,1653
1349,1641,1717
1309,1639,1701
1330,1638,1639
1335,1649,1648
1506,1679,1711
1403,1679,1705
1360,1658,1661
1360,1684,1680
1407,1705,1696
1421,1709,1714
1398,1712,1681
1391,1709,1690
1369,1718,1719
1354,1744,1703
1370,1734,1683
1488,1735,1698
1456,1767,1712
1508,1746,1694
1383,1759,1733
1394,1785,1753
1425,1808,1790
1447,1802,1740
1453,1781,1685
1472,1794,1714
1488,1819,1781
1425,1809,1755
1491,1829,1712
1447,1821,1758
1465,1841,1823
1493,1839,1810
1477,1824,1729
1520,1858,1730
1500,1876,1797
1584,1872,1787
1535,1859,1755
1520,1883,1783
1472,1888,1815
1514,1883,1808
1520,1879,1774
1570,1885,1781
1619,1929,1817
1650,1937,1827
1457,1903,1786
1433,1905,1788
1535,1948,1847
1587,1942,1812
1584,1921,1739
1509,1946,1790
1557,1983,1863
1595,1969,1819
1569,1943,1783
1570,1967,1808
1583,2001,1874
1586,1997,1856
1648,1997,1790
1614,1996,1793
1556,2011,1872
1535,2011,1869
1583,1987,1803
1650,2010,1798
1727,2057,1851
1675,2029,1833
1535,1994,1778
1591,2023,1840
1648,2033,1860
1652,2037,1819
1587,2032,1790
1601,2032,1831
1607,2052,1904
1665,2054,1879
1654,2033,1810
1667,2066,1833
1709,2080,1875
1648,2078,1879
1665,2070,1813
1633,2084,1834
1621,2098,1918
1637,2083,1890
1648,2069,1818
1712,2077,1845
1713,2108,1897
1699,2106,1887
1679,2064,1792
1712,2081,1856
1678,2117,1928
1618,2110,1893
1674,2102,1852
1782,2112,1811
1776,2096,1856
1634,2100,1901
1616,2082,1875
1662,2110,1883
1723,2126,1887
1717,2114,1873
1695,2099,1835
1725,2089,1859
1712,2116,1909
1741,2135,1907
1787,2110,1815
1714,2102,1872
1680,2126,1947
1684,2118,1888
1734,2069,1809
1809,2130,1850
1773,2145,1938
1697,2128,1918
1691,2110,1872
1753,2135,1900
1795,2155,1936
1791,2136,1895
1739,2100,1841
1753,2113,1863
1776,2138,1897
1744,2128,1900
1754,2116,1893
1783,2137,1920
1795,2155,1936
1747,2112,1893
1727,2123,1855
1767,2133,1866
1862,2159,1911
1863,2140,1907
1743,2115,1940
1730,2130,1962
1746,2127,1961
1761,2105,1892
1770,2096,1828
1840,2115,1869
1822,2125,1927
1773,2103,1893
1727,2082,1838
1792,2099,1872
1854,2096,1910
1878,2086,1901
1752,2075,1850
1763,2101,1881
1787,2108,1926
1789,2094,1914
1792,2090,1872
1822,2103,1877
1861,2096,1909
1846,2063,1904
1826,2032,1909
1869,2103,1897
1964,2111,1900
1941,2097,1939
1790,2031,1933
1759,2057,1953
1915,2064,1954
1909,2062,1905
1815,2014,1904
1845,2015,1975
1906,2030,2019
1932,1997,1923
1922,1981,1931
2015,2004,1968
1968,2019,2015
1947,1955,1951
1887,1965,1931
1873,2003,2014
1903,2013,2058
1929,1996,1943
1917,1968,1927
1967,1984,1953
2055,1968,2071
2032,1952,1998
1911,1941,1953
1958,1953,2000
2015,1918,2016
2023,1989,1986
1921,1947,1936
1860,2005,1951
2011,2012,2019
2010,1937,1947
1892,1968,1904
1914,1876,1963
2001,1921,2013
2007,1968,1979
2019,1897,1905
1996,1916,1939
2014,1927,2027
1980,1965,1939
1860,1906,1969
1911,1969,1946
2027,1878,1938
2016,1956,1973
1907,1888,1927
1927,1870,1903
1920,1910,1968
1950,1885,1991
1990,1875,1878
1943,1939,1839
1910,1943,1987
1955,1917,2026
2075,1904,1933
1935,1862,1882
1859,1885,1970
1887,1847,1941
2001,1878,1870
2019,1910,1872
1959,1950,1958
1918,1857,1859
1867,1809,1896
1931,1899,1936
1984,1904,1963
1985,1885,1898
1951,1840,1831
1922,1857,1884
1922,1883,1957
1901,1870,1909
1894,1826,1831
1942,1862,1894
1936,1890,1955
1936,1835,1914
1933,1844,1871
1967,1867,1943
1967,1873,1981
1920,1907,1847
1883,1859,1883
1916,1876,1911
1990,1906,1906
1985,1937,1890
1945,1872,1839
1978,1887,1863
1967,1909,1931
1904,1875,1917
1862,1925,1883
1915,1874,1904
2089,1882,1986
2032,1897,1968
1887,1957,1868
1938,1906,1855
2047,1922,1879
1904,1951,1936
1858,1938,1925
1941,1917,1934
2058,1951,1949
2023,1939,1868
1907,1929,1898
1933,1928,1957
1991,1847,1983
2009,1920,1915
1965,1958,1870
1965,1941,1906
2015,1950,1939
2011,1937,1883
1950,1905,1850
1974,1986,1951
2033,1981,2015
2031,1934,1915
1974,1866,1810
1965,1967,1881
1963,1948,1968
1977,1891,1936
2000,1891,1861
1989,1951,1886
1973,1899,1919
1982,1917,1934
2006,1968,1877
1926,1901,1904
1939,2021,1967
1975,1944,1929
1963,1854,1821
1978,1931,1863
1963,1945,1966
1983,1926,1948
1967,1925,1908
1968,1958,1897
2004,1942,1925
2010,1942,1882
1985,1942,1815
1963,1902,1899
1969,1920,1955
1959,1920,1904
1965,1897,1869
2016,1893,1829
1996,1934,1971
1945,1904,1916
1939,1904,1825
2007,1871,1833
1970,1911,1965
1929,1928,1968
1973,1948,1799
2117,1991,1771
1969,1895,1931
1920,1843,1972
1890,1887,1843
1904,1968,1856
1942,1959,1911
1947,1939,1846
1945,1890,1821
2022,1911,2028
2053,1957,2038
1927,1927,1902
1906,1830,1835
1870,1894,1851
1883,1927,1913
1920,1898,1872
1929,1883,1814
1963,1891,1808
1961,1914,1856
1894,1878,1849
1893,1907,1793
1927,1856,1803
1939,1895,1814
1936,1899,1853
1922,1899,1783
1937,1906,1836
1894,1910,1895
1947,1904,1841
2065,1907,1741
1847,1878,1776
1814,1869,1806
1858,1881,1819
2013,1893,1783
1957,1872,1791
1843,1840,1807
1783,1885,1857
1808,1848,1834
1863,1829,1819
1951,1842,1872
1919,1867,1808
1883,1847,1746
1924,1923,1801
1975,1872,1815
1813,1823,1813
1789,1867,1777
1846,1877,2496
1905,1803,2352
1882,1895,1891
1891,1834,1742
1893,1801,1778
1904,1870,1827
1863,1895,1839
1788,1854,1838
1794,1863,1831
1855,1877,1829
1866,1871,1830
1858,1854,1831
1865,1858,1831
1886,1866,1827
1873,1824,1831
1874,1817,1830
1863,1871,1829
1845,1856,1831
1854,1847,1835
1850,1826,1831
1773,1830,1829
1786,1856,1833
1811,1856,1829
1835,1846,1836
1840,1840,1834
1855,1845,1829
1871,1829,1830
1914,1839,1831
1887,1802,1829
1873,1829,1830
1806,1839,1829
1717,1829,1830
1799,1834,1825
1818,1840,1840
1840,1834,1861
1790,1813,1833
1808,1814,1801
1930,1840,1851
1955,1827,1850
1825,1766,1791
1755,1806,1777
1814,1826,1808
1806,1811,1826
1782,1782,1802
1774,1779,1808
1819,1801,1872
1808,1776,1811
1814,1737,1769
1870,1749,1794
1823,1777,1829
1771,1758,1781
1741,1701,1711
1875,1717,1738
1843,1751,1811
1818,1763,1834
1773,1735,1776
1824,1749,1789
1906,1761,1787
1850,1744,1772
1793,1732,1758
1750,1728,1746
1791,1743,1792
1797,1759,1813
1741,1719,1746
1777,1723,1790
1802,1748,1817
1808,1753,1793
1815,1734,1729
1808,1731,1744
1783,1760,1753
1779,1746,1776
1795,1727,1753
1808,1712,1735
1822,1734,1786
1823,1760,1782
1831,1732,1742
1843,1735,1744
1805,1755,1783
1757,1773,1776
1798,1745,1702
1819,1743,1715
1750,1739,1783
1723,1747,1774
1728,1751,1711
1787,1735,1755
1815,1750,1776
1865,1763,1775
1749,1730,1741
1733,1782,1722
1783,1799,1772
1814,1771,1759
1838,1754,1709
1862,1787,1744
1845,1779,1783
1690,1760,1785
1668,1763,1744
1729,1783,1745
1803,1792,1749
1831,1781,1745
1805,1744,1698
1819,1756,1743
1749,1821,1794
1742,1807,1747
1718,1765,1712
1757,1764,1707
1838,1808,1761
1777,1802,1770
1743,1787,1742
1735,1783,1785
1761,1803,1762
1808,1790,1753
1792,1749,1677
1795,1783,1733
1749,1829,1808
1763,1821,1808
1744,1799,1725
1744,1796,1713
1778,1809,1754
1795,1808,1723
1794,1792,1710
1843,1807,1743
1825,1808,1745
1724,1808,1749
1680,1783,1759
1741,1814,1759
1783,1840,1786
1762,1833,1772
1729,1789,1713
1777,1806,1716
1814,1825,1751
1775,1822,1750
1711,1810,1721
1759,1823,1743
1776,1837,1776
1774,1821,1757
1719,1788,1703
1763,1814,1730
1766,1857,1792
1778,1863,1797
1771,1814,1705
1840,1815,1778
1872,1843,1756
1712,1822,1741
1680,1811,1767
1747,1840,1786
1782,1853,1762
1776,1846,1727
1792,1828,1713
1801,1827,1737
1765,1847,1804
1746,1865,1779
1737,1840,1738
1727,1835,1741
1873,1856,1773
1830,1850,1738
1683,1827,1766
1685,1843,1760
1780,1865,1808
1809,1856,1823
1781,1823,1727
1808,1839,1728
1795,1865,1763
1774,1859,1767
1690,1824,1779
1764,1825,1747
1797,1850,1799
1749,1861,1773
1746,1834,1701
1770,1844,1730
1863,1867,1835
1745,1842,1765
1680,1831,1712
1760,1847,1741
1776,1858,1787
1782,1843,1767
1824,1822,1739
1764,1843,1767
1715,1870,1811
1728,1861,1786
1731,1820,1712
1824,1841,1761
1842,1831,1802
1794,1834,1776
1794,1837,1728
1761,1845,1749
1767,1867,1791
1776,1869,1801
1737,1830,1697
1776,1827,1713
1777,1858,1798
1777,1854,1793
1742,1833,1751
1757,1835,1811
1772,1872,1871
1756,1854,1803
1742,1842,1744
1746,1840,1776
1767,1865,1767
1810,1854,1791
1858,1831,1728
1792,1845,1808
1695,1857,1818
1739,1872,1786
1783,1843,1737
1853,1834,1763
1851,1843,1767
1792,1854,1783
1683,1840,1791
1714,1856,1801
1733,1856,1840
1757,1860,1762
1768,1840,1717
1802,1856,1747
1851,1869,1821
1809,1839,1766
1712,1817,1767
1733,1838,1798
1804,1860,1835
1777,1847,1779
1739,1834,1778
1765,1832,1806
1810,1862,1795
1917,1859,1728
1774,1843,1712
1712,1843,1770
1729,1867,1863
1748,1860,1761
1783,1839,1717
1830,1853,1753
1833,1847,1803
1760,1863,1790
1722,1857,1742
1762,1859,1772
1812,1875,1863
1834,1865,1818
1851,1853,1717
1825,1845,1739
1785,1863,1776
1747,1865,1787
1723,1851,1723
1761,1865,1850
1791,1853,1850
1830,1836,1813
1793,1827,1739
1817,1853,1808
1814,1872,1810
1757,1872,1802
1798,1839,1777
1843,1863,1792
1792,1857,1782
1767,1860,1819
1790,1842,1791
1792,1854,1806
1819,1878,1839
1744,1824,1759
1743,1823,1767
1783,1867,1776
1808,1883,1808
1799,1862,1787
1769,1841,1788
1872,1869,1808
1874,1872,1805
1744,1860,1811
1698,1853,1805
1735,1840,1760
1849,1857,1837
1826,1854,1808
1776,1875,1716
1733,1879,1808
1778,1899,1840
1807,1870,1868
1950,1879,1767
1893,1841,1675
1758,1847,1869
1728,1852,1875
1691,1856,1797
1737,1853,1719
1790,1858,1819
1839,1889,1799
1791,1840,1727
1772,1858,1830
1769,1882,1861
1743,1871,1807
1762,1822,1714
1790,1832,1733
1872,1891,1744
1839,1871,1855
1811,1858,1727
1797,1813,1754
1744,1847,1870
1744,1889,1805
1712,1840,1823
1741,1814,1730
1775,1853,1801
1817,1843,1850
1814,1831,1792
1761,1853,1762
1742,1861,1838
1757,1846,1879
1766,1841,1818
1823,1852,1818
1890,1863,1787
1779,1865,1823
1711,1855,1783
1837,1836,1790
1826,1874,1808
1714,1858,1786
1744,1859,1767
1764,1853,1808
1783,1853,1815
1808,1851,1827
1774,1840,1765
1783,1873,1776
1869,1893,1861
1802,1850,1863
1744,1819,1795
1852,1871,1781
1929,1893,1826
1744,1875,1847
1661,1840,1767
1712,1850,1736
1782,1875,1829
1856,1837,1878
1815,1803,1799
1805,1856,1778
1809,1874,1838
1841,1893,1852
1804,1840,1768
1728,1835,1840
1785,1875,1863
1804,1879,1820
1781,1857,1776
1853,1819,1837
1961,1881,1847
1853,1877,1765
1702,1831,1819
1737,1865,1851
1849,1870,1814
1857,1863,1762
1840,1846,1821
1776,1867,1840
1824,1878,1877
1860,1856,1817
1769,1846,1807
1751,1853,1859
1814,1878,1869
1843,1863,1807
1869,1854,1808
1866,1885,1808
1807,1873,1826
1744,1863,1833
1751,1869,1807
1777,1846,1835
1904,1883,1886
1843,1863,1844
1835,1813,1776
1823,1853,1822
1792,1875,1841
1811,1878,1840
1722,1862,1835
1850,1847,1858
1850,1863,1879
1766,1875,1859
1803,1868,1771
1891,1874,1782
1923,1878,1882
1803,1836,1798
1755,1833,1801
1857,1808,1801
1826,1865,1891
1840,1901,1893
1808,1879,1841
1782,1853,1815
1825,1854,1797
1856,1857,1781
1885,1856,1840
1835,1840,1881
1841,1838,1902
1734,1867,1847
1773,1862,1795
1827,1855,1805
1891,1872,1845
1842,1859,1808
1821,1850,1778
1821,1854,1822
1898,1865,1846
1906,1866,1872
1817,1865,1831
1831,1870,1835
1843,1849,1863
1962,1849,1828
1939,1815,1745
1790,1856,1819
1678,1841,1909
1783,1856,1879
1811,1835,1754
1911,1851,1808
1895,1851,1901
1813,1866,1860
1789,1802,1689
1779,1808,1705
1826,1872,1904
1807,1871,1936
1815,1868,1826
1871,1863,1802
1872,1858,1895
1843,1870,1869
1842,1839,1792
1911,1831,1785
1850,1870,1808
1781,1863,1879
1779,1829,1808
1851,1849,1856
1891,1868,1866
1895,1819,1815
1978,1831,1749
1859,1853,1851
1835,1872,1886
1834,1808,1814
1785,1815,1791
1808,1877,1841
1897,1889,1968
1936,1882,1872
1854,1781,1718
1705,1738,1739
1776,1854,1809
1909,1901,1856
1772,1808,1856
1766,1782,1770
1898,1861,1970
1816,1864,1984
1744,1841,1792
1825,1830,1654
1943,1859,1874
1891,1851,1889
1814,1806,1690
1817,1811,1828
1809,1817,1905
1861,1839,1808
1799,1779,1763
1817,1811,1863
1815,1821,1842
1795,1829,1850
1761,1792,1793
1829,1805,1818
1856,1817,1847
1923,1809,1762
1943,1789,1749
1793,1787,1840
1823,1770,1931
1751,1773,1865
1782,1779,1722
1887,1840,1797
1793,1815,1910
1750,1790,1842
1781,1795,1749
1819,1780,1823
1829,1807,1873
1833,1794,1821
1885,1743,1806
1945,1773,1756
1877,1808,1776
1663,1816,1879
1754,1793,1835
1776,1795,1786
1808,1789,1826
1839,1767,1757
1887,1780,1773
1865,1787,1846
1797,1776,1917
1766,1751,1833
1807,1769,1734
1840,1800,1724
1873,1809,1968
1887,1808,1951
1874,1795,1807
1823,1797,1785
1865,1819,1803
1824,1789,1830
1835,1771,1805
1821,1787,1818
1822,1760,1795
1869,1802,1811
1808,1821,1841
1773,1814,1849
1889,1821,1920
1899,1808,1837
1797,1808,1790
1763,1787,1744
1947,1775,1872
1851,1760,1906
1729,1804,1841
1923,1831,1753
2159,1839,1894
1824,1820,1802
1702,1744,1791
1695,1793,1875
1808,1822,1819
1808,1795,1861
1813,1772,1808
1906,1807,1782
1869,1840,1822
1776,1810,1857
1781,1757,1833
1857,1776,1814
1855,1814,1846
1863,1835,1814
1817,1808,1757
1791,1763,1791
1915,1809,1873
1935,1786,1840
1809,1775,1851
1855,1823,1840
1984,1856,1815
1831,1794,1759
1718,1772,1750
1802,1801,1856
1835,1801,1927
1829,1828,1882
1855,1825,1790
1830,1792,1782
1829,1808,1847
1846,1821,1799
1798,1810,1770
1827,1788,1853
1889,1825,1821
1860,1840,1790
1818,1802,1835
1827,1838,1843
1866,1831,1869
1873,1823,1854
1883,1815,1814
1903,1776,1741
1807,1837,1776
1786,1822,1857
1805,1833,1826
1862,1841,1807
1883,1862,1824
1842,1808,1823
1777,1792,1792
1846,1810,1823
1882,1841,1842
1854,1825,1776
1822,1833,1786
1905,1841,1807
1852,1839,1875
1791,1828,1849
1775,1822,1825
1820,1827,1822
1855,1843,1805
1857,1804,1809
1851,1808,1820
1870,1807,1807
1841,1809,1808
1807,1823,1871
1798,1817,1802
1856,1842,1806
1861,1859,1847
1830,1839,1804
1831,1790,1803
1853,1812,1767
1799,1850,1811
1822,1811,1852
1887,1805,1765
1840,1814,1859
1902,1815,1859
1865,1840,1827
1766,1817,1818
1749,1796,1833
1826,1818,1893
1841,1839,1855
1834,1829,1780
1921,1815,1785
1867,1806,1853
1846,1828,1841
1810,1797,1829
1796,1835,1837
1839,1861,1833
1856,1841,1797
1814,1788,1810
1840,1808,1808
1936,1850,1843
1915,1809,1761
1866,1793,1750
1827,1836,1836
1793,1840,1915
1869,1839,1852
1835,1822,1847
1786,1819,1872
1801,1825,1858
1817,1814,1775
1867,1811,1786
1868,1813,1855
1846,1830,1851
1919,1839,1832
1851,1805,1783
1833,1833,1819
1842,1836,1849
1842,1837,1776
1904,1822,1763
1808,1799,1829
1817,1806,1889
1839,1846,1846
1821,1843,1790
1857,1809,1767
1891,1827,1865
1873,1840,1842
1867,1809,1762
1840,1825,1806
1835,1835,1879
1873,1822,1861
1890,1842,1810
1825,1821,1765
1820,1829,1808
1883,1824,1882
1906,1808,1829
1844,1841,1776
1817,1871,1850
1859,1810,1873
1909,1808,1808
1853,1847,1801
1815,1855,1887
1808,1835,1841
1826,1815,1791
1847,1809,1709
1881,1843,1875
1894,1823,1934
1883,1835,1829
1840,1830,1803
1875,1859,1792
1942,1836,1751
1846,1820,1789
1794,1791,1792
1839,1870,1861
1856,1840,1853
1851,1787,1857
1847,1838,1872
1826,1877,1856
1858,1833,1838
1873,1822,1760
1901,1808,1766
1871,1825,1839
1801,1794,1851
1794,1811,1844
1855,1851,1815
1892,1809,1838
1875,1808,1866
1808,1834,1813
1780,1845,1821
1827,1840,1893
1889,1834,1869
1901,1801,1808
1921,1821,1773
1885,1793,1803
1837,1836,1895
1777,1834,1860
1813,1840,1809
1869,1791,1779
1899,1815,1840
1920,1825,1872
1886,1897,1817
1788,1872,1804
1789,1823,1815
1875,1808,1847
1868,1856,1893
1859,1849,1919
1870,1901,1841
1837,1798,1777
1843,1793,1820
1854,1838,1811
1840,1858,1874
1842,1776,1808
1831,1844,1840
1859,1869,1899
1819,1831,1816
1818,1819,1759
1885,1842,1825
1936,1851,1871
1930,1841,1840
1872,1823,1791
1771,1806,1799
1835,1893,1904
1947,1830,1848
1923,1758,1717
1849,1797,1841
1756,1856,1905
1776,1807,1869
1821,1818,1791
1853,1845,1854
1842,1812,1841
1856,1810,1815
1899,1823,1760
1979,1808,1835
1882,1825,1882
1825,1854,1875
1817,1819,1808
1818,1815,1823
1841,1866,1897
1895,1839,1854
1914,1814,1779
1870,1797,1835
1878,1807,1891
1904,1823,1838
1794,1843,1819
1776,1859,1824
1840,1822,1862
1895,1843,1875
1904,1851,1809
1854,1845,1791
