2144,1955,1957
2182,2001,1974
2112,1961,1917
2128,1926,1904
2160,1933,1951
2126,1936,1975
2128,1856,1917
2093,1895,1906
2119,1933,1950
2146,1912,1967
2079,1885,1921
2081,1861,1906
2099,1869,1951
2071,1851,1965
2043,1827,1913
2037,1835,1911
2085,1853,1936
2034,1827,1967
2032,1749,1920
2115,1747,1895
2047,1778,1943
2047,1793,1968
2032,1770,1909
2035,1743,1898
2064,1738,1937
2074,1767,1958
1928,1733,1899
2027,1738,1904
2067,1749,1949
2077,1744,1965
2007,1730,1906
2002,1712,1897
2033,1696,1940
2032,1665,1946
2002,1655,1895
1988,1650,1877
2005,1711,1919
2021,1700,1936
2000,1648,1907
1987,1626,1902
1987,1654,1939
2009,1665,1949
1951,1637,1894
1940,1622,1879
1997,1637,1925
1985,1648,1943
2047,1618,1891
1926,1605,1870
2023,1619,1921
2019,1616,1930
1981,1590,1873
1941,1583,1861
2006,1611,1920
2026,1627,1933
1971,1595,1882
1949,1584,1870
2018,1607,1920
1963,1616,1936
1945,1584,1875
1953,1578,1854
1984,1597,1902
2000,1600,1935
1981,1561,1877
1955,1535,1866
1995,1573,1902
1995,1573,1915
1925,1527,1859
1951,1519,1839
1987,1535,1894
1994,1571,1917
1968,1525,1859
1961,1497,1840
2000,1528,1887
2004,1535,1906
2000,1506,1851
1974,1499,1835
2027,1531,1877
2007,1535,1902
1943,1510,1840
1936,1502,1827
2034,1535,1885
1986,1553,1911
1946,1521,1850
1943,1511,1821
2011,1535,1872
2031,1562,1904
2000,1529,1843
1974,1530,1807
2091,1571,1859
2038,1591,1890
2062,1563,1840
2026,1563,1822
2027,1599,1875
2033,1616,1902
1983,1584,1831
1977,1581,1821
2007,1614,1864
2005,1648,1885
1970,1645,1819
1963,1635,1801
2001,1682,1866
2011,1715,1887
1968,1701,1829
1966,1706,1802
1995,1729,1840
2003,1744,1872
1975,1731,1840
1965,1742,1808
1993,1775,1859
2001,1795,1872
1971,1775,1814
1968,1774,1808
1997,1808,1854
1999,1820,1863
1963,1805,1821
1965,1802,1794
1991,1819,1842
1996,1837,1857
1954,1836,1811
1939,1830,1789
1971,1840,1836
1989,1850,1865
1953,1823,1818
1936,1821,1790
1965,1858,1831
1968,1867,1838
1923,1855,1793
1922,1843,1782
1939,1859,1831
1941,1873,1847
1904,1854,1795
1904,1835,1772
1936,1856,1818
1943,1879,1847
1904,1857,1794
1901,1857,1781
1922,1871,1824
1923,1874,1862
1878,1854,1808
1872,1854,1760
1907,1872,1808
1922,1889,1837
1878,1868,1776
1872,1863,1777
1904,1887,1836
1918,1902,1860
1870,1870,1792
1856,1867,1761
1885,1887,1814
1895,1905,1852
1856,1872,1790
1851,1870,1762
1872,1897,1822
1870,1906,1847
1840,1888,1796
1840,1871,1771
1870,1881,1817
1862,1897,1855
1833,1884,1797
1826,1875,1761
1854,1904,1815
1855,1911,1843
1825,1892,1803
1814,1875,1775
1843,1904,1817
1860,1925,1843
1827,1901,1798
1810,1872,1774
1841,1902,1813
1857,1915,1841
1820,1893,1806
1807,1887,1776
1829,1893,1827
1841,1903,1865
1806,1875,1799
1792,1875,1760
1828,1904,1808
1839,1904,1840
1808,1882,1808
1799,1877,1789
1826,1901,1839
1827,1911,1853
1792,1894,1805
1773,1872,1769
1806,1895,1813
1825,1904,1859
1795,1884,1832
1777,1868,1762
1804,1891,1794
1808,1908,1840
1786,1881,1783
1775,1869,1766
1803,1889,1811
1811,1902,1847
1782,1872,1827
1781,1865,1778
1811,1895,1807
1809,1904,1836
1776,1872,1798
1770,1856,1780
1806,1870,1828
1808,1874,1852
1775,1850,1790
1763,1847,1755
1791,1874,1809
1797,1874,1850
1770,1845,1801
1763,1831,1776
1792,1866,1827
1798,1889,1859
1764,1859,1808
1749,1846,1771
1773,1858,1802
1779,1872,1834
1754,1847,1799
1758,1841,1780
1777,1866,1825
1795,1882,1853
1754,1851,1799
1743,1827,1776
1773,1852,1814
1791,1846,1842
1748,1823,1798
1733,1811,1771
1775,1837,1820
1795,1867,1858
1755,1845,1808
1744,1822,1774
1780,1839,1817
1800,1851,1847
1750,1829,1798
1744,1829,1790
1773,1847,1830
1779,1862,1855
1753,1851,1802
1749,1834,1789
1780,1844,1837
1790,1861,1858
1755,1843,1808
1745,1838,1776
1771,1855,1814
1781,1871,1853
1762,1850,1821
1753,1840,1791
1776,1857,1827
1778,1885,1856
1750,1808,1797
1744,1843,1776
1769,1937,1821
1776,1934,1861
1742,1945,1808
1735,1923,1774
1773,1910,1824
1785,1933,1859
1749,1904,1807
1735,1900,1779
1761,1929,1823
1775,1979,1852
1744,1935,1808
1728,1872,1786
1769,1966,1827
1777,1897,1847
1737,1963,1799
1741,1911,1782
1791,1943,1840
1786,1946,1861
1752,1931,1813
1749,1913,1792
1776,1932,1831
1783,1966,1859
1758,1903,1817
1751,1894,1794
1778,1996,1840
1790,1990,1879
1758,1899,1828
1750,1914,1799
1782,1961,1841
1782,1955,1871
1745,1879,1818
1737,1919,1793
1776,1943,1842
1791,2000,1875
1755,1934,1821
1734,1919,1785
1775,1938,1839
1782,1948,1879
1756,1920,1826
1745,1909,1798
1787,1936,1838
1793,1983,1869
1757,1887,1813
1745,1909,1801
1789,1968,1841
1791,1968,1862
1747,1859,1812
1745,1861,1791
1773,1897,1828
1790,1931,1872
1754,1861,1818
1744,1877,1793
1773,1929,1834
1787,1872,1855
1765,1837,1815
1753,1855,1795
1778,1921,1839
1790,1914,1871
1755,1906,1811
1738,1838,1779
1776,1840,1829
1803,1885,1862
1761,1873,1830
1753,1849,1808
1778,1877,1841
1787,1884,1862
1763,1870,1824
1745,1859,1787
1779,1902,1840
1794,1839,1872
1761,1859,1817
1744,1808,1786
1783,1895,1835
1802,1900,1867
1766,1904,1821
1754,1825,1792
1779,1837,1830
1795,1872,1872
1765,1837,1823
1747,1779,1790
1787,1827,1841
1811,1809,1871
1773,1856,1841
1762,1840,1807
1792,1815,1840
1807,1865,1867
1771,1838,1831
1759,1838,1811
1792,1828,1843
1807,1838,1879
1773,1759,1834
1746,1850,1808
1782,1824,1847
1807,1872,1879
1777,1808,1841
1762,1797,1813
1797,1831,1857
1812,1838,1891
1789,1818,1842
1765,1792,1795
1803,1811,1842
1819,1823,1873
1795,1803,1841
1781,1814,1809
1814,1803,1854
1827,1808,1892
1795,1786,1847
1781,1763,1805
1810,1799,1841
1841,1791,1892
1817,1781,1840
1800,1749,1811
1827,1764,1855
1850,1759,1889
1813,1821,1835
1802,1720,1795
1837,1713,1845
1856,1815,1891
1828,1729,1863
1809,1811,1825
1842,1799,1850
1858,1843,1879
1828,1737,1842
1831,1775,1814
1861,1743,1856
1868,1808,1892
1837,1779,1840
1838,1735,1809
1874,1808,1856
1905,1747,1899
1872,1741,1858
1849,1744,1826
1876,1712,1861
1901,1724,1895
1872,1721,1851
1856,1722,1813
1888,1744,1854
1907,1754,1890
1882,1734,1843
1856,1635,1791
1892,1706,1854
1914,1803,1900
1857,1725,1822
1867,1758,1819
1903,1742,1865
1904,1719,1875
1871,1743,1833
1861,1777,1804
1888,1735,1850
1904,1719,1881
1874,1736,1844
1869,1703,1808
1902,1616,1846
1907,1738,1879
1872,1717,1826
1854,1713,1783
1894,1725,1834
1890,1777,1879
1863,1734,1847
1856,1719,1803
1890,1722,1839
1897,1749,1873
1867,1723,1850
1854,1701,1802
1875,1722,1835
1872,1728,1866
1865,1713,1839
1856,1687,1811
1878,1725,1845
1872,1745,1873
1846,1718,1822
1841,1711,1794
1872,1729,1842
1888,1751,1879
1857,1715,1829
1846,1711,1795
1874,1727,1837
1888,1733,1872
1857,1719,1824
1840,1714,1791
1881,1738,1840
1886,1743,1873
1867,1740,1835
1843,1726,1793
1863,1741,1830
1883,1749,1874
1859,1743,1827
1842,1727,1795
1872,1736,1840
1889,1763,1878
1856,1733,1818
1840,1722,1780
1867,1739,1829
1889,1762,1859
1854,1740,1837
1835,1733,1803
1866,1757,1847
1882,1748,1872
1865,1737,1840
1845,1722,1798
1870,1747,1825
1882,1769,1869
1856,1745,1829
1839,1727,1799
1874,1743,1847
1892,1754,1872
1854,1742,1817
1829,1735,1791
1867,1742,1838
1885,1750,1871
1862,1739,1833
1843,1719,1807
1880,1747,1855
1904,1783,1883
1863,1761,1837
1834,1728,1791
1868,1744,1826
1873,1764,1866
1846,1759,1835
1837,1749,1805
1864,1744,1839
1878,1761,1879
1847,1747,1840
1825,1743,1790
1844,1766,1829
1861,1762,1871
1841,1741,1835
1827,1727,1791
1856,1759,1847
1879,1791,1891
1843,1753,1838
1824,1727,1793
1849,1750,1834
1871,1791,1872
1841,1765,1849
1815,1743,1799
1840,1759,1822
1856,1779,1859
1834,1769,1845
1815,1762,1808
1840,1773,1840
1862,1779,1872
1846,1776,1834
1822,1746,1792
1845,1749,1840
1863,1776,1875
1834,1776,1826
1814,1756,1793
1846,1775,1841
1868,1781,1875
1839,1802,1846
1817,1776,1808
1839,1755,1824
1869,1766,1859
1835,1761,1823
1829,1750,1777
1885,1782,1810
1936,1808,1858
1870,1763,1808
1823,1744,1776
1840,1776,1825
1840,1801,1886
1942,1813,1872
2111,1809,1771
1819,1740,1719
1661,1776,1893
1691,1779,1872
1767,1765,1815
1840,1776,1842
1850,1799,1869
1793,1755,1811
1767,1701,1759
1833,1758,1824
1861,1799,1879
1819,1774,1833
1791,1742,1806
1812,1754,1830
1824,1779,1847
1798,1768,1807
1774,1744,1769
1793,1767,1797
1809,1779,1840
1797,1762,1809
1775,1751,1763
1792,1766,1792
1818,1782,1840
1792,1769,1810
1774,1749,1807
1794,1771,1788
1799,1786,1806
1776,1769,1780
1763,1753,1757
1790,1775,1794
1797,1792,1829
1757,1776,1776
1713,1740,1695
1801,1792,1809
1836,1803,1881
1779,1792,1823
1750,1797,1766
1775,1809,1802
1791,1825,1843
1778,1782,1813
1760,1774,1765
1791,1801,1808
1810,1831,1856
1790,1821,1826
1781,1802,1783
1810,1818,1795
1789,1813,1808
1745,1797,1805
1744,1792,1740
1783,1818,1806
1805,1837,1872
1791,1825,1807
1779,1805,1746
1793,1829,1774
1799,1842,1809
1767,1819,1808
1754,1809,1744
1803,1840,1840
1851,1875,1877
1823,1866,1845
1766,1808,1807
1781,1827,1792
1804,1855,1862
1790,1851,1780
1781,1836,1778
1810,1863,1817
1837,1895,1836
1803,1886,1805
1767,1871,1767
1803,1889,1815
1824,1911,1859
1799,1899,1795
1776,1877,1787
1841,1915,1808
1890,1943,1864
1787,1917,1830
1739,1878,1777
1786,1904,1859
1840,1942,1888
1794,1926,1869
1759,1879,1798
1792,1903,1831
1839,1931,1891
1808,1922,1867
1783,1904,1802
1808,1886,1805
1834,1910,1860
1809,1898,1845
1805,1879,1835
1819,1912,1882
1825,1928,1856
1798,1887,1809
1791,1866,1788
1829,1901,1856
1808,1910,1871
1786,1873,1747
1806,1870,1790
1866,1919,1899
1875,1968,1898
1826,1912,1809
1789,1827,1723
1824,1858,1774
1885,1929,1854
1803,1872,1866
1824,1878,1811
1842,1898,1861
1861,1913,1911
1821,1874,1826
1819,1859,1796
1845,1887,1864
1858,1925,1905
1838,1897,1810
1814,1839,1776
1842,1861,1835
1869,1890,1875
1807,1854,1799
1810,1845,1788
1867,1882,1844
1872,1904,1819
1834,1870,1811
1819,1842,1773
1852,1860,1850
1861,1881,1898
1835,1895,1894
1811,1871,1761
1843,1866,1782
1851,1879,1813
1837,1872,1822
1815,1835,1785
1847,1841,1831
1875,1870,1881
1850,1856,1815
1824,1841,1827
1847,1882,1813
1872,1907,1850
1853,1906,1894
1829,1850,1828
1855,1855,1835
1855,1841,1879
1831,1822,1829
1808,1825,1763
1814,1835,1786
1866,1870,1875
1858,1850,1780
1872,1876,1840
1881,1872,1881
1927,1855,1865
2285,1888,1799
2112,1749,1421
1690,1759,1727
1743,1845,2011
1807,1853,1943
2223,1855,1856
1967,1787,1673
1488,1735,1761
1681,1792,1782
1985,1872,1856
1832,1811,1910
1663,1814,2000
1663,1811,1974
1747,1803,1776
1936,1830,1789
1927,1801,1792
1734,1734,1774
1605,1676,1772
1772,1739,1775
1914,1771,1835
1954,1819,1847
1840,1738,1799
1695,1712,1756
1743,1734,1846
1830,1744,1818
1717,1701,1808
1680,1731,1840
1741,1738,1872
1745,1721,1856
1733,1693,1726
1726,1664,1696
1793,1722,1865
1759,1726,1829
1731,1702,1792
1702,1680,1783
1810,1744,1886
1815,1701,1801
1668,1644,1773
1722,1675,1751
1783,1654,1808
1823,1638,1838
1680,1659,1860
1618,1654,1866
1699,1659,1894
1762,1632,1803
1722,1595,1719
1712,1619,1790
1710,1611,1847
1762,1612,1808
1746,1611,1902
1715,1600,1897
1773,1593,1897
1839,1563,1847
1840,1535,1775
1713,1514,1809
1702,1524,1902
1708,1509,1853
1675,1493,1792
1712,1523,1839
1761,1513,1901
1798,1480,1874
1808,1451,1762
1891,1457,1874
1847,1441,1904
1882,1408,1866
1744,1392,1734
1633,1390,1797
1697,1412,1885
1793,1380,1911
1767,1345,1840
1773,1350,1797
1804,1375,1841
1753,1339,1851
1746,1330,1803
1798,1344,1808
1865,1356,1899
1903,1312,1887
1821,1301,1713
1840,1263,1770
1782,1275,1902
1813,1263,1838
1701,1232,1838
1707,1248,1895
1713,1213,1815
1778,1203,1840
1838,1197,1813
1819,1197,1809
1763,1218,1883
1804,1190,1841
1744,1115,1776
1773,1123,1827
1783,1150,1853
1726,1134,1863
1839,1023,1723
1801,1039,1838
1834,1061,1953
1758,1067,1862
1666,1002,1791
1776,962,1866
1857,958,1867
1823,944,1841
1775,867,1794
1808,832,1802
1931,821,1779
1817,840,1834
1686,809,1845
1701,734,1931
1872,736,1936
1875,678,1841
1755,654,1770
1711,646,1853
1741,671,1910
1794,637,1774
1856,638,1763
1776,645,1822
1744,624,1936
1757,609,1904
1781,603,1795
1778,578,1742
1790,635,1825
1727,639,1901
1781,593,1827
1815,630,1828
1840,657,1873
1806,591,1843
1811,590,1707
1763,631,1792
1698,670,1962
1773,657,1875
1862,640,1769
1805,677,1823
1757,688,1850
1739,682,1791
1797,644,1765
1917,669,1841
1866,706,1936
1796,704,1796
1633,732,1840
1653,783,1905
1794,779,1906
1842,783,1845
1825,752,1727
1795,799,1763
1799,837,1853
1827,835,1850
1777,816,1737
1762,844,1822
1849,847,1863
1823,849,1790
1703,879,1769
1763,912,1840
1798,946,1904
1740,933,1851
1789,944,1733
1830,971,1769
1837,983,1873
1807,997,1840
1761,975,1771
1839,1009,1790
1901,1075,1863
1841,1040,1876
1756,1019,1815
1818,1050,1776
1834,1125,1819
1809,1119,1829
1771,1080,1799
1746,1112,1824
1808,1155,1857
1869,1138,1813
1890,1125,1744
1894,1191,1814
1839,1215,1893
1757,1214,1853
1723,1195,1791
1808,1216,1776
1904,1263,1881
1849,1251,1801
1744,1206,1738
1781,1255,1843
1813,1296,1889
1831,1311,1857
1830,1290,1776
1871,1293,1744
1806,1374,1847
1889,1387,1837
1681,1329,1796
1783,1355,1840
1805,1396,1865
1829,1381,1840
1795,1393,1811
1807,1407,1799
1841,1463,1834
1829,1443,1819
1793,1422,1799
1829,1447,1804
1885,1495,1847
1822,1485,1837
1716,1500,1810
1860,1515,1853
1874,1558,1876
1821,1568,1839
1871,1533,1791
1840,1535,1801
1805,1578,1830
1749,1616,1839
1807,1600,1761
1834,1618,1863
1919,1643,1914
1937,1647,1883
1876,1639,1789
1961,1663,1779
1869,1713,1872
1807,1695,1823
1801,1686,1845
1857,1687,1853
1866,1734,1904
1904,1741,1885
1883,1746,1806
1829,1766,1840
1879,1783,1899
1785,1776,1840
1855,1746,1771
1926,1742,1755
1903,1829,1889
1835,1854,1890
1845,1837,1843
1857,1845,1811
1807,1856,1841
1850,1851,1868
1872,1847,1844
1870,1856,1843
1915,1890,1870
1958,1904,1803
1862,1843,1789
1867,1867,1829
1812,1929,1887
1817,1927,1869
1921,1905,1792
1838,1949,1833
1867,1970,1866
1935,1962,1849
1881,1923,1809
1836,1958,1871
1853,2005,1921
1839,2019,1904
1842,1954,1737
1893,1966,1765
1872,2018,1895
1813,2017,1836
1778,2017,1824
1821,2038,1840
1917,2036,1904
1898,2001,1853
1824,1998,1808
1815,2041,1805
1864,2069,1842
1867,2041,1847
1857,2077,1873
1852,2075,1789
1909,2061,1790
1856,2064,1799
1803,2063,1771
1827,2067,1839
1877,2083,1904
1872,2063,1851
1867,2097,1821
1871,2112,1836
1843,2114,1863
1813,2115,1867
1843,2079,1794
1946,2109,1792
1913,2113,1853
1801,2099,1850
1785,2054,1801
1871,2101,1835
1936,2147,1874
1898,2128,1863
1870,2112,1808
1899,2129,1791
1860,2126,1872
1854,2113,1894
1861,2096,1782
1971,2160,1836
1917,2177,1886
1837,2114,1869
1840,2108,1803
1904,2119,1818
1881,2151,1877
1872,2139,1861
1847,2127,1799
1842,2139,1843
1895,2151,1840
1872,2139,1866
1873,2131,1852
1851,2139,1811
1858,2150,1887
1930,2141,1895
1947,2118,1809
1875,2112,1789
1824,2141,1879
1839,2115,1854
1853,2113,1807
1897,2131,1831
1890,2187,1891
1854,2145,1874
1823,2112,1783
1829,2102,1794
1971,2155,1910
1991,2134,1867
1829,2109,1798
1791,2134,1861
1846,2146,1887
1889,2125,1847
1907,2105,1759
1929,2118,1767
1890,2150,1929
1856,2151,1911
1844,2128,1828
1895,2123,1808
1920,2128,1839
1891,2119,1822
1863,2126,1836
1872,2159,1856
1899,2143,1883
1900,2115,1861
1863,2071,1803
1855,2093,1814
1905,2128,1846
1968,2138,1872
1892,2117,1844
1856,2128,1872
1873,2135,1882
1872,2130,1840
1831,2130,1799
1868,2096,1777
1904,2128,1856
1940,2156,1853
1871,2113,1826
1856,2115,1850
1946,2113,1883
1895,2112,1859
1817,2091,1792
1877,2111,1826
1926,2129,1902
1901,2135,1910
1945,2115,1794
1885,2097,1792
1878,2151,1929
1841,2121,1902
1869,2102,1826
1875,2098,1801
1967,2125,1841
1939,2121,1905
1859,2096,1855
1872,2096,1830
1984,2118,1840
1909,2128,1886
1860,2090,1821
1890,2107,1840
1936,2122,1873
1885,2134,1907
1859,2098,1851
1873,2107,1842
1935,2134,1904
1930,2111,1871
1922,2085,1744
1927,2090,1813
1907,2101,1920
1853,2101,1913
1831,2067,1850
1889,2065,1844
1957,2115,1898
1920,2107,1855
1879,2073,1811
1872,2119,1840
1903,2102,1851
1910,2081,1871
1863,2065,1842
1872,2069,1871
1882,2078,1901
1906,2093,1873
1876,2064,1797
1955,2072,1823
1888,2101,1893
1847,2076,1875
1855,2037,1845
1887,2090,1881
1917,2112,1915
1947,2112,1873
1943,2057,1776
1869,2042,1809
1905,2087,1899
1839,2086,1904
1818,2062,1838
1910,2058,1826
1920,2064,1912
1843,2083,1904
1834,2032,1823
1883,2045,1846
1911,2078,1882
1904,2087,1888
1926,2055,1834
1968,2095,1787
1907,2090,1835
1826,2080,1901
1808,2007,1857
1889,2047,1857
1946,2059,1906
1904,2071,1892
1852,2029,1802
1891,2038,1827
1898,2076,1898
1885,2065,1905
1883,2073,1856
1910,2010,1869
1919,2096,1878
1966,2000,1867
1908,1978,1780
1830,2010,1840
1853,2107,1917
1894,2093,1887
1931,2039,1815
1904,1999,1861
1898,2019,1904
1902,2062,1893
1837,2002,1839
1823,1989,1810
1921,2030,1911
1968,1998,1875
1906,1985,1811
1891,1978,1857
1879,2016,1891
1895,2005,1881
1834,2005,1835
1856,1979,1861
1936,2000,1890
1933,1980,1886
1910,2005,1829
1866,2011,1842
1887,2032,1909
1897,1983,1897
1865,1969,1838
1938,1970,1773
1926,2019,1891
1897,1994,1937
1825,1935,1852
1897,1982,1840
1933,1981,1849
1914,2001,1846
1899,1904,1798
1921,1962,1850
1882,2002,1898
1883,2000,1913
1905,1937,1840
1865,1978,1840
1861,2014,1922
1866,1933,1889
1871,1917,1839
1936,1932,1882
1906,2012,1878
1861,2000,1875
1845,1973,1776
1915,1907,1824
1904,1943,1916
1892,1926,1890
1857,1983,1821
1881,1891,1806
1932,1931,1911
1905,1963,1909
1872,1939,1821
1865,1947,1840
1872,1968,1904
1877,1983,1882
1921,1974,1819
1904,1967,1862
1891,1903,1889
1843,1938,1872
1870,1936,1842
1920,1899,1777
1911,1984,1875
1917,1920,1903
1869,1904,1866
1854,1913,1865
1903,1927,1874
1934,1982,1838
1863,1895,1775
1845,1941,1830
1913,1922,1917
1931,1968,1901
1840,1953,1808
1842,1855,1847
1904,1936,1926
1930,1918,1872
1877,1911,1783
1855,1925,1862
1873,1924,1898
1913,1814,1840
1857,1869,1781
1873,1991,1862
1894,1922,1904
1894,1910,1871
1904,1886,1824
1875,1884,1840
1902,1909,1904
1856,1908,1878
1865,1899,1838
1834,1904,1824
1865,1911,1852
1872,1930,1889
1881,1875,1823
1883,1873,1840
1911,1933,1887
1904,1910,1885
1873,1909,1789
1930,1873,1782
1878,1874,1890
1861,1936,1900
1875,1901,1811
1919,1887,1793
1898,1866,1853
1861,1957,1878
1837,1840,1854
1840,1835,1847
1868,1872,1878
1862,1799,1834
1905,1852,1825
1894,1821,1822
1926,1879,1887
1890,1887,1893
1843,1861,1770
1920,1867,1805
1884,1814,1906
1866,1843,1897
1869,1840,1794
1897,1886,1798
1875,1871,1872
1802,1835,1822
1810,1781,1821
1840,1840,1856
1872,1846,1904
1872,1827,1886
1907,1839,1789
1949,1856,1810
1871,1883,1866
1834,1842,1872
1835,1803,1805
1893,1821,1795
1966,1777,1835
1868,1841,1873
1762,1791,1856
1783,1898,1829
1858,1840,1842
1883,1893,1890
1850,1811,1854
1878,1830,1824
1920,1857,1857
1920,1932,1840
1861,1792,1799
1843,1882,1809
1962,1871,1845
1965,1854,1787
1785,1839,1855
1774,1853,1904
1892,1822,1854
1875,1833,1823
1806,1850,1793
1859,1871,1847
1872,1859,1887
1907,1845,1898
1854,1823,1801
1865,1813,1779
1930,1840,1867
1872,1841,1905
1809,1823,1811
1850,1835,1789
1898,1837,1867
1890,1858,1847
1824,1835,1830
1808,1835,1827
1869,1840,1836
1869,1856,1841
1844,1823,1809
1855,1837,1840
1889,1833,1856
1895,1837,1830
1815,1803,1755
1803,1808,1825
1849,1854,1936
1871,1848,1862
1877,1821,1758
1838,1815,1799
1851,1854,1849
1859,1843,1841
1835,1808,1821
1817,1807,1837
1839,1824,1831
1856,1846,1830
1849,1821,1807
1818,1822,1790
1843,1804,1835
1865,1817,1841
1857,1822,1807
1900,1823,1840
1951,1835,1862
1822,1827,1846
1813,1808,1745
1931,1847,1797
1945,1835,1853
1903,1812,1872
1781,1785,1809
1776,1826,1840
1866,1839,1900
1965,1813,1814
1789,1797,1817
1754,1792,1837
1831,1840,1857
1897,1831,1871
1882,1808,1827
1871,1801,1744
1855,1840,1842
1813,1808,1866
1872,1795,1865
1935,1811,1819
1885,1840,1819
1794,1817,1829
1776,1808,1803
1860,1808,1829
1930,1840,1902
1818,1835,1850
1793,1769,1757
1850,1761,1787
1933,1840,1813
1834,1841,1890
1769,1807,1825
1847,1799,1835
1933,1841,1849
1875,1811,1838
1776,1782,1863
1804,1796,1873
1910,1854,1858
1926,1827,1793
1798,1795,1766
1783,1789,1808
1841,1837,1878
1902,1842,1898
1839,1793,1795
1845,1769,1822
1881,1827,1885
1850,1852,1867
1903,1802,1792
1853,1767,1803
1939,1811,1838
1936,1824,1837
1871,1797,1830
1726,1759,1778
1769,1781,1829
1863,1831,1872
1822,1808,1859
1841,1793,1846
1902,1818,1845
1890,1822,1847
1840,1812,1803
1809,1798,1802
1879,1819,1874
1872,1817,1862
1819,1832,1839
1882,1822,1783
1856,1811,1835
1810,1799,1853
1866,1767,1837
1812,1808,1795
1831,1839,1841
1943,1826,1847
1840,1777,1763
1776,1808,1824
1801,1848,1879
1854,1857,1899
1842,1808,1747
1830,1815,1749
1907,1825,1859
1872,1824,1885
1791,1807,1814
1792,1817,1818
1852,1839,1884
1859,1809,1826
1813,1801,1754
1856,1824,1808
1840,1838,1850
1869,1826,1847
1840,1809,1798
1840,1813,1820
1839,1817,1859
1851,1863,1887
1835,1824,1764
1823,1808,1803
1872,1845,1839
1873,1869,1894
1818,1805,1804
1771,1828,1771
1807,1867,1844
1871,1872,1905
1857,1841,1826
1840,1809,1786
1869,1860,1833
1852,1855,1878
1815,1833,1847
1869,1843,1808
1970,1854,1806
1872,1836,1857
1771,1843,1817
1808,1854,1842
1860,1846,1807
1837,1853,1842
1769,1836,1802
1831,1835,1834
1865,1842,1830
1840,1831,1836
1809,1835,1850
1820,1840,1782
1921,1860,1845
1873,1857,1808
1885,1818,1794
1845,1840,1764
1781,1837,1882
1822,1851,1863
1851,1839,1781
1858,1804,1801
1832,1833,1867
1822,1851,1808
1782,1827,1765
1824,1802,1795
1894,1854,1856
1870,1842,1905
1808,1828,1835
1819,1840,1830
1867,1818,1808
1891,1845,1811
1853,1812,1818
1853,1820,1861
1875,1837,1850
1805,1816,1839
1826,1819,1826
1826,1833,1891
1901,1847,1835
1875,1835,1859
1791,1809,1745
1783,1808,1763
1858,1834,1897
1835,1829,1866
1855,1797,1811
1855,1799,1804
1872,1843,1872
1840,1839,1853
1827,1819,1814
1814,1789,1774
1871,1846,1808
1830,1838,1818
1794,1799,1865
1826,1823,1904
1849,1827,1889
1866,1811,1885
1865,1797,1829
1866,1795,1776
1837,1814,1906
1826,1839,1910
1793,1817,1795
1844,1815,1802
1904,1811,1818
1872,1840,1834
1858,1836,1826
1813,1805,1837
1854,1812,1862
1861,1838,1915
1822,1802,1860
1840,1817,1837
1841,1844,1873
1863,1855,1907
1840,1818,1882
1854,1799,1749
1871,1810,1834
1846,1824,1856
1820,1836,1839
1886,1808,1803
1889,1845,1857
1813,1825,1858
1806,1804,1853
1856,1802,1776
1822,1838,1833
1837,1841,1908
1818,1799,1872
1869,1809,1776
1899,1852,1878
1867,1844,1905
1799,1803,1827
1791,1810,1808
1825,1843,1939
1890,1855,1806
1819,1817,1868
1795,1819,1817
1853,1840,1890
1919,1841,1844
1872,1827,1822
1821,1815,1778
1827,1853,1881
1841,1840,1823
1837,1808,1825
1859,1815,1791
1867,1842,1789
1873,1834,1867
1902,1841,1891
1859,1837,1811
1825,1821,1790
1887,1833,1855
1872,1839,1869
1797,1824,1875
1806,1846,1865
1855,1861,1879
1819,1809,1789
1847,1792,1728
1837,1827,1786
1877,1855,1843
1857,1808,1814
1821,1809,1789
1878,1838,1835
1890,1849,1930
1826,1817,1780
1872,1805,1761
1847,1818,1846
1858,1837,1850
1862,1814,1770
1856,1808,1862
1815,1809,1775
1839,1827,1844
1837,1834,1833
1853,1840,1787
1879,1808,1840
1863,1822,1871
1836,1806,1847
1825,1795,1809
1858,1824,1827
1900,1788,1846
1857,1748,1760
1819,1776,1776
1855,1828,1915
1904,1807,1915
1872,1745,1807
1851,1737,1781
1915,1735,1907
1886,1744,1887
1843,1744,1839
1839,1712,1814
1873,1712,1888
1858,1729,1903
1855,1675,1797
1859,1663,1798
1828,1646,1845
1842,1665,1898
1862,1699,1871
1862,1648,1787
1908,1649,1814
1903,1669,1841
1862,1643,1849
1887,1651,1841
1875,1680,1823
1863,1665,1814
1826,1606,1808
1814,1616,1851
1912,1651,1833
1963,1655,1811
1806,1647,1815
1767,1630,1839
1802,1639,1881
1870,1686,1958
1840,1647,1835
1859,1627,1803
1894,1631,1885
1904,1657,1909
1883,1631,1796
1826,1617,1771
1840,1637,1859
1872,1707,1919
1857,1661,1822
1833,1634,1793
1890,1643,1891
1916,1689,1865
1862,1669,1822
1858,1627,1818
1904,1645,1824
1877,1680,1887
1901,1692,1875
1821,1649,1838
1804,1649,1855
1879,1678,1836
1809,1669,1794
1811,1689,1842
1863,1711,1898
1899,1711,1869
1903,1669,1826
1841,1669,1841
1887,1689,1829
1907,1711,1844
1861,1670,1853
1871,1658,1841
1919,1726,1833
1885,1723,1824
1830,1710,1842
1898,1702,1811
1885,1719,1878
1882,1744,1872
1818,1728,1839
1883,1713,1831
1936,1723,1821
1828,1728,1878
1798,1721,1854
1843,1729,1818
1905,1744,1847
1904,1767,1890
1937,1745,1810
1864,1720,1767
1919,1744,1847
1923,1758,1870
1830,1744,1851
1846,1743,1844
1867,1779,1875
1877,1795,1891
1859,1774,1793
1827,1761,1789
1869,1778,1872
1886,1789,1894
1871,1781,1821
1830,1771,1796
1884,1785,1838
1904,1791,1874
1825,1771,1840
1835,1756,1807
1890,1795,1810
1893,1837,1855
1840,1794,1808
1847,1782,1798
1863,1810,1849
1875,1821,1883
1825,1791,1820
1847,1787,1855
