1792,1802,1727
1744,1773,1737
1769,1761,1809
1839,1811,1845
1889,1839,1836
1812,1791,1821
1776,1794,1820
1807,1834,1830
1838,1842,1834
1822,1846,1830
1840,1837,1835
1841,1820,1829
1861,1870,1824
1833,1845,1829
1897,1841,1822
1874,1857,1829
1897,1871,1826
1862,1847,1831
1783,1839,1834
1827,1887,1830
1857,1906,1814
1818,1856,1749
1835,1840,1803
1888,1873,1861
1886,1866,1794
1844,1873,1707
1836,1840,1726
1881,1872,1735
1974,1874,1779
1886,1823,2490
1815,1827,2333
1843,1839,1904
1854,1833,1711
1814,1808,1735
1867,1809,1835
1789,1840,1835
1812,1845,1828
1775,1821,1823
1766,1809,1831
1901,1850,1826
1873,1869,1827
1861,1844,1829
1827,1795,1830
1782,1813,1829
1813,1834,1827
1833,1845,1830
1831,1831,1833
1857,1818,1831
1894,1855,1833
1853,1854,1838
1792,1819,1839
1842,1819,1856
1851,1817,1820
1814,1801,1797
1847,1808,1819
1870,1833,1837
1840,1829,1831
1823,1821,1831
1835,1811,1829
1911,1819,1830
1857,1805,1834
1823,1797,1829
1803,1794,1851
1821,1819,1950
1860,1855,1943
1815,1802,1831
1854,1789,1799
1889,1803,1887
1876,1818,1922
1809,1792,1853
1850,1795,1843
1891,1807,1909
1891,1823,1886
1869,1831,1907
1923,1796,1840
1863,1799,1870
1890,1807,1895
1803,1782,1850
1767,1776,1851
1878,1802,1895
2020,1808,1888
1834,1788,1867
1808,1761,1890
1892,1813,1899
1895,1813,1913
1855,1795,1840
1821,1796,1815
1904,1808,1883
1949,1808,1930
1813,1795,1911
1834,1801,1859
1926,1783,1883
1948,1806,1882
1861,1789,1849
1887,1781,1842
1903,1813,2629
1849,1822,2558
1798,1789,1963
1875,1766,1715
1935,1789,1758
1906,1793,1827
1840,1793,1856
1872,1794,1836
1870,1778,1810
1875,1799,1820
1936,1793,1825
1883,1791,1835
1927,1812,1855
1871,1826,1824
1856,1792,1817
1866,1778,1829
1889,1797,1830
1871,1822,1832
1791,1807,1830
1821,1781,1835
1954,1790,1830
2077,1835,1831
2192,1809,1830
2319,1776,1830
2606,1798,1836
2894,1808,1835
2986,1792,1829
3056,1773,1830
3092,1781,1831
2938,1791,1836
2737,1744,1834
2608,1754,1833
2514,1773,1834
2443,1776,1825
2353,1741,1809
2302,1732,1846
2281,1751,1904
2242,1763,1925
2157,1729,1872
2116,1743,1839
2126,1763,1886
2032,1760,1904
2016,1735,1866
1977,1744,1858
1985,1779,1902
2105,1782,2016
2043,1729,2111
1877,1726,2000
1861,1748,1933
1938,1751,1874
2000,1740,1833
1888,1746,1859
1958,1767,1959
1963,1771,1947
1872,1757,1885
1852,1735,1872
1935,1767,1909
1838,1776,1952
1918,1771,1904
1831,1729,1856
1885,1741,1920
1901,1761,1920
1840,1749,1893
1831,1740,1873
1909,1766,1918
1873,1773,1952
1808,1753,1905
1810,1751,1882
1857,1762,1918
1860,1776,1936
1838,1758,1895
1812,1749,1871
1843,1754,1888
1881,1762,1923
1834,1757,1895
1786,1756,1856
1818,1776,1887
1837,1777,1921
1834,1743,1881
1805,1744,1883
1877,1765,1909
1843,1776,1933
1791,1763,1884
1840,1761,1866
1857,1775,1873
1833,1787,1919
1786,1776,1892
1800,1769,1882
1779,1775,1906
1847,1791,1925
1842,1789,1887
1794,1765,1841
1829,1771,1904
1796,1792,1935
1793,1775,1899
1808,1769,1872
1840,1793,1919
1838,1813,1927
1802,1791,1859
1828,1773,1837
1837,1805,1914
1829,1815,1922
1815,1795,1878
1805,1807,1856
1841,1827,1927
1851,1840,1950
1838,1819,1878
1851,1774,1831
1875,1792,1920
1867,1821,1949
1815,1819,1906
1803,1799,1857
1838,1811,1895
1873,1828,1950
1840,1814,1927
1822,1793,1867
1868,1810,1894
1914,1831,1947
1839,1820,1887
1789,1792,1814
1835,1809,1893
1870,1819,1931
1855,1815,1917
1861,1794,1883
1854,1822,1904
1849,1835,1942
1825,1829,1907
1819,1805,1867
1842,1821,1918
1870,1840,1920
1858,1825,1871
1840,1826,1859
1878,1853,1919
1918,1870,1913
1858,1811,1833
1808,1810,1835
1823,1844,1913
1851,1869,1930
1839,1840,1872
1846,1840,1856
1887,1870,1905
1865,1872,1904
1823,1838,1839
1819,1836,1840
1856,1849,1886
1872,1870,1915
1860,1869,1851
1836,1856,1840
1855,1859,1888
1872,1866,1907
1848,1833,1851
1837,1830,1827
1844,1872,1892
1899,1905,1949
1866,1872,1845
1798,1833,1799
1838,1862,1875
1859,1889,1940
1831,1884,1901
1835,1871,1831
1888,1867,1845
1888,1887,1904
1808,1866,1820
1799,1851,1813
1853,1877,1899
1878,1891,1929
1851,1869,1841
1865,1855,1798
1867,1886,1859
1867,1914,1923
1840,1885,2058
1822,1872,2015
1850,1884,1904
1840,1878,1829
1836,1872,1797
1844,1874,1822
1850,1907,1875
1851,1904,1895
1807,1877,1819
1811,1887,1808
1855,1895,1842
1866,1898,1903
1855,1879,1816
1888,1888,1758
1894,1909,1847
1839,1898,1877
1810,1895,1848
1794,1897,1809
1810,1888,1856
1841,1911,1898
1850,1900,1819
1843,1898,1817
1855,1904,1867
1871,1901,1871
1823,1879,1814
1808,1894,1814
1857,1936,1853
1847,1919,1872
1808,1863,1798
1842,1888,1783
1918,1910,1835
1954,1904,1824
1776,1899,1827
1771,1886,1809
1857,1929,1869
1870,1921,1891
1843,1875,1817
1837,1871,1803
1825,1903,1849
1833,1913,1872
1821,1890,1814
1851,1918,1815
1872,1887,1840
1849,1883,1861
1814,1890,1927
1811,1875,2117
1958,1906,1932
1933,1897,1830
1796,1865,1777
1810,1877,1771
1823,1925,1862
1838,1936,1887
1807,1874,1776
1858,1876,1744
1854,1904,1799
1843,1920,1847
1808,1885,1823
1809,1870,1791
1853,1904,1813
1944,1921,1844
1913,1873,1792
1817,1891,1793
1802,1886,1840
1824,1929,1889
1826,1919,1814
1809,1869,1757
1833,1887,1802
1849,1919,1850
1855,1901,1787
1887,1889,1759
1870,1889,1808
1853,1888,2313
1829,1898,2283
1798,1875,2122
1839,1897,2125
1853,1904,1897
1823,1917,1725
1827,1899,1774
1857,1886,3653
1854,1920,4095
1773,1839,3049
1697,1827,1732
1751,1797,1487
1795,1813,1707
1811,1897,1843
1804,1808,1861
1825,1859,1840
1828,1842,1827
1868,1875,1827
1863,1879,1827
1783,1887,1831
1781,1877,1830
1773,1876,1827
1791,1841,1831
1834,1915,1830
1845,1863,1829
1825,1846,1827
1851,1854,1830
1838,1858,1829
1841,1909,1828
1843,1855,1831
1813,1871,1826
1839,1843,1831
1918,1892,1827
1815,1845,1829
1824,1862,1827
1822,1855,1834
1839,1885,1828
1809,1855,1826
1801,1888,1831
1841,1833,1833
1903,1898,1825
1846,1866,2154
1787,1853,2191
1793,1851,2000
1821,1888,1931
1836,1819,1844
1826,1831,1831
1809,1835,2400
1844,1846,2320
1805,1823,1904
1779,1765,1756
1802,1823,1777
1840,1856,1821
1800,1824,1840
1786,1811,1833
1827,1845,1828
1846,1855,1830
1873,1821,1825
1834,1744,1831
1840,1788,1830
1843,1843,1830
1776,1823,1827
1760,1886,1831
1840,1877,1827
1891,1898,1826
1825,1778,1831
1776,1808,1825
1818,1830,1827
1878,1897,1824
1830,1838,1831
1819,1840,1829
1843,1823,1827
1853,1831,1829
1808,1840,1827
1780,1795,2058
1821,1825,1661
1872,1840,1733
1777,1759,1830
1766,1795,2907
1693,1628,2293
1465,1508,2438
1278,1282,1261
1199,1190,887
1311,1254,1023
1471,1348,1712
1526,1395,1959
1535,1493,1907
1649,1566,1855
1728,1606,1810
1648,1535,1810
1584,1584,1821
1655,1600,1831
1722,1655,1835
1699,1646,2745
1578,1501,2853
1422,1328,2105
1299,1286,334
1372,1328,1693
1408,1254,3426
1232,1127,1470
1216,1073,1401
1196,1102,1203
1295,1178,1689
1424,1263,2454
1376,1238,2787
1261,1170,1198
1277,1154,1362
1390,1259,1600
1493,1358,1777
1535,1394,1855
1558,1402,2032
1590,1481,1817
1634,1525,1687
1649,1558,2494
1619,1484,2128
1635,1463,2145
1613,1482,2458
1450,1413,2505
1242,1189,2175
1121,1085,1613
1089,941,1345
1012,901,3121
530,405,3088
0,0,1398
0,0,2089
0,0,1057
0,0,1255
0,0,98
0,0,3202
0,0,3741
0,0,2208
0,0,1310
0,0,1873
0,0,2077
0,0,1882
0,0,1005
0,0,233
0,0,1955
0,0,1787
0,0,1683
0,0,1501
0,0,1521
0,0,2352
0,0,3575
0,0,2079
0,0,1904
0,0,1251
0,628,1456
0,1392,1778
629,1863,1889
1194,2199,1867
1461,2339,1831
1584,2448,1819
1691,2626,1827
1776,2880,1829
1872,3088,1835
1966,3233,1830
2023,3428,1838
2097,3359,1837
2150,3680,1838
2211,3859,1837
2269,4036,1835
2290,3927,1837
2347,4085,1839
2414,4095,1838
2416,4095,1840
2437,4095,1836
2495,4095,1838
2559,4095,1836
2559,4095,1835
2559,4095,1840
2640,4095,1837
2683,4095,1837
2673,4095,1835
2672,4095,1831
2704,4095,1838
2746,4095,1838
2726,4095,1835
2727,4095,1838
2767,4095,1869
2800,4095,1893
2775,4095,1829
2768,4095,1776
2800,4095,1808
2811,4095,1831
2787,4095,1776
2787,4095,1727
2822,4095,1755
2830,4095,1773
2809,4095,1726
2806,4095,1701
2834,4095,1713
2858,4095,1747
2839,4095,1687
2817,4095,1607
2832,4095,1670
2857,4095,1723
2830,4095,1674
2815,4095,1613
2841,4095,1638
2876,4095,1701
2849,4071,1648
2829,3971,1581
2859,4003,1617
2860,3907,1648
2821,3824,1603
2810,3806,1573
2863,3871,1615
2894,3899,1653
2901,3918,1572
2794,3760,1533
2752,3693,1597
2861,3760,1655
2867,3705,1591
2755,3638,1583
2767,3645,1613
2805,3659,1644
2819,3583,1574
2779,3549,1535
2804,3577,1622
2853,3598,1664
2767,3455,1581
2711,3339,1535
2756,3359,1596
2777,3399,1646
2751,3302,1563
2736,3237,1535
2737,3254,1631
2762,3254,1680
2739,3202,1621
2718,3149,1566
2757,3154,1625
2761,3153,1665
2721,3069,1610
2711,3029,1584
2743,3019,1632
2755,3017,1679
2708,2990,1639
2684,2928,1594
2704,2906,1633
2722,2922,1690
2700,2885,1653
2675,2849,1623
2693,2812,1651
2688,2786,1680
2672,2752,1648
2671,2722,1661
2665,2715,1683
2640,2689,1677
2666,2704,1685
2663,2655,1669
2672,2637,1712
2670,2631,1742
2629,2589,1693
2617,2559,1657
2639,2559,1705
2640,2559,1742
2624,2544,1731
2617,2507,1700
2608,2465,1710
2605,2470,1753
2595,2443,1719
2559,2412,1678
2599,2435,1753
2624,2434,1799
2614,2413,1747
2586,2445,1696
2541,2391,1747
2538,2331,1793
2559,2315,1810
2601,2342,1786
2559,2432,1749
2495,2309,1745
2458,2169,1741
2464,2150,1769
2523,2257,1811
2547,2288,1828
2460,2145,1722
2428,2077,1713
2478,2085,1793
2514,2034,1887
2490,2156,1856
2457,2225,1704
2415,2090,1737
2429,2014,1825
2417,1991,1792
2422,1904,1794
2465,1927,1849
2435,2100,1813
2399,2020,1817
2365,1869,1787
2400,1870,1843
2441,1963,1872
2397,1957,1840
2355,1750,1780
2394,1702,1839
2393,1776,1853
2367,1743,1831
2369,1680,1827
2386,1694,1862
2384,1699,1873
2359,1667,1823
2339,1619,1809
2359,1596,1865
2387,1598,1914
2363,1633,1865
2316,1535,1806
2313,1469,1824
2331,1408,1871
2309,1408,1856
2301,1399,1845
2331,1418,1901
2335,1461,1931
2286,1387,1846
2286,1334,1834
2305,1318,1879
2309,1326,1920
2286,1311,1882
2271,1351,1898
2274,1255,1877
2282,1188,1900
2255,1199,1903
2242,1209,1872
2263,1217,1894
2272,1217,1941
2231,1203,1878
2211,1181,1859
2230,1183,1900
2243,1171,1961
2222,1152,1860
2193,1135,1883
2212,1136,1915
2221,1171,1904
2191,1155,1889
2187,1105,1863
2206,1134,1904
2213,1233,1950
2183,1115,1922
2157,1023,1879
2186,1073,1895
2199,1126,1907
2172,1119,1879
2159,1114,1839
2169,1117,1922
2161,1099,1968
2131,1088,1859
2126,1089,1847
2151,1115,1889
2165,1152,1936
2133,1142,1917
2119,1104,1870
2137,1129,1876
2159,1168,1942
2113,1160,1931
2069,1141,1841
2095,1159,1885
2112,1191,1923
2086,1195,1885
2143,1232,1879
2261,1338,2000
2170,1327,1984
1978,1217,1809
1968,1203,1789
2039,1264,1830
2079,1317,1918
2064,1332,1863
2064,1362,1809
2071,1434,1846
2062,1504,1946
2047,1463,1891
2177,1562,1952
2193,1661,1936
1969,1565,1803
1902,1600,1744
2047,1779,1783
2214,1957,1872
2105,2000,1941
1995,2044,1906
1973,2119,1834
1999,2119,1847
2062,2211,1909
2171,2364,1996
1943,2218,1760
1840,2330,1683
2000,2542,1837
2030,2586,1896
1873,2535,1722
1766,2602,1657
1818,2643,1725
1873,2698,1650
1889,2745,1695
1888,2805,1707
1869,2895,1744
1813,2853,1689
1957,2886,1662
1969,2916,1648
1936,2999,1790
1879,3007,1674
1535,2929,1535
1805,3022,1671
2102,3098,1665
1968,3147,1744
1673,3135,1663
1521,3056,1580
1707,3241,1680
1778,3301,1709
1501,3280,1695
1500,3366,1722
1613,3434,1761
1761,3537,1682
1661,3473,1579
1583,3470,1591
1648,3621,1703
1671,3621,1690
1598,3538,1584
1584,3537,1600
1639,3567,1682
1687,3554,1673
1636,3408,1535
1535,3462,1681
1522,3440,1718
1555,3389,1646
1571,3300,1598
1632,3277,1610
1685,3260,1663
1687,3225,1682
1559,3162,1763
1520,3151,1715
1607,3102,1719
1602,3034,1726
1583,2974,1648
1648,2907,1698
1728,2880,1683
1758,2864,1776
1561,2825,1759
1489,2768,1696
1583,2689,1818
1648,2610,1721
1658,2559,1735
1655,2535,1825
1630,2487,1861
1600,2440,1749
1578,2366,1683
1665,2350,1790
1701,2305,1898
1742,2260,1769
1650,2186,1747
1622,2128,1888
1686,2112,1866
1631,2087,1810
1587,2032,1807
1636,1986,1862
1698,1968,1936
1696,1906,1904
1675,1855,1846
1659,1825,1841
1674,1783,1943
1687,1737,1895
1680,1628,1802
1742,1643,1890
1736,1607,1977
1698,1535,1936
1703,1477,1782
1731,1482,1840
1796,1462,1936
1853,1404,1897
1776,1342,1834
1810,1321,1856
1789,1335,1965
1647,1262,1939
1534,1189,1887
1616,1181,1946
1757,1196,2093
1754,1141,1955
1701,1072,1902
1703,1019,1863
1794,1011,1910
1723,969,1947
1675,866,1900
1724,830,1894
1792,841,1985
1821,783,1887
1754,720,1840
1706,720,1937
1792,665,1968
1734,599,1915
1673,571,1867
1702,560,1904
1758,589,2000
1727,553,1924
1677,491,1844
1758,499,1915
1713,489,1936
1706,451,1953
1725,393,1931
1722,377,1935
1751,343,1937
1719,269,1856
1711,246,1876
1772,253,1888
1828,240,2000
1701,208,1922
1667,169,1885
1715,150,1866
1737,187,1929
1712,147,1904
1734,102,1852
1744,90,1867
1808,130,1925
1739,107,1906
1726,69,1863
1711,81,1930
1780,85,1910
1688,75,1935
1767,76,1904
1807,65,1834
1667,64,1928
1693,66,1913
1697,59,1898
1762,81,1911
1843,94,1897
1703,64,1887
1709,54,1856
1758,80,1885
1799,94,1921
1703,85,1877
1744,112,1846
1748,114,1871
1726,102,1872
1728,142,1889
1755,134,1829
1767,157,1807
1753,182,1887
1738,173,1971
1678,172,1920
1775,211,1854
1743,271,1920
1679,239,1938
1715,238,1871
1840,240,1824
1759,275,1896
1659,292,1875
1685,286,1827
1809,310,1819
1755,334,1918
1664,365,1936
1673,350,1878
1712,385,1853
1769,431,1915
1749,415,1889
1699,445,1846
1762,459,1861
1694,464,1869
1747,482,1862
1673,496,1855
1703,511,1858
1742,557,1829
1786,557,1833
1725,543,1856
1721,574,1879
1698,609,1918
1702,599,1827
1683,597,1806
1787,642,1825
1731,720,1919
1773,728,1878
1745,706,1805
1675,706,1841
1790,768,1890
1742,772,1850
1754,765,1774
1713,810,1853
1725,853,1904
1735,879,1863
1702,848,1792
1759,912,1872
1743,911,1873
1709,910,1824
1661,927,1782
1718,962,1796
1766,976,1785
1775,1006,1830
1729,1010,1877
1653,1065,1869
1727,1078,1856
1793,1087,1814
1795,1079,1770
1765,1130,1840
1676,1150,1872
1727,1131,1804
1764,1151,1775
1761,1203,1856
1820,1262,1882
1730,1239,1799
1687,1230,1797
1722,1275,1788
1741,1295,1853
1712,1309,1849
1601,1303,1819
1761,1347,1815
1760,1376,1856
1754,1390,1814
1747,1379,1759
1762,1406,1808
1744,1442,1869
1745,1443,1856
1731,1451,1792
1776,1483,1807
1838,1506,1884
1760,1478,1811
1776,1520,1779
1766,1492,1742
1751,1579,1859
1714,1595,1885
1686,1565,1801
1735,1600,1816
1861,1649,1867
1792,1627,1822
1684,1620,1777
1663,1648,1765
1707,1687,1849
1825,1684,1842
1680,1686,1812
1749,1724,1824
1801,1732,1829
1729,1725,1829
1755,1744,1831
1779,1763,1835
1723,1798,1875
1831,1780,1824
1744,1776,1775
1801,1792,1789
1814,1845,1883
1795,1846,1856
1728,1810,1781
1822,1835,1808
1808,1862,1833
1725,1868,1835
1682,1875,1822
1749,1890,1842
1815,1921,1885
1794,1904,1836
1751,1891,1765
1795,1923,1779
1839,1952,1827
1824,1962,1832
1696,1925,1779
1745,1953,1825
1791,1990,1848
1773,1963,1808
1782,1952,1798
1801,1978,1851
1760,2003,1830
1779,2038,1824
1739,2006,1787
1722,2019,1814
1763,2057,1886
1729,2030,1829
1818,2029,1744
1792,2014,1765
1749,2075,1847
1773,2057,1857
1788,2047,1823
1829,2079,1783
1789,2099,1853
1728,2074,1789
1763,2053,1720
1815,2096,1785
1779,2141,1891
1735,2112,1840
1738,2068,1779
1808,2124,1808
1799,2135,1789
1774,2112,1807
1769,2105,1776
1798,2125,1787
1729,2160,1830
1701,2160,1853
1712,2113,1790
1812,2142,1770
1814,2175,1840
1777,2153,1826
1749,2132,1782
1760,2128,1756
1806,2155,1807
1742,2167,1826
1744,2160,1806
1763,2161,1821
1904,2203,1858
1827,2173,1803
1687,2125,1722
1765,2157,1744
1776,2209,1867
1749,2204,1870
1746,2171,1770
1813,2160,1730
1875,2171,1798
1803,2215,1861
1690,2188,1808
1742,2185,1771
1858,2215,1786
1733,2206,1776
1743,2199,1808
1774,2193,1835
1874,2239,1857
1840,2199,1808
1787,2197,1763
1760,2211,1813
1742,2224,1904
1763,2203,1810
1834,2192,1699
1806,2193,1747
1777,2237,1850
1775,2236,1885
1812,2195,1776
1831,2221,1804
1787,2240,1859
1751,2203,1790
1770,2162,1715
1846,2194,1761
1803,2239,1840
1799,2211,1831
1806,2199,1822
1778,2200,1802
1809,2215,1837
1782,2217,1817
1823,2187,1767
1806,2195,1833
1855,2213,1904
1783,2199,1807
1770,2182,1775
1803,2186,1812
1843,2209,1856
1808,2214,1850
1802,2159,1750
1828,2188,1808
1809,2235,1892
1776,2190,1818
1795,2163,1771
1798,2192,1825
1823,2213,1861
1833,2178,1801
1766,2155,1763
1808,2179,1829
1806,2237,1920
1751,2160,1840
1758,2157,1769
1885,2187,1771
1883,2208,1844
1880,2181,1856
1806,2147,1790
1726,2167,1802
1780,2176,1825
1809,2173,1862
1792,2158,1809
1852,2174,1804
1859,2186,1846
1786,2128,1805
1749,2142,1803
1803,2176,1859
1834,2199,1950
1827,2189,1879
1828,2141,1811
1855,2145,1824
1875,2156,1840
1778,2155,1815
1739,2130,1793
1802,2161,1837
1880,2171,1872
1833,2097,1769
1814,2143,1803
1875,2173,1843
1846,2199,1917
1791,2164,1895
1817,2127,1807
1813,2147,1839
1827,2151,1871
1831,2098,1761
1818,2081,1741
1807,2142,1870
1819,2153,1929
1840,2134,1867
1820,2128,1808
1860,2115,1813
1893,2151,1914
1834,2122,1909
1807,2099,1842
1886,2098,1808
1862,2138,1904
1797,2130,1870
1771,2073,1798
1827,2087,1856
1859,2119,1893
1922,2135,1846
1901,2083,1742
1795,2130,1846
1791,2109,1953
1840,2046,1869
1883,2102,1846
1872,2116,1868
1855,2100,1865
1790,2091,1799
1807,2091,1814
1875,2067,1847
1870,2109,1935
1813,2086,1899
1795,2068,1818
1875,2074,1777
1908,2054,1890
1858,2083,1897
1787,2057,1818
1840,2064,1822
1897,2083,1842
1874,2062,1865
1861,2058,1863
1907,2068,1885
1782,2017,1891
1751,2058,1856
1835,2079,1838
1878,2064,1810
1904,2064,1874
1866,2043,1899
1802,1983,1841
1840,2034,1859
1872,2080,1909
1918,2026,1855
1849,1933,1792
1826,1967,1846
1870,2109,1872
1897,2038,1803
1862,1977,1819
1866,2064,1855
1871,2090,1872
1889,1984,1919
1879,2003,1799
1808,1984,1835
1829,2027,1927
1855,2064,1895
1865,2000,1856
1844,2022,1870
1863,2037,1893
1840,2032,1861
1829,1993,1783
1861,1983,1815
1875,2046,1917
1862,1979,1873
1870,1977,1776
1831,1959,1766
1862,1995,1872
1901,1991,1869
1855,1970,1840
1810,1968,1881
1838,1997,1904
1878,1973,1863
1881,1935,1804
1872,1947,1835
1855,2000,1911
1843,2014,1882
1840,1955,1808
1875,1933,1825
1879,1913,1891
1823,1963,1902
1835,1891,1819
1890,1986,1835
1863,1991,1895
1872,1959,1871
1855,1925,1821
1849,1935,1851
1904,1953,1904
1872,1943,1859
1786,1982,1834
1819,1914,1831
1899,1872,1897
1938,1919,1811
1842,1894,1853
1822,1953,1891
1830,1951,1904
1835,1904,1874
1849,1883,1823
1872,1902,1834
1937,1936,1867
1892,1885,1859
1859,1903,1837
1875,1920,1833
1879,1935,1903
1829,1904,1857
1813,1892,1855
1856,1893,1838
1935,1987,1868
1938,1922,1835
1835,1889,1807
1883,1943,1885
1942,1942,1938
1921,1977,1908
1809,1899,1807
1843,1874,1814
1968,1879,1865
1854,1917,1870
1839,1852,1828
1822,1903,1815
1904,1947,1871
1920,1926,1808
1890,1831,1791
1863,1911,1875
1863,1943,1917
1846,1934,1876
1849,1885,1821
1858,1872,1831
1902,1935,1856
1907,1879,1827
1918,1895,1857
1926,1914,1827
1854,1904,1875
1841,1935,1875
1851,1862,1818
1885,1886,1835
1907,1906,1866
1854,1868,1831
1831,1873,1831
1865,1902,1851
1875,1921,1921
1882,1903,1915
1858,1875,1840
1871,1879,1832
1887,1933,1839
1909,1895,1858
1877,1921,1796
1842,1874,1862
1860,1855,1888
1866,1880,1881
1913,1915,1840
1909,1855,1839
1858,1903,1933
1845,1888,1869
1815,1862,1796
1919,1872,1827
1945,1973,1906
1874,1930,1853
1810,1854,1770
1846,1795,1802
1919,1870,1818
1904,1889,1911
1887,1872,1850
1882,1872,1850
1840,1886,1901
1859,1902,1886
1866,1856,1809
1882,1868,1785
1931,1851,1850
1889,1953,1861
1829,1899,1840
1852,1873,1853
1873,1872,1840
1901,1870,1871
1875,1840,1819
1853,1851,1833
1895,1853,1872
1878,1849,1831
1853,1857,1821
1863,1872,1848
1887,1886,1882
1922,1883,1845
1936,1764,1799
1881,1872,1797
1835,1828,1866
1844,1856,1842
1843,1827,1808
1878,1842,1849
1922,1793,1887
1877,1838,1851
1840,1824,1771
1872,1791,1814
1895,1908,1830
1920,1852,1862
1888,1841,1792
1827,1822,1814
1856,1874,1903
1873,1958,1872
1841,1838,1786
1881,1826,1807
1922,1857,1861
1893,1855,1841
1841,1833,1797
1904,1851,1807
1920,1854,1855
1904,1835,1815
1838,1824,1783
1823,1842,1810
1886,1877,1838
1920,1862,1837
1904,1829,1801
1850,1842,1841
1808,1840,1852
1834,1850,1831
1875,1846,1807
1898,1841,1811
1902,1821,1851
1846,1825,1809
1808,1817,1768
1865,1838,1789
1873,1861,1857
1847,1855,1841
1819,1834,1784
1904,1846,1822
1903,1854,1874
1831,1856,1846
1833,1801,1750
1827,1819,1801
1853,1872,1904
1874,1869,1887
1831,1811,1768
1862,1842,1788
1879,1882,1857
1885,1849,1824
1892,1799,1741
1911,1845,1808
1873,1862,1851
1845,1860,1845
1808,1821,1760
1845,1846,1761
1840,1882,1876
1825,1858,1873
1833,1833,1794
1904,1865,1835
1899,1883,1872
1838,1850,1835
1805,1817,1767
1879,1840,1809
1856,1866,1851
1853,1847,1823
1833,1826,1782
1840,1826,1797
1872,1867,1842
1904,1885,1835
1847,1841,1808
1861,1826,1783
1883,1851,1846
1857,1840,1855
1805,1849,1836
1823,1847,1824
1898,1861,1869
1897,1853,1814
1862,1830,1766
1853,1850,1792
1837,1854,1906
1808,1852,1872
1820,1840,1805
1889,1856,1808
1895,1867,1855
1851,1843,1840
1855,1842,1789
1825,1840,1795
1881,1857,1840
1863,1858,1878
1837,1823,1782
1841,1827,1782
1884,1860,1846
1941,1879,1873
1904,1856,1803
1791,1842,1797
1805,1898,1893
1846,1887,1866
1864,1847,1781
1878,1824,1790
1842,1846,1859
1850,1850,1863
1834,1846,1809
1840,1843,1839
1861,1851,1841
1872,1872,1835
1904,1856,1818
1883,1857,1802
1811,1863,1858
1813,1856,1872
1855,1833,1827
1847,1835,1834
1858,1861,1901
1863,1856,1855
1850,1824,1719
1850,1834,1761
1882,1885,1904
1842,1887,1847
1842,1864,1805
1887,1837,1804
1856,1840,1872
1872,1845,1857
1823,1817,1810
1809,1833,1834
1862,1880,1887
1837,1859,1843
1808,1818,1787
1858,1855,1839
1856,1883,1882
1840,1852,1827
1808,1805,1777
1831,1817,1806
1872,1853,1830
1866,1861,1847
1840,1830,1809
1835,1820,1795
1861,1855,1858
1847,1844,1863
1820,1823,1793
1866,1839,1799
1890,1874,1847
1916,1877,1835
1893,1805,1696
1842,1818,1779
1828,1868,1896
1808,1857,1893
1846,1851,1808
1837,1840,1811
1862,1863,1855
1885,1844,1834
1838,1834,1814
1836,1857,1847
1879,1883,1863
1899,1859,1814
1839,1798,1721
1918,1831,1807
1829,1887,1921
1791,1879,1904
1791,1836,1799
1815,1831,1782
1859,1858,1854
1889,1863,1849
1880,1834,1809
1856,1850,1794
1837,1873,1881
1808,1857,1901
1787,1813,1810
1883,1852,1807
1920,1882,1887
1887,1851,1835
1806,1815,1760
1888,1856,1775
1903,1881,1825
1790,1870,1862
1806,1853,1875
1829,1846,1794
1867,1858,1891
1886,1855,1809
1840,1854,1794
1847,1869,1831
1857,1894,1922
1857,1879,1885
1856,1823,1787
1863,1823,1821
1904,1872,1852
1861,1882,1814
1823,1834,1791
1873,1830,1799
1947,1872,1866
1858,1870,1883
1820,1847,1835
1823,1868,1859
1906,1899,1914
1829,1865,1831
1810,1821,1791
1838,1850,1818
1873,1879,1863
1866,1872,1872
1852,1820,1791
1865,1824,1814
1904,1874,1850
1904,1877,1826
1866,1842,1801
1872,1856,1783
1879,1870,1901
1840,1870,1931
1811,1845,1843
1845,1857,1872
1909,1879,1873
1870,1856,1882
1807,1840,1808
1825,1845,1835
1909,1874,1891
1927,1850,1858
1845,1815,1805
1873,1857,1827
1881,1872,1879
1859,1869,1858
1821,1817,1821
1837,1830,1833
1920,1857,1872
1909,1885,1871
1819,1855,1860
1827,1859,1870
1867,1875,1902
1872,1863,1856
1843,1825,1750
1856,1829,1834
1869,1869,1893
1898,1874,1920
1851,1825,1837
1846,1835,1779
1858,1887,1897
1853,1874,1878
1829,1841,1813
1904,1847,1823
1918,1870,1904
1903,1878,1886
1882,1863,1795
1839,1850,1834
1823,1856,1891
1840,1851,1888
1841,1826,1840
1913,1872,1808
1931,1865,1840
1841,1843,1841
1794,1817,1807
1850,1840,1828
1898,1862,1879
1867,1859,1903
1803,1822,1776
1827,1827,1735
1927,1872,1859
1936,1872,1871
1813,1815,1805
1799,1840,1863
1854,1875,1936
1870,1868,1847
1842,1839,1766
1920,1853,1793
1926,1854,1803
1871,1843,1867
1808,1840,1808
1827,1855,1829
1857,1872,1857
1879,1851,1843
1901,1816,1805
1888,1843,1777
1827,1857,1853
1839,1862,1835
1843,1833,1787
1891,1826,1771
1951,1849,1757
1853,1866,1886
1781,1873,1895
1783,1854,1810
1852,1853,1840
1865,1848,1878
1878,1819,1710
1871,1839,1785
1857,1859,1869
1857,1874,1872
1789,1843,1766
1857,1855,1803
1894,1871,1827
1847,1857,1792
1861,1838,1823
1847,1838,1808
1845,1874,1855
1838,1850,1882
1820,1824,1716
1879,1840,1785
1894,1856,1872
1904,1847,1925
1885,1830,1791
1850,1834,1867
1855,1865,1847
1841,1883,1872
1811,1840,1783
1871,1849,1810
1859,1838,1843
