1845,1843,1867
1887,1834,1855
1887,1858,1903
1845,1857,1915
1871,1838,1810
1901,1826,1813
1786,1840,1872
1820,1866,1911
1887,1847,1873
1872,1838,1854
1905,1866,1858
1916,1866,1872
1847,1835,1857
1826,1840,1851
1872,1859,1893
1887,1855,1874
1901,1837,1823
1843,1826,1822
1867,1866,1881
1882,1859,1911
1868,1838,1836
1921,1846,1795
1951,1845,1818
1919,1873,1901
1866,1847,1865
1806,1834,1838
1802,1837,1875
1889,1857,1866
1901,1827,1815
1872,1845,1867
1867,1867,1914
1884,1857,1885
1898,1837,1838
1832,1826,1840
1849,1854,1866
1906,1866,1869
1891,1844,1808
1903,1822,1814
1967,1854,1883
1893,1862,1883
1808,1847,1821
1842,1843,1826
1888,1843,1862
1926,1840,1845
1891,1838,1858
1893,1869,1841
1874,1862,1841
1904,1858,1863
1911,1834,1839
1813,1843,1831
1853,1863,1897
1840,1831,1885
1858,1843,1825
1879,1872,1840
1915,1879,1877
1915,1867,1898
1888,1842,1806
1915,1847,1789
1922,1879,1889
1925,1876,1903
1872,1840,1845
1866,1835,1803
1856,1843,1834
1872,1852,1857
1877,1851,1825
1897,1859,1836
1942,1887,1878
1893,1850,1867
1797,1826,1829
1834,1840,1847
1923,1858,1910
1902,1871,1897
1873,1834,1812
1893,1840,1825
1898,1859,1877
1905,1867,1895
1847,1839,1817
1856,1830,1829
1921,1840,1876
1918,1859,1878
1941,1853,1853
1919,1838,1840
1835,1819,1855
1859,1838,1889
1858,1843,1796
1890,1841,1821
1917,1863,1915
1899,1856,1935
1859,1827,1838
1893,1856,1808
1923,1853,1819
1872,1840,1891
1818,1823,1865
1854,1822,1843
1933,1844,1859
1910,1841,1869
1967,1847,1856
1914,1826,1839
1819,1840,1872
1815,1838,1875
1838,1824,1842
1868,1818,1866
1911,1870,1876
1902,1856,1880
1846,1825,1823
1868,1822,1809
1955,1845,1863
1906,1840,1871
1862,1830,1840
1911,1835,1819
1931,1840,1872
1919,1847,1885
1855,1827,1819
1856,1820,1850
1872,1840,1894
1847,1834,1888
1840,1839,1839
1877,1841,1849
1910,1838,1895
1929,1838,1907
1913,1808,1846
1891,1790,1802
1870,1808,1858
1854,1825,1887
1854,1813,1856
1907,1795,1854
1947,1819,1889
1993,1828,1855
1909,1796,1839
1818,1792,1853
1839,1799,1858
1847,1807,1883
1853,1794,1853
1877,1798,1839
1906,1810,1875
1917,1812,1875
1918,1779,1773
1931,1799,1809
1962,1808,1869
1889,1798,1893
1813,1802,1857
1884,1783,1828
1865,1813,1920
1841,1808,1927
1854,1802,1838
1887,1809,1840
1920,1797,1871
1899,1779,1889
1845,1789,1849
1856,1795,1841
1898,1807,1882
1902,1806,1889
1873,1789,1843
1872,1795,1829
1897,1801,1878
1898,1792,1887
1870,1763,1829
1873,1776,1837
1909,1776,1879
1905,1793,1854
1895,1782,1814
1879,1783,1831
1903,1790,1872
1904,1779,1899
1903,1791,1834
1887,1733,1825
1882,1805,1874
1879,1770,1904
1870,1775,1833
1891,1759,1823
1898,1792,1871
1915,1818,1873
1919,1730,1809
1857,1784,1847
1883,1776,1905
1904,1798,1901
1882,1709,1845
1887,1719,1841
1905,1766,1886
1906,1729,1897
1886,1721,1840
1877,1678,1836
1907,1738,1883
1913,1748,1901
1879,1684,1843
1887,1712,1845
1914,1725,1874
1932,1729,1891
1904,1715,1855
1890,1672,1843
1907,1691,1876
1904,1715,1890
1879,1690,1835
1883,1677,1840
1904,1695,1881
1910,1743,1890
1888,1646,1838
1872,1647,1825
1887,1645,1864
1899,1651,1875
1868,1626,1829
1874,1623,1817
1904,1632,1854
1891,1682,1868
1858,1589,1817
1863,1618,1808
1883,1619,1847
1877,1607,1854
1846,1518,1786
1854,1569,1793
1881,1527,1842
1889,1520,1844
1856,1535,1791
1855,1534,1785
1879,1525,1834
1890,1535,1843
1852,1520,1776
1853,1535,1767
1873,1493,1810
1879,1463,1829
1862,1451,1783
1861,1525,1776
1872,1505,1811
1875,1511,1811
1856,1471,1759
1863,1427,1753
1894,1483,1807
1895,1479,1813
1856,1455,1755
1856,1445,1750
1889,1442,1795
1875,1472,1799
1849,1428,1739
1840,1447,1742
1863,1418,1779
1858,1425,1790
1846,1453,1749
1854,1437,1738
1859,1478,1773
1858,1475,1776
1826,1438,1739
1835,1439,1729
1863,1415,1765
1856,1450,1779
1824,1390,1739
1836,1423,1738
1868,1451,1779
1872,1454,1783
1833,1486,1743
1850,1425,1747
1872,1501,1782
1869,1462,1774
1823,1435,1733
1821,1440,1729
1846,1434,1778
1849,1521,1787
1822,1432,1728
1821,1435,1715
1840,1469,1761
1843,1440,1766
1821,1439,1725
1830,1440,1722
1839,1429,1758
1833,1457,1776
1809,1445,1714
1812,1450,1718
1838,1474,1770
1840,1485,1776
1814,1467,1728
1819,1485,1715
1838,1494,1762
1840,1478,1785
1813,1535,1738
1833,1520,1729
1840,1472,1776
1830,1531,1793
1808,1441,1750
1818,1506,1745
1840,1530,1785
1835,1520,1803
1808,1497,1760
1815,1513,1745
1841,1515,1780
1841,1571,1801
1811,1578,1759
1813,1589,1751
1841,1578,1790
1841,1570,1801
1813,1534,1749
1818,1610,1745
1842,1582,1791
1837,1573,1805
1822,1557,1751
1820,1557,1743
1831,1574,1786
1840,1571,1809
1815,1626,1771
1825,1584,1765
1849,1574,1806
1863,1610,1817
1833,1607,1773
1843,1615,1771
1873,1639,1823
1872,1654,1822
1847,1642,1786
1861,1649,1782
1884,1671,1830
1872,1699,1851
1855,1679,1803
1867,1687,1802
1902,1710,1850
1908,1715,1867
1886,1798,1819
1890,1690,1814
1918,1738,1860
1921,1777,1872
1894,1807,1837
1905,1759,1831
1930,1728,1878
1936,1836,1901
1923,1863,1856
1920,1787,1842
1945,1790,1888
1949,1840,1904
1919,1806,1854
1926,1811,1855
1983,1819,1897
1952,1829,1909
1918,1813,1875
1923,1813,1871
1961,1831,1905
1967,1845,1927
1946,1837,1879
1936,1840,1879
1959,1862,1924
1965,1873,1936
1952,1857,1893
1949,1856,1882
1994,1874,1936
1984,1882,1949
1959,1869,1903
1964,1865,1894
1993,1873,1937
1991,1883,1951
1968,1863,1895
1966,1856,1890
1991,1871,1934
1995,1875,1947
1970,1853,1902
1970,1850,1897
1986,1863,1931
2003,1871,1947
1962,1851,1902
1955,1842,1886
1981,1858,1934
1984,1872,1952
1986,1857,1910
1988,1856,1896
1995,1863,1927
2000,1869,1952
1977,1857,1910
1985,1856,1903
2013,1875,1936
2001,1883,1945
1970,1869,1901
1972,1862,1898
2000,1878,1941
2016,1887,1958
1981,1875,1909
1981,1873,1895
2002,1891,1941
2011,1899,1959
1985,1885,1911
1995,1881,1900
2019,1893,1939
2015,1912,1957
1989,1904,1897
1984,1909,1885
2012,1925,1936
2023,1934,1958
1994,1914,1913
2007,1907,1904
2030,1920,1939
2016,1933,1962
2003,1920,1915
2003,1917,1903
2017,1935,1946
2021,1946,1963
2000,1934,1917
2011,1934,1906
2032,1949,1951
2040,1953,1968
2012,1936,1931
2013,1936,1915
2058,1952,1952
2047,1973,1979
1982,1947,1921
1985,1937,1914
2026,1959,1964
2042,1967,1983
2011,1943,1936
2013,1938,1921
2042,1950,1962
2055,1953,1970
2022,1940,1923
2029,1937,1919
2045,1949,1955
2058,1952,1970
2037,1934,1927
2021,1929,1931
2037,1941,1970
2043,1953,1989
2023,1936,1935
2021,1927,1931
2044,1946,1967
2057,1951,1987
2040,1937,1937
2029,1923,1927
2042,1938,1969
2058,1946,1986
2018,1923,1931
2022,1914,1921
2039,1920,1955
2033,1919,1968
2001,1898,1919
2001,1885,1905
2016,1902,1950
2028,1903,1968
1998,1876,1914
1996,1867,1902
2017,1871,1931
2027,1873,1942
1990,1857,1894
1986,1845,1872
2005,1858,1920
2005,1856,1934
1985,1839,1885
1984,1831,1873
2011,1837,1920
2016,1849,1934
1993,1833,1879
1981,1814,1872
1997,1823,1914
2006,1830,1935
2005,1813,1877
1977,1803,1859
1985,1801,1898
1999,1821,1927
1983,1807,1883
1984,1806,1871
1997,1822,1904
2007,1827,1917
1980,1810,1870
1983,1808,1862
1999,1814,1907
2001,1821,1920
1983,1808,1871
1974,1802,1869
1998,1808,1904
2001,1811,1917
1983,1803,1883
1978,1801,1872
2005,1811,1904
2005,1813,1897
1986,1792,1872
1970,1790,1858
1995,1804,1895
1997,1814,1910
1970,1802,1872
1983,1802,1861
2003,1815,1905
1995,1830,1929
1969,1815,1881
1975,1811,1916
1995,1827,1913
2002,1829,1920
1981,1808,1887
1979,1809,1877
2007,1819,1909
2000,1829,1920
1975,1815,1862
1978,1813,1823
2001,1823,1948
2007,1829,1921
1974,1809,1873
1981,1811,1824
2001,1818,1936
2002,1822,1920
1954,1808,1905
1957,1799,1840
1986,1815,1887
1984,1822,1906
1965,1803,1867
1953,1795,1882
1981,1810,1923
1984,1815,1912
1953,1799,1872
1949,1802,1843
1973,1810,1895
1984,1815,1905
1955,1806,1857
1948,1802,1826
1974,1818,1915
1981,1819,1897
1951,1801,1889
1938,1799,1859
1970,1813,1891
2001,1821,1919
1949,1806,1865
1933,1799,1856
1965,1815,1903
1979,1824,1919
1955,1810,1857
1955,1804,1840
1968,1813,1887
1980,1822,1903
1950,1818,1869
1942,1817,1826
1968,1824,1892
1973,1829,1907
1947,1813,1908
1951,1808,1817
1971,1822,1886
1970,1831,1906
1942,1811,1878
1947,1808,1881
1973,1815,1886
1978,1827,1908
1950,1811,1850
1953,1802,1854
1980,1809,1938
1982,1820,1901
1949,1808,1850
1943,1798,1855
1976,1807,1905
1981,1823,1920
1954,1809,1837
1958,1799,1830
1980,1810,1895
1983,1813,1917
1954,1803,1904
1954,1795,1823
1975,1810,1893
1973,1818,1923
1958,1808,1904
1956,1805,1871
1983,1820,1928
1984,1821,1923
1953,1806,1890
1953,1801,1897
1982,1814,1885
1979,1825,1957
1954,1808,1891
1959,1803,1855
1979,1827,1905
1984,1833,1921
1951,1811,1909
1945,1803,1869
1973,1810,1915
1978,1815,1950
1947,1802,1871
1936,1806,1819
1961,1809,1850
1968,1821,1945
1941,1808,1905
1943,1802,1866
1968,1815,1937
1967,1817,1962
1933,1802,1872
1937,1798,1854
1967,1810,1899
1968,1825,1911
1943,1805,1859
1937,1795,1861
1963,1806,1897
1968,1815,1922
1941,1805,1871
1933,1799,1849
1955,1808,1897
1956,1818,1904
1936,1805,1872
1938,1808,1862
1966,1814,1903
1981,1823,1904
1952,1799,1829
1952,1811,1871
1973,1830,1937
1985,1834,1933
1979,1814,1920
2101,1855,1891
2074,1835,1874
1857,1807,1925
1857,1808,1911
1899,1798,1856
1919,1811,1914
1930,1825,1904
1915,1820,1853
1904,1809,1771
1930,1818,1921
1931,1829,1871
1909,1810,1912
1910,1802,1835
1932,1810,1875
1926,1814,1918
1904,1788,1845
1903,1776,1867
1919,1812,1875
1921,1819,1894
1894,1786,1854
1880,1778,1821
1910,1756,1873
1911,1775,1877
1922,1782,1823
1914,1699,1851
1861,1763,1861
1881,1854,1808
1936,1815,1771
1860,1751,1805
1858,1776,1882
1935,1792,1891
1925,1765,1870
1847,1759,1818
1856,1744,1850
1888,1779,1846
1889,1748,1761
1874,1746,1829
1890,1775,1867
1910,1781,1901
1896,1766,1851
1899,1741,1847
1904,1710,1856
1909,1712,1933
1885,1750,1849
1897,1745,1836
1934,1739,1937
1952,1683,1907
1911,1747,1840
1904,1778,1795
1938,1777,1855
1963,1776,1885
1941,1771,1834
1953,1793,1840
1948,1806,1882
1950,1821,1899
1949,1824,1858
1959,1822,1842
1987,1842,1877
1993,1861,1893
1997,1853,1840
2010,1797,1840
2026,1821,1909
1986,1963,1904
1937,1920,1863
1999,1952,1872
2115,2205,1933
2016,1994,1910
1968,1751,1886
2000,1744,1834
2047,1877,1847
2063,2127,1975
2032,2150,1946
1998,1817,1805
2033,1891,1846
2083,2075,1981
2001,1815,1934
1982,1731,1877
1971,1841,1936
2095,2046,2046
2058,2068,1930
2026,1867,1843
2103,1872,1904
2149,1885,1949
2043,1883,1965
2071,1898,1957
2067,2039,1963
2106,2000,2007
2046,1875,2016
2127,1877,1905
2070,1905,1947
2128,1957,1978
2089,1919,1963
2109,1941,2011
2163,1977,2000
2108,1999,1921
2077,2000,1909
2071,1870,1987
2112,1955,2003
2112,2034,2032
2112,2026,2110
2086,1851,2064
2070,1837,1904
2107,1939,1935
2109,1974,1963
2096,1843,1958
2094,1871,2007
2067,1952,2098
2075,1872,1981
2096,1849,2063
2128,1997,1999
2224,2097,2064
2080,1972,1968
2018,1706,1936
2042,1828,2029
2095,2011,1962
2064,1968,1930
2046,1936,1952
2112,1969,2017
2155,2025,2047
2117,1906,2039
2035,1856,2106
2066,1917,1930
2116,1953,1953
2165,1936,1994
2077,1985,1978
2096,2045,2022
2133,2018,2043
2043,1963,1936
2032,1985,1904
2105,2051,1999
2142,2096,2032
2096,2042,1924
2019,2020,1954
2014,2097,2007
2148,2158,2084
2084,2097,2000
1981,2080,1917
2000,2109,1936
2019,2096,1952
2043,2123,1947
2055,2094,1938
2130,2101,1967
2039,2063,1941
1968,2011,1924
1930,2002,1935
1999,2034,1968
2015,2071,1969
2057,2062,1936
2011,2063,1934
2027,2011,1945
1971,2000,1982
1982,1938,1953
1962,1909,1929
1998,1918,1951
2064,1971,1952
2013,2032,1926
2043,1978,1968
2079,1863,2047
2023,1834,1927
1961,1823,1830
2111,1931,1942
2253,2021,2000
1984,1787,1902
1808,1716,1845
1856,1786,1886
1987,1789,1955
1975,1839,1977
1960,1859,1902
1968,1759,1871
1936,1690,1920
2001,1758,1984
1958,1803,1946
1919,1657,1891
1954,1654,1911
1969,1741,1939
1923,1732,1926
1919,1645,1890
1950,1635,1895
1973,1707,1918
1964,1643,1902
1923,1591,1875
1910,1619,1888
1905,1636,1945
1979,1680,1927
1953,1682,1907
2021,1658,1933
1909,1535,1936
1851,1505,1814
1859,1535,1793
1851,1600,1867
1931,1646,1920
1977,1590,1878
1971,1493,1809
1942,1572,1835
1835,1535,1853
1889,1589,1868
1841,1525,1840
1883,1535,1849
1909,1456,1854
1775,1430,1813
1818,1456,1803
1905,1535,1850
1918,1524,1860
1857,1467,1776
1831,1456,1745
1891,1487,1833
1931,1473,1856
1758,1520,1822
1779,1535,1781
1797,1366,1803
1783,1355,1891
1765,1402,1739
1769,1456,1712
1803,1511,1775
1777,1491,1821
1767,1387,1747
1756,1391,1715
1773,1377,1786
1815,1414,1810
1712,1424,1763
1739,1431,1706
1776,1451,1747
1778,1460,1808
1712,1466,1775
1735,1471,1731
1802,1457,1754
1756,1434,1744
1679,1298,1757
1680,1370,1747
1744,1392,1797
1767,1480,1792
1618,1495,1738
1727,1453,1715
1823,1480,1773
1934,1521,1757
1857,1473,1681
1681,1456,1845
1652,1437,1831
1679,1461,1745
1712,1469,1696
1769,1488,1685
1839,1504,1754
1734,1506,1895
1681,1500,1745
1714,1500,1675
1790,1502,1745
1751,1523,1782
1699,1495,1747
1725,1474,1789
1757,1568,1846
1754,1582,1783
1712,1575,1679
1715,1530,1708
1745,1582,1755
1751,1596,1773
1729,1571,1723
1741,1569,1680
1737,1584,1755
1731,1612,1793
1718,1591,1737
1711,1583,1718
1767,1597,1809
1776,1600,1783
1723,1584,1648
1680,1563,1711
1719,1600,1794
1735,1614,1817
1718,1607,1757
1821,1603,1762
2094,1635,1828
2225,1681,1714
1853,1622,1668
1392,1621,1680
1343,1584,1766
1594,1629,1840
1701,1644,1795
1791,1661,1782
1993,1663,1667
2352,1725,1744
1658,1585,1686
1423,1650,1849
1481,1666,1904
1599,1651,1785
1925,1695,1762
2266,1754,1699
1907,1667,1622
1509,1661,1796
1437,1680,1932
1775,1693,1862
1730,1659,1705
1677,1623,1765
1748,1646,1839
1795,1730,1744
1712,1742,1807
1569,1657,1719
1809,1670,1790
2065,1711,1765
1722,1647,1803
1334,1599,1825
1558,1626,1775
1840,1696,1659
1744,1669,1673
1507,1627,1710
1523,1663,1730
1535,1664,1703
1529,1696,1726
1600,1712,1697
1557,1680,1658
1535,1701,1619
1774,1691,1637
1895,1693,1589
1819,1774,1623
1493,1767,1714
1325,1787,1679
1439,1826,1728
1505,1808,1677
1584,1830,1557
1577,1792,1580
1535,1826,1586
1562,1872,1594
1472,1831,1559
1531,1858,1616
1573,1877,1650
1535,1895,1535
1484,1892,1535
1610,1856,1646
1931,1904,1574
1695,1927,1485
1324,1975,1665
1323,1963,1598
1569,2017,1633
1535,2038,1631
1585,2042,1711
1667,2114,1749
1535,2176,1681
1449,2150,1600
1709,2160,1572
1671,2144,1623
1481,2147,1738
1471,2224,1648
1600,2288,1585
1650,2304,1614
1567,2265,1691
1566,2240,1665
1600,2299,1620
1535,2305,1664
1747,2347,1733
1635,2462,1728
1488,2403,1598
1734,2480,1706
1689,2486,1745
1474,2450,1754
1584,2471,1678
1691,2486,1711
1535,2455,1771
1661,2436,1773
1770,2442,1731
1668,2431,1808
1603,2445,1834
1648,2442,1797
1773,2383,1796
1819,2346,1767
1772,2338,1807
1719,2352,1872
1791,2273,1933
1936,2305,1945
1878,2352,2010
1790,2265,1936
1826,2251,1925
1891,2283,2003
1979,2278,2098
1995,2257,2105
2064,2271,2129
2102,2271,2113
2090,2249,2112
1959,2238,2135
1984,2247,2201
2128,2265,2160
2153,2236,2175
2226,2239,2361
2026,2171,2307
1946,2128,1502
2121,2171,1573
2132,2138,1795
2106,2115,1871
2198,2162,1857
2267,2199,1833
2228,2146,1822
2131,2220,1826
2251,2142,1829
2289,2183,1831
2194,2166,1829
2282,2133,1828
2341,2153,1831
2239,2172,1909
2225,2152,1900
2359,2060,2032
2171,1983,3797
1838,1731,1963
1664,1451,597
1759,1472,862
1951,1616,1722
2041,1722,2001
2071,1831,1923
2119,1827,1827
2101,1827,1808
2153,1866,1817
2171,1904,1825
2147,1859,1826
2242,1925,1830
2252,1979,1830
2193,1968,1823
2240,1952,1830
2278,1937,1776
2277,1953,1713
2301,1982,1683
2301,1993,1701
2205,1978,1763
2240,2005,1750
2352,2003,1727
2356,2001,1642
2317,2032,1730
2378,2023,1785
2209,2003,1733
2165,1998,1966
2213,1959,2267
2220,1859,2161
2124,1758,1776
2090,1712,1331
2026,1712,1933
2037,1689,1589
2086,1710,1595
2123,1735,1821
2185,1825,1792
2192,1773,1793
2079,1806,1806
2025,1847,1888
2153,1854,1815
2226,1884,1794
2133,1879,1811
2217,1879,1831
2183,1903,1837
2134,1936,1830
2121,1941,1825
2170,1890,1841
2288,1922,1827
2237,1914,1824
2191,1921,1915
2174,1918,1769
2129,1910,1776
2176,1938,1839
2257,1955,1850
2135,1958,1812
2090,1938,1814
2187,1993,1827
2213,1929,1831
2147,1979,1831
2081,1959,1861
2223,1958,2068
2182,2026,2125
2130,1984,2007
2207,1951,2032
2174,1977,2063
2079,2000,2002
2059,2005,1941
2123,1958,1968
2141,1942,1989
2178,2034,1952
2288,1997,1869
2213,2003,1897
2099,2007,1991
2172,2027,1963
2016,1991,1922
2007,2003,1962
2079,2032,1904
2092,1914,1869
2121,1985,1849
2083,1947,1853
2112,1997,1936
2128,1968,1826
2022,1975,1815
2010,1978,1882
2128,2038,1911
2178,2067,1856
2101,1972,1820
2112,1957,1864
1985,1978,1846
1874,1959,1801
1965,1967,1835
2082,2000,1870
2081,1995,1809
2009,1951,1776
2033,1943,1751
2053,1955,1770
2017,1983,1893
2010,1974,1833
2057,1969,1762
2004,1968,1792
1929,1951,1795
2002,1953,1834
1998,1904,1810
1961,1901,1775
1930,2017,1806
1953,1955,1776
1894,1948,1755
1925,1919,1770
1982,1900,1786
2036,1968,1779
1963,1971,1737
1974,1962,1802
1943,1959,1840
1934,1933,1763
1923,1968,1712
1971,1950,1732
1951,1966,1748
1929,1898,1703
1982,1965,1788
1853,1931,1815
1808,1891,1775
1863,1899,1723
1914,1933,1712
1962,1930,1763
1904,1891,1776
1863,1879,1741
2018,1890,1677
1995,1893,1646
1827,1899,1733
1739,1909,1747
1775,1895,1785
1835,1919,1786
1943,1934,1780
1936,1895,1714
1863,1884,1702
1946,1921,1780
1974,1911,1756
1804,1771,1680
1734,1825,1691
1791,1901,1689
1797,1883,1781
1834,1925,1747
1827,1936,1691
1847,1901,1739
1840,1877,1744
1911,1835,1696
1853,1929,1689
1801,1947,1761
1817,1898,1743
1813,1885,1714
1826,1891,1690
1872,1895,1739
1941,1899,1745
1790,1887,1674
1728,1879,1718
1758,1872,1750
1829,1882,1727
1815,1887,1687
1709,1872,1712
1750,1904,1743
1817,1918,1744
1792,1886,1703
1739,1861,1711
1777,1868,1761
1793,1885,1731
1808,1881,1658
1899,1887,1674
1825,1866,1702
1709,1877,1750
1694,1871,1729
1744,1843,1701
1803,1887,1776
1794,1894,1746
1744,1872,1676
1708,1867,1689
1786,1877,1734
1790,1881,1744
1741,1871,1712
1758,1855,1695
1775,1872,1721
1808,1883,1718
1862,1883,1722
1762,1854,1707
1642,1835,1744
1629,1872,1761
1679,1856,1726
1819,1888,1771
1889,1878,1711
1797,1866,1698
1632,1865,1697
1644,1867,1680
1793,1879,1740
1888,1905,1767
1727,1867,1718
1648,1869,1725
1687,1869,1809
1723,1879,1798
1714,1871,1730
1713,1873,1713
1756,1883,1742
1833,1885,1755
1709,1882,1737
1610,1857,1707
1681,1869,1758
1719,1888,1792
1714,1876,1726
1776,1845,1663
1812,1823,1665
1734,1887,1802
1697,1910,1782
1651,1872,1680
1693,1857,1770
1753,1871,1840
1744,1837,1731
1659,1841,1658
1685,1904,1744
1745,1893,1808
1703,1857,1776
1641,1856,1723
1697,1864,1755
1759,1882,1783
1764,1882,1758
1665,1859,1728
1679,1877,1757
1750,1885,1788
1755,1842,1723
1662,1851,1735
1646,1861,1763
1685,1863,1776
1678,1843,1758
1770,1842,1716
1727,1869,1746
1679,1890,1815
1638,1826,1749
1641,1833,1687
1719,1849,1771
1792,1879,1810
1653,1851,1744
1627,1843,1697
1690,1851,1735
1726,1850,1787
1663,1845,1775
1653,1851,1749
1772,1844,1759
1891,1839,1729
1728,1825,1707
1529,1826,1765
1627,1886,1799
1685,1887,1808
1690,1869,1763
1680,1842,1723
1693,1839,1757
1694,1871,1801
1680,1856,1729
1762,1852,1717
1740,1837,1749
1643,1856,1817
1667,1854,1755
1782,1869,1762
1702,1831,1747
1680,1853,1792
1639,1817,1776
1675,1811,1741
1729,1857,1766
1758,1853,1783
1700,1862,1776
1670,1842,1776
1767,1861,1776
1712,1837,1739
1677,1849,1747
1645,1844,1771
1682,1844,1828
1745,1858,1828
1691,1840,1759
1583,1825,1739
1663,1854,1802
1787,1855,1794
1744,1845,1750
1616,1827,1776
1647,1853,1814
1707,1872,1826
1684,1849,1782
1680,1826,1736
1728,1844,1770
1731,1851,1815
1774,1856,1765
1658,1840,1765
1650,1837,1796
1715,1825,1806
1648,1840,1809
1677,1843,1766
1719,1813,1769
1713,1839,1804
1666,1845,1807
1687,1831,1792
1677,1808,1829
1665,1825,1838
1665,1805,1827
1707,1807,1808
1753,1839,1824
1655,1837,1783
1659,1790,1807
1674,1794,1831
1652,1807,1810
1614,1823,1829
1606,1806,1821
1646,1789,1825
1739,1806,1787
1680,1787,1850
1668,1809,1788
1651,1775,1803
1623,1789,1824
1654,1811,1861
1613,1808,1801
1645,1799,1845
1684,1799,1805
1680,1789,1826
1679,1792,1808
1674,1806,1873
1705,1797,1823
1685,1815,1793
1687,1818,1838
1636,1788,1805
1651,1791,1824
1661,1795,1830
1755,1822,1828
1698,1808,1827
1694,1808,1825
1674,1826,1786
1627,1794,1697
1747,1779,1729
1713,1821,1776
1616,1846,1904
1602,1814,1810
1649,1809,1802
1750,1834,1776
1803,1846,1822
1719,1806,1716
1606,1801,1763
1631,1815,1840
1757,1840,1858
1869,1839,1759
1697,1831,1742
1595,1789,1854
1670,1823,1863
1731,1830,1799
1729,1822,1712
1757,1850,1821
1715,1836,1862
1665,1821,1737
1677,1808,1789
1763,1826,1755
1680,1831,1755
1691,1854,1804
1733,1822,1744
1731,1843,1791
1793,1868,1886
1691,1811,1774
1642,1835,1759
1751,1838,1695
1776,1847,1817
1630,1840,1840
1635,1821,1769
1711,1840,1811
1765,1840,1819
1743,1835,1761
1695,1840,1766
1723,1834,1747
1737,1837,1824
1749,1855,1754
1789,1843,1716
1807,1825,1720
1738,1824,1837
1635,1830,1789
1609,1823,1789
1681,1839,1725
1776,1856,1776
1789,1827,1774
1751,1791,1813
1697,1783,3409
1585,1721,2702
1474,1584,1861
1440,1467,1335
1448,1472,1388
1520,1500,1785
1451,1535,1747
1557,1561,1719
1667,1587,1778
1579,1629,1851
1472,1623,1905
1535,1639,1772
1667,1649,1885
1747,1670,1851
1680,1670,1909
1534,1657,1840
1565,1671,1679
1649,1710,1761
1651,1713,1827
1665,1712,1848
1698,1743,1797
1714,1778,1845
1765,1808,1825
1679,1776,1825
1706,1774,1833
1779,1803,1834
1783,1819,1830
1759,1817,1831
1723,1818,1830
1682,1843,1843
1703,1827,1824
1744,1833,1819
1782,1873,1823
1808,1861,1829
1723,1835,1851
1674,1846,1802
1735,1872,1854
1786,1901,1871
1872,1899,1767
1821,1865,1727
1731,1863,1808
1701,1893,1851
1755,1909,1800
1746,1855,1734
1830,1890,1797
1817,1901,1746
1750,1865,1691
1693,1863,1706
1763,1902,1789
1851,1921,1777
1779,1889,1792
1698,1847,1696
1800,1878,1634
1795,1890,1762
1733,1891,1725
1727,1875,1680
1775,1887,1699
1807,1915,1741
1795,1884,1751
1797,1909,1731
1773,1872,1647
1818,1895,1680
1776,1875,1722
1886,1904,1762
1774,1897,1731
1707,1883,1703
1725,1881,1695
1756,1864,1648
1839,1871,1694
1782,1877,1718
1743,1896,1670
1776,1902,1678
1755,1872,1648
1764,1870,1740
1734,1866,1685
1754,1877,1646
1805,1881,1698
1758,1867,1712
1758,1875,1647
1794,1869,1644
1817,1904,1765
1808,1871,1727
1742,1851,1744
1727,1856,1687
1761,1873,1666
1815,1899,1712
1821,1871,1646
1741,1863,1630
1744,1842,1671
1719,1859,1707
1728,1874,1648
1779,1873,1626
1950,1863,1632
1814,1863,1680
1695,1853,1631
1659,1843,1665
1744,1873,1712
1774,1855,1681
1821,1853,1645
1903,1858,1635
1841,1859,1699
1689,1870,1754
1665,1850,1687
1744,1842,1628
1823,1856,1675
1793,1863,1714
1757,1867,1664
1781,1869,1620
1840,1855,1648
1849,1861,1683
1747,1863,1687
1683,1827,1627
1761,1863,1698
1827,1881,1723
1856,1872,1695
1909,1848,1673
1747,1835,1677
1643,1863,1735
1708,1856,1687
1803,1862,1664
1872,1872,1681
1868,1886,1727
1806,1859,1712
1791,1870,1655
1963,1883,1702
1899,1871,1742
1699,1874,1715
1674,1871,1683
1840,1898,1727
1831,1869,1718
1798,1868,1746
1700,1840,1663
1798,1867,1710
1874,1901,1763
1743,1870,1728
1745,1853,1726
1854,1855,1722
1845,1891,1765
1794,1872,1728
1878,1870,1659
1884,1887,1743
1798,1855,1731
1620,1841,1742
1733,1845,1723
1852,1856,1728
1814,1855,1759
1852,1889,1756
1781,1855,1680
1761,1872,1767
1770,1869,1797
1771,1842,1759
1942,1858,1697
1855,1863,1711
1797,1872,1760
1690,1835,1744
1793,1808,1747
1831,1810,1788
1824,1874,1779
1775,1878,1744
1777,1849,1670
1920,1862,1741
1844,1833,1788
1724,1815,1798
1701,1870,1712
1788,1863,1728
1872,1856,1811
1898,1845,1791
1745,1798,1760
1717,1809,1770
1697,1855,1776
1814,1854,1749
1848,1840,1695
1750,1830,1716
1679,1837,1827
1752,1835,1803
1725,1825,1744
1853,1845,1750
1839,1857,1791
1936,1853,1790
1776,1810,1710
1811,1851,1751
1787,1867,1797
1693,1833,1769
1805,1810,1744
1805,1817,1765
1846,1828,1766
1794,1840,1769
1872,1799,3595
1790,1801,2847
1665,1797,1862
1681,1786,1611
1777,1799,1729
1818,1821,1840
1851,1821,1853
1766,1823,1841
1744,1808,1826
1733,1799,1824
1861,1838,1825
1843,1815,1833
1707,1796,1830
1761,1813,1831
1731,1820,1831
1818,1828,1829
1911,1805,1824
1733,1811,1830
1659,1807,1831
1751,1803,1827
1781,1813,1829
1810,1797,1828
1792,1814,1826
1856,1818,1825
1759,1800,1829
1797,1802,1827
1836,1814,1826
1788,1799,1828
1753,1776,1829
1761,1808,1831
1766,1817,1827
1811,1791,1826
1749,1776,1829
1719,1820,1840
1837,1840,1886
1815,1808,1803
1797,1806,1779
1744,1819,1819
1771,1819,1865
1901,1799,1799
1903,1781,1744
1821,1823,1811
1761,1824,1879
1680,1792,1829
1691,1767,1743
1869,1809,1808
1811,1808,1817
1823,1779,1803
