2199,1844,1856
2159,1769,1804
2157,1768,1795
2181,1795,1845
2161,1798,1846
2126,1782,1797
2131,1792,1805
2164,1827,1855
2137,1821,1843
2096,1801,1790
2106,1818,1792
2130,1806,1834
2116,1846,1834
2083,1891,1783
2095,1856,1804
2112,1869,1858
2102,1853,1839
2064,1811,1785
2071,1936,1806
2094,1882,1843
2081,1871,1839
2045,1872,1783
2047,1886,1794
2074,1970,1840
2054,1924,1840
2017,1918,1792
2027,1925,1793
2066,1958,1849
2043,1921,1862
2000,1893,1802
2000,1911,1793
2029,1939,1840
2022,1946,1848
1990,1919,1805
1999,1934,1805
2016,1956,1852
2003,1965,1845
1968,1936,1787
1981,1949,1799
2005,1968,1861
1997,1984,1863
1967,1930,1783
1968,1926,1795
1985,1952,1834
1973,1964,1847
1942,1939,1797
1957,1936,1790
1981,1961,1841
1968,1972,1841
1934,1959,1788
1943,1983,1793
1964,1983,1840
1946,1965,1839
1915,1936,1777
1936,1951,1789
1955,1984,1842
1936,1984,1850
1915,1967,1791
1907,1975,1794
1926,2003,1846
1929,1971,1847
1892,1928,1779
1894,1947,1791
1921,1981,1856
1907,1982,1834
1872,1944,1765
1877,1986,1793
1911,2011,1846
1905,1987,1853
1867,1934,1773
1879,1933,1821
1907,1966,1877
1889,1975,1806
1847,1957,1727
1868,1964,1756
1894,1987,1837
1903,1997,1851
1859,1966,1797
1852,1930,1788
1872,1965,1835
1867,1975,1841
1842,1954,1791
1851,1968,1818
1885,1982,1869
1867,1967,1845
1824,1931,1774
1834,1942,1783
1860,1972,1834
1870,1986,1856
1840,1935,1779
1843,1932,1787
1861,1986,1841
1856,2015,1856
1823,1934,1796
1831,1914,1792
1843,1925,1833
1851,1922,1839
1830,1936,1802
1841,1947,1807
1853,1970,1831
1850,1951,1839
1815,1921,1786
1823,1920,1790
1858,1954,1855
1852,1965,1852
1813,1920,1787
1826,1922,1775
1856,1985,1866
1840,1942,1875
1803,1903,1805
1818,1908,1825
1855,1909,1887
1840,1925,1831
1806,1915,1770
1821,1911,1785
1851,1936,1852
1840,1936,1856
1792,1905,1792
1797,1904,1786
1830,1936,1830
1837,1937,1863
1795,1914,1826
1806,1920,1807
1829,1937,1840
1821,1925,1850
1783,1891,1789
1791,1904,1786
1831,1967,1856
1819,1921,1865
1787,1874,1803
1798,1871,1795
1830,1904,1849
1819,1920,1854
1781,1906,1798
1791,1895,1786
1825,1903,1850
1821,1902,1868
1781,1889,1801
1797,1886,1808
1819,1908,1873
1808,1902,1847
1773,1892,1783
1778,1897,1792
1812,1895,1853
1819,1902,1870
1793,1872,1801
1792,1874,1787
1815,1882,1840
1823,1878,1840
1783,1897,1783
1785,1867,1808
1823,1872,1869
1819,1878,1883
1789,1869,1808
1788,1862,1779
1809,1877,1824
1814,1887,1858
1794,1902,1825
1795,1861,1810
1819,1840,1843
1817,1855,1853
1782,1840,1803
1791,1840,1803
1807,1872,1849
1795,1872,1841
1785,1841,1804
1808,1872,1810
1840,1885,1875
1833,1872,1873
1790,1838,1806
1787,1840,1790
1808,1879,1841
1804,1874,1856
1785,1840,1805
1797,1846,1803
1820,1903,1894
1802,1893,1867
1763,1814,1818
1775,1833,1791
1808,1856,1833
1808,1868,1883
1776,1843,1811
1777,1857,1809
1803,1857,1806
1803,1851,1826
1772,1827,1776
1777,1847,1787
1802,1872,1885
1799,1872,1840
1769,1841,1794
1776,1845,1786
1805,1871,1841
1791,1858,1851
1758,1825,1792
1777,1837,1794
1808,1867,1863
1797,1867,1887
1757,1822,1786
1770,1809,1780
1802,1840,1837
1792,1840,1869
1758,1812,1810
1767,1825,1808
1799,1840,1854
1805,1837,1826
1769,1803,1824
1769,1795,1827
1791,1815,1853
1794,1835,1865
1760,1808,1856
1777,1797,1801
1803,1846,1833
1799,1866,1838
1759,1807,1803
1759,1776,1803
1821,1799,1806
1823,1808,1878
1786,1778,1836
1782,1775,1799
1818,1802,1840
1824,1812,1877
1793,1790,1846
1794,1758,1823
1824,1779,1861
1822,1763,1851
1792,1758,1801
1807,1771,1825
1826,1786,1850
1815,1799,1861
1801,1775,1781
1819,1744,1831
1839,1771,1853
1842,1776,1851
1801,1750,1834
1808,1779,1815
1840,1799,1829
1838,1744,1819
1801,1728,1815
1807,1728,1782
1839,1761,1843
1840,1779,1851
1805,1753,1807
1809,1738,1760
1852,1766,1818
1855,1775,1840
1822,1747,1807
1826,1745,1802
1845,1776,1850
1843,1791,1873
1817,1787,1795
1812,1728,1776
1840,1733,1836
1845,1759,1815
1824,1746,1853
1833,1744,1831
1856,1779,1850
1845,1789,1893
1808,1755,1753
1823,1744,1768
1841,1770,1845
1840,1781,1855
1809,1750,1841
1823,1761,1803
1846,1799,1870
1845,1776,1857
1815,1733,1755
1821,1736,1791
1861,1775,1856
1868,1796,1867
1840,1759,1833
1829,1771,1823
1856,1792,1895
1862,1799,1864
1837,1777,1792
1831,1782,1888
1866,1803,1840
1872,1818,1871
1847,1780,1822
1849,1767,1803
1879,1809,1850
1878,1810,1859
1829,1773,1791
1840,1745,1751
1877,1781,1830
1880,1808,1855
1851,1805,1818
1853,1793,1803
1883,1793,1846
1886,1817,1840
1849,1804,1791
1849,1794,1802
1888,1818,1856
1891,1823,1891
1867,1788,1786
1872,1797,1719
1888,1813,1842
1888,1830,1831
1856,1803,1805
1873,1812,1872
1909,1840,1853
1905,1839,1885
1866,1806,1789
1871,1788,1856
1903,1811,1865
1904,1860,1836
1885,1842,1829
1887,1846,1821
1913,1815,1817
1917,1803,1861
1885,1799,1817
1888,1805,1792
1919,1833,1843
1914,1840,1872
1873,1811,1808
1876,1799,1841
1919,1837,1857
1927,1847,1872
1887,1814,1808
1893,1807,1765
1919,1852,1856
1909,1859,1883
1883,1830,1840
1888,1822,1817
1906,1830,1771
1904,1838,1849
1872,1814,1751
1881,1817,1849
1918,1843,1857
1919,1893,1895
1881,1824,1840
1873,1791,1822
1909,1813,1854
1902,1839,1943
1860,1821,1886
1872,1822,1886
1895,1837,1877
1898,1842,1881
1865,1832,1831
1861,1811,1802
1890,1833,1840
1897,1847,1881
1863,1812,1830
1855,1793,1829
1886,1840,1856
1886,1869,1904
1842,1824,1835
1852,1797,1813
1875,1840,1845
1874,1862,1874
1840,1834,1834
1845,1789,1822
1869,1793,1853
1872,1827,1866
1840,1807,1812
1842,1795,1798
1873,1808,1850
1874,1812,1872
1854,1808,1828
1861,1799,1831
1887,1802,1866
1890,1811,1874
1855,1789,1805
1858,1774,1791
1882,1818,1841
1887,1843,1902
1856,1808,1840
1856,1784,1808
1890,1813,1872
1888,1807,1877
1855,1785,1817
1908,1774,1802
1900,1791,1863
1936,1806,1880
1854,1783,1827
1863,1783,1814
1859,1808,1866
1901,1817,1873
1866,1792,1833
1897,1781,1826
1933,1806,1867
1853,1803,1879
1879,1777,1822
1887,1791,1817
1897,1813,1873
1898,1838,1888
1859,1798,1819
1902,1802,1807
1887,1799,1870
1916,1808,1895
1840,1809,1817
1857,1803,1813
1883,1803,1889
1886,1813,1894
1856,1792,1825
1864,1790,1822
1904,1814,1876
1901,1827,1886
1851,1797,1837
1871,1801,1823
1897,1823,1871
1888,1839,1893
1856,1795,1828
1839,1792,1805
1922,1821,1846
1879,1839,1879
1873,1823,1840
1865,1813,1819
1889,1833,1867
1901,1846,1889
1863,1820,1840
1869,1813,1808
1930,1826,1840
1904,1838,1899
1857,1823,1861
1875,1796,1819
1872,1804,1853
1919,1815,1875
1871,1802,1813
1868,1797,1822
1883,1826,1886
1887,1836,1904
1900,1810,1840
1870,1793,1810
1898,1815,1861
1875,1853,1900
1892,1816,1848
1831,1808,1829
1899,1843,1875
1841,1872,1904
1838,1761,1843
1830,1773,1818
1928,1809,1861
1920,1827,1889
1883,1809,1833
1863,1810,1825
1850,1815,1872
1888,1814,1883
1890,1798,1839
1809,1801,1813
1866,1823,1857
1860,1840,1875
1845,1826,1841
1830,1806,1847
1903,1822,1890
1865,1840,1904
1886,1828,1840
1805,1833,1820
1856,1831,1871
1874,1847,1893
1856,1822,1846
1889,1809,1830
1833,1831,1864
1879,1854,1885
1840,1829,1841
1813,1810,1817
1851,1838,1858
1879,1858,1900
1860,1850,1846
1847,1855,1840
1867,1841,1874
1869,1840,1897
1830,1822,1846
1872,1831,1805
1867,1857,1847
1846,1873,1872
1861,1866,1845
1840,1823,1833
1866,1856,1871
1862,1854,1881
1820,1818,1814
1842,1839,1792
1878,1854,1871
1879,1869,1894
1840,1854,1840
1825,1840,1809
1839,1872,1859
1841,1882,1887
1866,1856,1813
1856,1873,1814
1815,1911,1877
1884,1863,1858
1790,1823,1783
1791,1850,1806
1872,1891,1872
1836,1919,1886
1814,1862,1822
1850,1840,1809
1834,1866,1855
1834,1875,1872
1822,1865,1833
1861,1847,1820
1827,1855,1849
1865,1883,1867
1814,1863,1827
1830,1866,1823
1858,1913,1862
1849,1917,1872
1818,1836,1815
1815,1840,1807
1924,1948,1873
1920,2023,1920
1814,1823,1831
1776,1710,1792
1882,1804,1797
1817,1855,1846
1773,1862,1829
1829,1854,1817
1835,1873,1853
1866,1899,1894
1831,1862,1835
1855,1862,1837
1903,1898,1894
1842,1873,1877
1782,1845,1789
1791,1850,1772
1792,1882,1854
1814,1875,1877
1830,1936,1830
1763,1923,1792
1809,1772,1819
1826,1899,1858
1797,1825,1808
1794,1711,1787
1829,1750,1827
1840,1826,1857
1802,1826,1824
1779,1777,1800
1852,1793,1831
1818,1822,1853
1823,1810,1813
1779,1808,1808
1818,1824,1857
1821,1840,1877
1793,1809,1824
1782,1817,1796
1808,1806,1840
1831,1840,1884
1793,1840,1822
1771,1790,1775
1783,1767,1817
1805,1773,1859
1777,1770,1810
1778,1775,1793
1821,1810,1841
1840,1822,1880
1792,1810,1818
1793,1789,1799
1883,1915,1901
1886,1979,1931
1776,1734,1813
1871,1751,1838
1986,1856,1926
1757,1739,1809
1607,1673,1737
1667,1722,1731
1762,1766,1824
1830,1813,1893
1788,1776,1825
1739,1753,1744
1774,1792,1809
1833,1875,1903
1791,1856,1825
1718,1728,1738
1750,1717,1777
1828,1751,1827
1829,1771,1770
1781,1775,1742
1810,1824,1825
1838,1840,1856
1751,1803,1835
1759,1815,1819
1904,1887,1829
1952,1919,1870
1733,1840,1860
1616,1815,1783
1691,1898,1809
1776,1937,1853
1728,1934,1802
1680,1958,1754
1710,2000,1792
1737,2060,1837
1707,2071,1780
1705,2099,1760
1744,2140,1802
1743,2183,1817
1706,2195,1755
1695,2209,1732
1709,2271,1743
1759,2379,1773
1740,2419,1775
1685,2511,1751
1697,2533,1806
1712,2467,1811
1674,2480,1726
1662,2545,1694
1673,2617,1741
1682,2704,1790
1649,2749,1744
1634,2793,1697
1659,2890,1744
1670,2942,1779
1610,2928,1719
1598,2975,1667
1638,3043,1721
1649,3086,1761
1614,3056,1705
1648,3024,1681
1901,3054,1680
1995,3097,1573
1499,3030,1681
1347,3043,1806
1474,3088,1767
1638,3051,1753
1663,2967,1643
1609,2923,1626
1535,2975,1776
1805,3042,1834
1587,3022,1735
1410,2975,1765
1445,2960,1776
1554,2969,1843
1531,2933,1790
1520,2923,1769
1535,2916,1775
1578,2910,1798
1531,2903,1742
1518,2913,1716
1535,2941,1803
1581,2960,1824
1521,2913,1703
1519,2901,1676
1535,2931,1738
1575,3008,1888
1526,2969,1819
1535,2903,1682
1677,2928,1668
1658,2969,1851
1482,2915,1931
1439,2917,1807
1574,2898,1793
1616,2881,1873
1526,2854,1800
1507,2832,1825
1592,2851,1905
1641,2809,1854
1535,2775,1787
1563,2736,1769
1607,2749,1820
1597,2768,1857
1650,2690,1884
1663,2587,1845
1535,2607,1872
1520,2606,1877
1554,2512,1886
1602,2496,1934
1600,2523,1908
1584,2464,1893
1568,2358,1843
1648,2331,1859
1699,2347,1950
1599,2339,1938
1562,2288,1933
1582,2231,1903
1607,2230,1905
1733,2256,1883
1622,2166,1936
1600,2133,1947
1617,2116,1995
1615,2107,2000
1564,2027,1984
1535,1954,1884
1626,1978,1913
1707,1979,1973
1606,1920,1991
1584,1876,2005
1579,1835,1983
1600,1839,1970
1600,1781,1936
1614,1725,1943
1638,1701,2032
1646,1680,2034
1600,1661,1959
1648,1601,1929
1645,1570,1965
1662,1520,1984
1661,1535,1937
1590,1407,2000
1598,1459,2022
1636,1513,2034
1587,1423,1981
1603,1284,1936
1665,1350,1970
1648,1347,2014
1557,1265,1965
1623,1234,1959
1663,1264,2010
1649,1201,2029
1619,1140,1930
1616,1155,1931
1693,1105,2021
1669,1143,2043
1638,1094,1900
1645,1056,1951
1648,1023,2029
1662,1056,2023
1648,1041,1984
1635,930,1968
1687,935,1967
1742,1003,2000
1663,953,1979
1648,943,1948
1687,877,1944
1657,925,2015
1687,903,2016
1717,874,1952
1657,894,1904
1654,909,1999
1649,849,1995
1665,872,1936
1744,796,1939
1701,766,2046
1636,704,1973
1648,643,1857
1677,683,1919
1689,706,2038
1631,622,1936
1687,635,1849
1719,633,1955
1793,635,1977
1763,560,1922
1630,562,1895
1686,587,1973
1680,557,2017
1633,493,1893
1721,467,1907
1713,490,2021
1711,511,1988
1698,485,1878
1638,432,1842
1672,484,1954
1751,466,2032
1735,487,1927
1727,469,1811
1751,477,1904
1728,492,1945
1729,387,1826
1747,473,1899
1694,465,2000
1701,475,1970
1670,427,1771
1741,542,1890
1763,528,2000
1729,464,2027
1722,478,1914
1720,486,1781
1743,526,1895
1749,576,1973
1696,538,1883
1701,502,1791
1781,537,1805
1827,576,1955
1773,526,1925
1713,544,1840
1706,582,1818
1781,666,1963
1718,671,1979
1709,605,1858
1798,696,1808
1895,720,1907
1719,657,1906
1654,627,1825
1781,733,1891
1776,715,1908
1699,706,1809
1763,721,1805
1772,752,1857
1735,847,1943
1711,801,1885
1694,733,1749
1830,817,1886
1815,849,1895
1754,842,1847
1764,821,1856
1859,859,1847
1818,918,1926
1738,848,1797
1867,902,1773
1838,934,1852
1663,901,1732
1776,1019,1766
1769,1069,1979
1718,1087,1869
1822,1040,1898
1840,1023,1900
1809,981,1829
1856,1060,1840
1787,1088,1934
1712,1064,1856
1695,1042,1730
1875,1133,1828
1865,1279,1919
1794,1136,1869
1787,1253,1756
1804,1168,1758
1824,1231,1945
1841,1233,1914
1776,1200,1808
1858,1206,1715
1862,1293,1858
1814,1328,1921
1794,1327,1831
1855,1345,1855
1846,1328,1858
1819,1339,1808
1835,1296,1718
1883,1375,1794
1873,1336,1783
1822,1386,1791
1789,1424,1872
1808,1441,1933
1831,1450,1873
1872,1456,1789
1859,1458,1774
1840,1493,1787
1877,1515,1867
1810,1493,1781
1886,1584,1776
1887,1566,1851
1791,1557,1831
1799,1533,1763
1822,1505,1771
1869,1566,1915
1878,1636,1923
1818,1574,1771
1820,1594,1755
1844,1686,1835
1876,1715,1915
1838,1648,1811
1830,1658,1758
1855,1650,1802
1845,1694,1815
1888,1673,1770
1920,1698,1810
1837,1684,1855
1839,1716,1844
1801,1735,1823
1835,1738,1797
1862,1754,1815
1846,1772,1836
1936,1774,1793
1831,1754,1759
1778,1759,1792
1851,1792,1867
1919,1795,1840
1835,1795,1835
1856,1833,1840
1913,1859,1851
1888,1840,1808
1839,1796,1780
1795,1835,1748
1868,1866,1825
1819,1835,1793
1815,1835,1749
1874,1885,1865
1911,1896,1855
1935,1890,1765
1839,1888,1797
1826,1904,1872
1847,1911,1839
1920,1927,1774
1865,1881,1685
1847,1959,1810
1870,1957,1886
1865,1936,1821
1890,1964,1787
1890,1965,1845
1854,1968,1869
1851,1907,1760
1921,1937,1718
1843,1973,1811
1856,2021,1895
1851,1987,1840
1850,1972,1793
1929,1992,1810
1991,2012,1872
1874,1981,1818
1845,1989,1797
1826,2002,1811
1889,2043,1808
1892,2001,1795
1874,2019,1834
1871,2064,1855
1872,2026,1797
1856,2029,1755
1840,2014,1754
1872,2038,1823
1876,2081,1891
1888,2065,1850
1851,2033,1757
1920,2043,1847
1933,2096,1863
1856,2093,1812
1854,2039,1762
1942,2060,1787
1918,2103,1846
1870,2079,1792
1841,2003,1675
1884,2070,1800
1875,2109,1899
1827,2107,1856
1863,2102,1761
1861,2074,1845
1901,2093,1890
1872,2113,1826
1873,2083,1767
1877,2042,1727
1975,2083,1796
1910,2085,1813
1832,2102,1849
1854,2096,1840
1871,2106,1828
1872,2106,1808
1889,2135,1804
1890,2114,1813
1897,2098,1815
1872,2078,1807
1853,2098,1751
1918,2128,1792
1926,2135,1843
1894,2137,1808
1925,2111,1775
1917,2128,1798
1874,2159,1873
1806,2126,1771
1879,2083,1694
1935,2125,1831
1915,2165,1917
1863,2138,1801
1835,2095,1743
1865,2131,1758
1927,2192,1855
1882,2192,1858
1850,2097,1766
1845,2079,1706
1977,2135,1757
1921,2176,1904
1826,2160,1877
1830,2128,1799
1877,2165,1822
1913,2169,1811
1903,2117,1758
1904,2125,1776
1902,2142,1795
1881,2157,1776
1854,2155,1835
1875,2160,1873
1905,2158,1850
1919,2155,1793
1942,2144,1751
1943,2158,1823
1855,2139,1829
1838,2143,1774
1827,2117,1769
1904,2143,1862
1930,2167,1904
1858,2110,1790
1936,2142,1794
1963,2154,1824
1885,2177,1840
1840,2134,1807
1861,2127,1786
1915,2153,1847
1946,2187,1872
1907,2160,1827
1906,2114,1727
1903,2112,1762
1947,2155,1895
1867,2126,1877
1863,2105,1801
1920,2142,1804
1940,2165,1898
1913,2135,1842
1885,2123,1770
1937,2129,1769
1931,2157,1869
1885,2135,1851
1840,2096,1811
1862,2079,1824
1917,2119,1867
1886,2101,1823
1902,2113,1803
1908,2129,1872
1917,2139,1863
1921,2117,1830
1936,2101,1741
1901,2122,1842
1873,2075,1817
1885,2105,1809
1877,2113,1801
1913,2116,1866
1909,2093,1859
1932,2094,1751
1893,2112,1812
1870,2125,1909
1905,2118,1840
1922,2121,1840
1923,2077,1749
1907,2107,1850
1920,2128,1874
1905,2107,1865
1891,2070,1776
1968,2082,1756
1983,2096,1830
1911,2093,1876
1872,2085,1841
1909,2077,1840
1936,2100,1871
1902,2081,1798
1867,2059,1744
1905,2083,1830
1921,2107,1904
1922,2091,1902
1889,2064,1795
1909,2066,1747
1941,2090,1839
1931,2093,1855
1872,2053,1831
1906,2076,1855
1955,2083,1824
1957,2038,1791
1891,2018,1776
1888,2065,1819
1871,2091,1902
1899,2066,1870
1936,2014,1782
1947,2060,1855
1893,2058,1883
1887,2054,1840
1907,2046,1839
1940,2031,1904
1925,2045,1855
1882,2021,1808
1875,2005,1685
1919,2035,1847
1940,2055,1963
1889,2032,1883
1890,2035,1809
1901,2032,1840
1923,2032,1893
1887,2022,1806
1907,2009,1780
1936,2019,1786
1917,2019,1834
1871,2001,1851
1891,2007,1878
1895,2011,1845
1924,2014,1863
1947,1990,1830
1941,1982,1765
1891,1982,1814
1899,2017,1870
1895,2012,1856
1853,1979,1803
1890,2003,1889
1945,2011,1923
1918,1975,1809
1889,1975,1814
1894,1961,1871
1905,1979,1871
1918,1995,1883
1968,1963,1797
1919,1970,1797
1869,1970,1849
1856,1953,1834
1871,1965,1846
1922,1967,1821
1965,1989,1858
1927,1981,1891
1897,1959,1785
1893,1980,1798
1882,1945,1941
1861,1938,1836
1855,1920,1791
1915,1936,1846
1936,1958,1922
1939,1966,1847
1862,1917,1742
1865,1904,1805
1931,1937,1863
1951,1941,1856
1915,1926,1818
1891,1901,1797
1935,1924,1838
1905,1939,1855
1881,1910,1792
1921,1923,1776
1870,1903,1830
1885,1921,1862
1873,1927,1860
1872,1875,1813
1968,1875,1773
1938,1927,1865
1862,1915,1826
1890,1920,1879
1878,1891,1836
1936,1923,1856
1931,1949,1843
1851,1905,1873
1904,1919,1918
1913,1888,1873
1882,1854,1760
1906,1889,1834
1904,1919,1947
1891,1889,1785
1861,1878,1802
1905,1893,1837
1963,1920,1946
1867,1877,1821
1833,1883,1818
1887,1878,1888
1926,1883,1863
1904,1889,1854
1862,1862,1783
1891,1903,1833
1939,1893,1881
1885,1829,1748
1835,1838,1677
1875,1910,1936
1879,1907,1952
1884,1874,1840
1877,1870,1816
1866,1867,1842
1890,1883,1891
1885,1882,1849
1927,1865,1767
1916,1884,1791
1809,1872,1839
1809,1859,1781
1874,1879,1852
1909,1889,1858
1911,1859,1826
1907,1861,1771
1850,1865,1841
1851,1877,1813
1859,1871,1809
1901,1851,1872
1874,1845,1797
1890,1868,1856
1889,1891,1888
1873,1867,1854
1858,1856,1751
1856,1850,1695
1891,1871,1843
1879,1863,1889
1835,1841,1827
1833,1836,1802
1885,1882,1843
1872,1873,1826
1858,1839,1761
1878,1841,1803
1862,1847,1842
1858,1847,1805
1850,1853,1776
1866,1860,1832
1869,1859,1869
1846,1847,1813
1809,1833,1808
1858,1865,1872
1877,1862,1881
1847,1841,1798
1872,1827,1791
1905,1839,1827
1911,1873,1872
1851,1854,1846
1810,1815,1792
1851,1821,1789
1883,1840,1808
1913,1846,1786
1926,1836,1750
1826,1834,1853
1798,1856,1905
1824,1857,1865
1845,1857,1822
1838,1842,1856
1827,1840,1893
1890,1798,1778
1920,1840,1797
1883,1859,1856
1843,1882,1855
1842,1845,1819
1896,1814,1776
1887,1856,1830
1855,1875,1899
1822,1873,1838
1807,1808,1749
1836,1838,1835
1922,1871,1917
1920,1823,1833
1886,1815,1728
1881,1874,1843
1923,1885,1923
1856,1859,1845
1853,1839,1821
1851,1829,1769
1886,1872,1886
1883,1862,1846
1885,1821,1775
1903,1811,1776
1840,1873,1877
1894,1867,1875
1840,1817,1769
1884,1840,1823
1792,1847,1881
1814,1886,1890
1915,1867,1839
1914,1869,1883
1824,1815,1827
1890,1835,1792
1874,1858,1861
1819,1841,1831
1953,1844,1797
1904,1847,1853
1893,1818,1830
1835,1835,1872
1792,1872,1904
1806,1856,1856
1853,1814,1780
1927,1808,1781
1938,1799,1807
1814,1846,1874
1785,1826,1853
1797,1825,1794
1868,1845,1777
1861,1843,1840
1881,1845,1808
1856,1811,1798
1867,1811,1827
1803,1818,1841
1757,1821,1830
1844,1807,1743
1867,1835,1841
1886,1856,1877
1790,1824,1833
1856,1801,1773
1921,1817,1849
1847,1839,1863
1750,1779,1759
1814,1808,1793
1861,1828,1837
1855,1836,1900
1827,1806,1782
1899,1809,1783
1833,1858,1922
1872,1854,1871
1797,1767,1725
1845,1777,1777
1843,1879,1922
1758,1842,1872
1791,1805,1808
1958,1792,1719
1826,1847,1900
1746,1854,1899
1734,1808,1796
1881,1789,1708
1958,1853,1824
1866,1856,1931
1805,1783,1808
1876,1759,1711
1939,1876,1864
1853,1887,1920
1766,1819,1845
1856,1797,1771
1827,1830,1873
1872,1863,1872
1840,1808,1802
1826,1798,1754
2013,1889,1858
1934,1873,1905
1861,1798,1822
1831,1820,1819
1849,1849,1874
1871,1862,1885
1874,1846,1856
1882,1825,1803
1849,1840,1794
1867,1867,1872
1822,1815,1879
1825,1807,1851
1872,1847,1781
1871,1842,1834
1857,1832,1853
1856,1842,1846
1882,1859,1874
1896,1826,1841
1850,1797,1761
1835,1838,1815
1853,1871,1893
1787,1803,1824
1855,1797,1779
1862,1833,1839
1886,1833,1875
1887,1838,1841
1825,1840,1817
1922,1819,1839
1837,1829,1785
1839,1838,1850
1847,1825,1834
1888,1853,1873
1831,1859,1919
1814,1808,1791
1829,1807,1712
1953,1838,1821
1888,1867,1949
1836,1856,1934
1808,1808,1814
1886,1822,1776
1934,1839,1819
1821,1842,1821
1775,1856,1840
1778,1833,1872
1813,1829,1871
1839,1834,1837
1817,1818,1778
1795,1782,1728
1855,1834,1877
1845,1838,1866
1804,1836,1797
1849,1838,1786
1877,1856,1873
1856,1825,1839
1831,1810,1779
1815,1835,1878
1822,1856,1903
1767,1819,1836
1813,1829,1776
1874,1839,1843
1875,1870,1902
1950,1847,1856
1860,1826,1783
1807,1860,1856
1840,1853,1888
1893,1850,1827
1904,1809,1793
1885,1840,1840
1851,1847,1853
1834,1843,1879
1840,1843,1858
1901,1852,1811
1906,1866,1875
1909,1865,1869
1814,1842,1805
1812,1840,1789
1901,1876,1842
1863,1861,1888
1840,1845,1889
1850,1846,1872
1878,1874,1872
1899,1871,1860
1851,1838,1808
1857,1834,1831
1893,1858,1891
1859,1870,1844
1835,1841,1798
1823,1827,1811
1893,1878,1913
1890,1874,1874
1875,1843,1764
1872,1858,1818
1889,1872,1901
1841,1857,1869
1779,1819,1785
1855,1846,1829
1934,1865,1874
1886,1858,1872
1840,1839,1813
1819,1859,1837
1867,1885,1891
1839,1861,1851
1856,1814,1811
1884,1842,1809
1908,1872,1840
1894,1866,1869
1828,1850,1866
1808,1862,1867
1825,1865,1872
1870,1857,1870
1874,1833,1783
1902,1840,1851
1870,1865,1916
1839,1838,1845
1834,1831,1763
1857,1850,1840
1887,1885,1918
1921,1866,1845
1889,1835,1767
1819,1846,1875
1842,1874,1918
1881,1870,1870
1872,1830,1818
1901,1840,1840
1834,1809,1787
1856,1863,1868
1875,1875,1854
1878,1872,1881
1925,1861,1877
1891,1861,1860
1801,1847,1810
1823,1867,1862
1877,1855,1877
1827,1831,1834
1851,1839,1789
1891,1861,1849
1889,1866,1927
1862,1866,1871
1819,1841,1713
1877,1860,1799
1859,1869,1927
1886,1882,1923
1854,1858,1855
1818,1845,1808
1893,1886,1879
1855,1876,1875
1842,1840,1799
1904,1847,1803
1920,1872,1840
1843,1869,1847
1831,1853,1842
1904,1862,1812
1886,1877,1852
1845,1872,1872
1840,1853,1836
1850,1845,1808
1872,1885,1882
1859,1889,1909
1809,1840,1776
1842,1857,1803
1869,1909,1915
1871,1904,1878
1874,1855,1826
1822,1857,1823
1844,1884,1863
1856,1861,1877
1831,1840,1807
1879,1859,1791
1889,1872,1822
1874,1897,1879
1830,1857,1855
1824,1840,1818
1847,1863,1814
1869,1891,1852
1887,1891,1818
1840,1876,1864
1858,1888,1903
1834,1897,1903
1815,1857,1789
1881,1864,1792
1905,1895,1893
1869,1883,1884
1824,1841,1828
1826,1865,1809
1854,1867,1843
1849,1867,1866
1808,1850,1814
1888,1879,1838
1933,1907,1899
1840,1877,1835
1808,1867,1793
1853,1875,1871
1877,1898,1904
1846,1859,1811
1840,1863,1847
1846,1866,1858
1869,1907,1887
1856,1899,1901
1850,1873,1814
1871,1869,1822
1945,1885,1887
1937,1882,1866
1877,1872,1822
1813,1869,1844
1850,1898,1926
1874,1889,1853
1770,1808,1751
1840,1845,1808
1966,1904,1927
1883,1905,1957
1827,1873,1835
1849,1863,1824
1893,1907,1915
1917,1889,1874
1875,1849,1779
1865,1859,1779
1887,1886,1889
1879,1898,1899
1847,1911,1854
1869,1872,1799
1904,1842,1825
1950,1919,1821
1867,1911,1839
1808,1867,1882
1829,1842,1936
1855,1905,1915
1815,1831,1791
1861,1841,1786
1936,1903,1903
1888,1890,1907
1835,1853,1840
1846,1840,1834
1903,1873,1859
1925,1899,1872
1864,1853,1769
1868,1857,1840
1939,1867,1872
1872,1889,1877
1834,1879,1822
1850,1894,1835
1846,1883,1920
1877,1923,1888
1932,1875,1839
1903,1846,1872
1869,1886,1894
1882,1922,1866
1854,1851,1819
1863,1871,1762
1895,1911,1863
1872,1881,1919
1830,1860,1838
1871,1866,1838
1941,1896,1861
1914,1903,1879
1851,1838,1840
1856,1857,1836
1863,1886,1879
1860,1872,1899
1821,1831,1783
1884,1855,1808
1895,1889,1867
1877,1882,1885
1836,1862,1790
1882,1856,1808
1913,1909,1913
1893,1882,1918
1824,1872,1852
1855,1891,1813
1917,1866,1883
1918,1922,1855
1824,1840,1801
1855,1842,1821
1906,1866,1866
1929,1872,1878
1893,1859,1796
1888,1865,1830
1874,1837,1840
1879,1883,1916
1855,1834,1809
1869,1847,1811
1906,1855,1881
1892,1891,1904
1872,1874,1827
1893,1879,1817
1910,1894,1861
1895,1874,1877
1858,1867,1823
1891,1872,1821
1919,1921,1888
1910,1888,1858
1831,1859,1789
1856,1889,1830
1909,1926,1840
1921,1895,1892
1864,1895,1872
1840,1881,1790
1909,1872,1845
1889,1918,1857
1888,1868,1793
1906,1885,1809
1893,1914,1877
1863,1872,1875
1865,1906,1813
1889,1927,1829
1927,1867,1842
1821,1867,1808
1837,1859,1840
1862,1861,1856
1907,1917,1876
1895,1778,1883
1859,1873,1802
1872,1844,1785
1869,1872,1843
1898,1904,1921
1849,1835,1801
1845,1840,1799
1888,1919,1891
1873,1904,1852
1859,1843,1755
1867,1863,1808
1895,1876,1935
1887,1880,1917
1841,1838,1776
1862,1847,1744
1902,1802,1833
