1910,1856,1852
1906,1847,1822
1910,1883,1881
1915,1819,1874
1899,1827,1808
1938,1867,1833
1989,1894,1840
1930,1872,1841
1845,1870,1809
1860,1845,1824
1873,1857,1872
1922,1870,1863
1936,1841,1795
1885,1808,1789
1877,1879,1829
1927,1840,1883
1895,1855,1815
1895,1877,1807
1913,1844,1860
1933,1913,1856
1872,1844,1809
1870,1863,1815
1899,1872,1867
1911,1863,1858
1881,1830,1793
1904,1837,1803
1920,1872,1857
1856,1911,1875
1872,1854,1807
1879,1821,1797
1879,1863,1872
1895,1882,1875
1891,1849,1787
1886,1840,1776
1841,1869,1872
1857,1903,1895
1886,1845,1807
1889,1821,1769
1933,1877,1874
1878,1864,1888
1843,1795,1801
1879,1889,1814
1971,1882,1853
1907,1872,1888
1839,1808,1830
1867,1838,1799
1873,1835,1840
1885,1855,1842
1904,1838,1798
1893,1843,1830
1879,1899,1871
1879,1934,1882
1867,1845,1798
1872,1830,1792
1907,1874,1875
1883,1840,1873
1871,1838,1781
1842,1835,1767
1895,1850,1866
1886,1872,1904
1825,1883,1840
1893,1878,1805
1873,1872,1830
1851,1923,1866
1863,1856,1839
1838,1835,1814
1857,1867,1863
1859,1875,1886
1844,1861,1822
1861,1841,1794
1915,1874,1841
1904,1887,1840
1826,1859,1818
1818,1808,1786
1872,1840,1850
1891,1904,1923
1895,1865,1808
1867,1808,1782
1835,1849,1835
1877,1910,1904
1861,1889,1835
1819,1850,1778
1818,1868,1837
1840,1865,1872
1913,1840,1776
1902,1876,1754
1829,1910,1875
1809,1915,1920
1783,1920,1821
1822,1855,1791
1904,1859,1863
1909,1861,1840
1835,1861,1822
1830,1858,1813
1858,1875,1835
1889,1873,1856
1851,1856,1818
1808,1828,1786
1838,1980,1835
1866,1874,1870
1853,1840,1839
1778,1829,1823
1855,1858,1847
1903,1893,1863
1879,1860,1808
1793,1850,1831
1806,1870,1888
1858,1856,1895
1845,1899,1839
1891,1834,1787
1898,1893,1839
1861,1855,1874
1802,1851,1856
1807,1852,1845
1856,1858,1859
1873,1876,1867
1850,1811,1813
1855,1840,1818
1851,1910,1871
1835,1847,1909
1808,1892,1840
1821,1846,1833
1853,1870,1898
1856,1863,1903
1859,1852,1815
1824,1826,1772
1855,1856,1867
1839,1904,1889
1842,1888,1822
1919,1863,1791
1835,1877,1850
1799,1904,1925
1803,1904,1855
1840,1863,1824
1894,1929,1856
1895,1887,1862
1842,1907,1790
1824,1856,1777
1845,1899,1872
1838,1898,1918
1830,1871,1867
1856,1849,1795
1893,1875,1843
1904,1894,1845
1829,1861,1843
1799,1850,1820
1839,1878,1879
1859,1870,1869
1847,1829,1806
1797,1854,1812
1811,1911,1851
1846,1872,1884
1815,1914,1805
1851,1855,1803
1869,1855,1843
1847,1919,1871
1808,1793,1831
1808,1798,1789
1859,1742,1808
1875,1853,1861
1867,1882,1840
1818,1872,1817
1857,1887,1872
1826,1930,1883
1822,1821,1783
1845,1830,1785
1855,1875,1862
1844,1903,1878
1798,1855,1819
1843,1835,1811
1930,1862,1831
1887,1873,1890
1787,1840,1828
1797,1851,1788
1855,1869,1840
1830,1866,1875
1814,1856,1812
1840,1871,1813
1887,1887,1871
1919,1901,1882
1825,1856,1808
1773,1840,1794
1825,1883,1851
1853,1875,1872
1833,1862,1840
1885,1849,1805
1942,1876,1840
1824,1871,1851
1771,1857,1831
1808,1871,1838
1908,1907,1875
1905,1882,1872
1813,1862,1820
1814,1855,1799
1843,1873,1869
1840,1885,1866
1865,1903,1842
1888,1871,1808
1888,1875,1846
1841,1877,1872
1825,1866,1840
1839,1869,1837
1887,1885,1847
1885,1887,1879
1835,1861,1821
1840,1840,1770
1861,1875,1852
1886,1873,1893
1795,1873,1850
1797,1866,1814
1856,1887,1864
1871,1902,1884
1851,1853,1803
1872,1820,1773
1851,1877,1885
1824,1903,1886
1840,1869,1780
1856,1847,1776
1863,1886,1865
1835,1891,1882
1843,1859,1809
1879,1854,1808
1866,1887,1850
1869,1887,1887
1804,1860,1829
1801,1869,1813
1838,1871,1853
1871,1872,1910
1875,1871,1841
1840,1872,1834
1840,1885,1858
1855,1898,1863
1837,1865,1808
1853,1855,1819
1891,1875,1825
1921,1895,1881
1817,1872,1840
1798,1840,1808
1847,1877,1871
1874,1877,1889
1867,1847,1809
1833,1856,1790
1834,1873,1882
1862,1903,1920
1865,1872,1810
1844,1831,1779
1825,1872,1878
1840,1895,1878
1838,1871,1806
1883,1847,1769
1886,1863,1811
1867,1876,1888
1812,1859,1831
1837,1866,1813
1823,1879,1859
1855,1877,1904
1801,1858,1850
1825,1846,1808
1881,1870,1842
1910,1869,1859
1840,1845,1824
1859,1841,1793
1841,1877,1849
1844,1904,1904
1872,1862,1814
1838,1849,1747
1842,1859,1842
1820,1872,1874
1775,1858,1838
1811,1846,1813
1886,1872,1854
1866,1873,1862
1834,1845,1795
1853,1853,1795
1853,1873,1849
1845,1883,1873
1830,1854,1825
1846,1856,1805
1922,1878,1849
1874,1878,1844
1792,1851,1782
1777,1845,1826
1866,1866,1873
1893,1890,1879
1838,1874,1828
1806,1850,1812
1841,1855,1840
1895,1877,1840
1861,1872,1851
1826,1861,1830
1853,1885,1871
1898,1887,1869
1819,1852,1810
1839,1846,1797
1856,1878,1865
1875,1894,1904
1846,1865,1841
1884,1827,1774
1858,1863,1808
1843,1910,1871
1814,1846,1823
1809,1840,1822
1857,1872,1865
1890,1899,1888
1840,1865,1840
1872,1854,1796
1856,1857,1867
1814,1889,1872
1803,1865,1814
1821,1858,1799
1849,1877,1833
1907,1878,1867
1901,1872,1815
1882,1855,1797
1827,1866,1844
1840,1910,1872
1826,1847,1808
1819,1833,1834
1840,1851,1855
1872,1862,1913
1837,1863,1825
1835,1847,1747
1826,1887,1867
1850,1899,1898
1820,1858,1874
1822,1842,1791
1841,1872,1885
1876,1899,1856
1840,1873,1776
1842,1855,1823
1887,1876,1837
1867,1862,1877
1834,1834,1799
1877,1863,1822
1818,1902,1827
1814,1894,1885
1792,1856,1842
1826,1857,1808
1870,1872,1830
1862,1888,1809
1806,1841,1783
1843,1851,1795
1886,1862,1871
1879,1872,1859
1849,1847,1801
1831,1824,1802
1847,1865,1862
1891,1888,1871
1845,1874,1785
1808,1840,1794
1847,1854,1855
1868,1875,1870
1808,1865,1831
1831,1850,1811
1871,1872,1798
1887,1870,1817
1836,1851,1800
1824,1844,1802
1882,1872,1887
1868,1887,1885
1856,1853,1823
1839,1856,1774
1872,1900,1840
1851,1882,1866
1811,1852,1806
1818,1849,1777
1840,1873,1877
1854,1886,1922
1842,1857,1804
1840,1851,1783
1889,1879,1869
1887,1878,1811
1903,1855,1805
1817,1835,1755
1857,1855,1819
1856,1862,1820
1839,1852,1840
1857,1870,1851
1845,1888,1839
1862,1877,1849
1891,1878,1866
1858,1839,1747
1828,1857,1817
1812,1888,1895
1818,1861,1839
1818,1847,1817
1855,1875,1855
1867,1872,1883
1875,1846,1808
1881,1857,1776
1894,1876,1840
1840,1904,1827
1839,1869,1772
1804,1830,1750
1817,1859,1861
1860,1875,1927
1851,1859,1833
1840,1857,1765
1856,1877,1845
1886,1890,1903
1843,1860,1803
1857,1847,1797
1856,1877,1840
1856,1874,1855
1838,1872,1787
1893,1856,1810
1857,1883,1906
1834,1883,1890
1844,1867,1839
1849,1841,1798
1882,1855,1795
1831,1888,1925
1794,1871,1898
1819,1850,1802
1861,1872,1842
1904,1905,1873
1898,1879,1861
1856,1851,1803
1844,1872,1840
1867,1890,1872
1855,1875,1813
1823,1854,1805
1822,1876,1845
1883,1894,1835
1872,1872,1872
1922,1853,1766
1875,1873,1829
1801,1883,1925
1801,1866,1898
1818,1853,1808
1863,1883,1887
1883,1891,1963
1926,1863,1765
1886,1837,1759
1847,1861,1904
1851,1893,1968
1866,1874,1827
1840,1859,1791
1861,1867,1813
1858,1885,1852
1862,1871,1831
1856,1859,1839
1872,1883,1839
1897,1910,1882
1825,1871,1794
1811,1856,1826
1872,1879,1855
1857,1887,1883
1851,1872,1785
1977,1874,1841
1951,1872,1865
1837,1903,1906
1769,1871,1861
1787,1855,1765
1870,1873,1841
1950,1881,1861
1889,1857,1830
1821,1861,1823
1839,1893,1872
1853,1911,1898
1840,1855,1811
1824,1839,1782
1873,1877,1843
1877,1899,1920
1878,1878,1872
1857,1856,1836
1875,1888,1831
1882,1911,1872
1820,1873,1875
1840,1856,1755
1889,1869,1858
1903,1877,1843
1915,1866,1834
1900,1848,1761
1839,1868,1869
1808,1882,1894
1783,1871,1822
1840,1858,1811
1904,1866,1835
1893,1885,1850
1825,1873,1813
1814,1859,1824
1874,1888,1899
1901,1903,1904
1854,1874,1830
1834,1872,1797
1888,1879,1824
1881,1885,1859
1834,1874,1819
1867,1851,1765
1882,1868,1872
1841,1891,1889
1794,1870,1840
1823,1842,1767
1874,1858,1839
1872,1901,1899
1887,1883,1840
1846,1856,1807
1834,1886,1862
1863,1903,1872
1855,1871,1795
1871,1863,1806
1874,1872,1843
1845,1886,1872
1822,1867,1835
1855,1840,1798
1801,1845,1844
1894,1877,1901
1856,1858,1792
1837,1853,1780
1808,1867,1869
1878,1899,1917
1808,1868,1848
1857,1840,1798
1867,1886,1867
1970,1904,1881
1871,1843,1771
1814,1829,1781
1879,1863,1821
1840,1891,1936
1773,1863,1856
1793,1849,1812
1897,1883,1875
1913,1882,1865
1909,1861,1816
1867,1834,1792
1866,1867,1872
1824,1888,1911
1821,1872,1833
1856,1841,1774
1835,1854,1833
1877,1870,1856
1840,1867,1822
1831,1838,1813
1904,1875,1872
1840,1875,1872
1846,1843,1829
1837,1845,1821
1955,1903,1872
1994,1898,1846
1849,1850,1809
1808,1825,1825
1856,1845,1860
1841,1878,1889
1808,1867,1854
1807,1858,1791
1849,1867,1822
1867,1863,1893
1825,1863,1843
1839,1858,1804
1854,1865,1821
1907,1872,1865
1840,1863,1853
1872,1840,1802
1883,1859,1826
1904,1891,1862
1891,1863,1840
1904,1841,1776
1829,1874,1838
1815,1874,1891
1847,1850,1857
1940,1836,1823
1896,1869,1839
1871,1895,1859
1809,1858,1837
1783,1833,1798
1874,1847,1808
1847,1874,1868
1878,1858,1843
1862,1839,1799
1849,1882,1826
1870,1884,1852
1872,1839,1809
1807,1815,1777
1799,1858,1858
1902,1901,1893
1905,1865,1835
1923,1854,1808
1761,1853,1808
1778,1885,1872
1794,1859,1825
1909,1844,1804
1857,1851,1828
1831,1878,1866
1856,1890,1850
1856,1874,1825
1894,1861,1830
1839,1856,1872
1831,1857,1828
1808,1867,1810
1808,1882,1875
1815,1885,1883
1877,1869,1844
1951,1858,1803
1894,1863,1779
1790,1869,1887
1776,1851,1850
1840,1840,1834
1920,1872,1840
2000,1911,1871
2064,1869,1712
1808,1841,1837
1673,1862,1959
1764,1882,1951
1824,1867,1855
1840,1840,1776
1879,1857,1823
1938,1897,1872
1872,1873,1846
1796,1834,1790
1843,1863,1797
1943,1885,1887
1865,1867,1854
1822,1833,1821
2012,1850,1833
2057,1863,1799
1869,1863,1843
1683,1867,1891
1798,1885,1886
1908,1874,1874
1851,1845,1776
1819,1826,1787
1813,1867,1833
1975,1893,1913
1903,1859,1839
1805,1833,1778
1830,1851,1825
1965,1890,1890
1925,1840,1787
1823,1819,1790
1751,1863,1904
1802,1878,1925
1808,1856,1810
1891,1813,1760
1936,1872,1863
1933,1886,1927
1811,1838,1831
1875,1835,1792
1938,1858,1847
1877,1876,1892
1836,1840,1858
1866,1829,1791
1922,1845,1806
1873,1861,1876
1871,1841,1851
1796,1834,1800
1872,1858,1845
1839,1861,1882
1805,1840,1856
1837,1824,1807
1889,1836,1807
1904,1834,1840
1863,1855,1859
1802,1831,1803
1811,1856,1862
1877,1856,1883
1837,1829,1842
1850,1809,1776
1929,1842,1801
1853,1840,1872
1808,1815,1835
1789,1808,1791
1847,1831,1830
1831,1856,1906
1807,1837,1871
1794,1815,1792
1888,1833,1809
1936,1841,1809
1840,1823,1794
1803,1808,1840
1856,1848,1872
1885,1862,1862
1845,1823,1808
1873,1806,1792
1842,1817,1862
1865,1851,1883
1835,1833,1813
1883,1808,1805
1859,1822,1853
1841,1851,1856
1854,1835,1847
1838,1808,1801
1873,1831,1850
1927,1854,1872
1845,1813,1839
1794,1826,1820
1839,1834,1851
1849,1850,1866
1839,1842,1853
1869,1821,1794
1915,1846,1823
1915,1858,1826
1900,1842,1845
1855,1809,1803
1831,1837,1867
1872,1862,1865
1840,1840,1818
1819,1817,1809
1872,1857,1840
1856,1873,1889
1836,1847,1857
1847,1823,1797
1888,1833,1832
1872,1851,1877
1872,1845,1846
1851,1824,1808
1867,1842,1840
1898,1855,1878
1878,1841,1863
1818,1818,1808
1824,1839,1847
1851,1852,1838
1911,1847,1822
1925,1827,1796
1887,1856,1861
1893,1853,1878
1825,1831,1831
1797,1808,1810
1897,1845,1840
1939,1879,1883
1889,1850,1779
1850,1834,1785
1885,1840,1891
1877,1872,1915
1856,1840,1821
1906,1810,1744
1931,1833,1833
1851,1882,1965
1819,1853,1902
1839,1838,1817
1870,1828,1809
1930,1852,1849
2021,1829,1795
1887,1840,1776
1808,1866,1869
1850,1866,1904
1888,1872,1870
1893,1835,1811
1923,1831,1856
1949,1871,1885
1932,1840,1808
1950,1840,1775
1933,1846,1815
1865,1873,1885
1841,1858,1871
1863,1837,1824
1944,1855,1862
1957,1874,1895
1945,1833,1836
1862,1823,1809
1918,1843,1838
1967,1863,1875
1871,1845,1841
1877,1830,1814
1912,1860,1840
1941,1876,1878
1925,1852,1875
1883,1859,1809
1923,1856,1837
1933,1866,1872
1873,1843,1867
1888,1840,1839
1939,1857,1872
1936,1859,1897
1883,1867,1850
1879,1862,1785
1904,1854,1813
1967,1872,1913
1936,1834,1838
1938,1845,1807
1920,1872,1834
1929,1884,1872
1893,1847,1835
1862,1835,1825
1971,1830,1830
1971,1867,1855
1943,1873,1871
1847,1830,1823
1881,1846,1840
1938,1867,1899
1935,1846,1858
1904,1839,1806
1936,1856,1828
1994,1862,1843
1936,1825,1803
1906,1809,1799
1895,1858,1857
1919,1886,1935
1879,1856,1829
1893,1838,1794
1949,1869,1870
1975,1879,1902
1919,1850,1834
1864,1835,1776
1954,1857,1829
1936,1874,1893
1887,1872,1872
1894,1854,1818
1925,1855,1808
1985,1872,1904
1963,1853,1810
1903,1831,1759
1904,1857,1876
1937,1857,1923
2059,1830,1857
1973,1814,1758
1903,1840,1810
1901,1858,1914
1904,1866,1897
1920,1846,1808
1936,1850,1844
1936,1859,1898
1914,1860,1847
1921,1846,1808
1943,1844,1827
1961,1843,1861
1942,1856,1843
1895,1873,1819
1936,1839,1834
1990,1840,1851
1891,1799,1831
1914,1859,1822
1946,1899,1838
1957,1892,1859
1881,1886,1817
1849,1870,1841
1889,1806,1837
1936,1883,1897
1906,1860,1854
1866,1789,1773
1971,1808,1824
1936,1866,1872
1862,1840,1861
1894,1853,1838
1948,1850,1841
1968,1911,1825
1936,1849,1787
1955,1841,1769
1920,1875,1849
1872,1895,1918
1856,1885,1869
1835,1831,1806
1904,1849,1837
1954,1878,1887
1915,1856,1869
1878,1830,1813
1939,1863,1810
1941,1856,1870
1878,1901,1850
1856,1793,1802
1890,1824,1840
1899,1879,1859
1922,1840,1795
1981,1820,1754
1963,1854,1861
1818,1865,1915
1798,1856,1893
1835,1836,1804
1904,1872,1840
1929,1874,1887
1882,1856,1853
1898,1819,1818
1941,1866,1842
1889,1886,1877
1840,1853,1819
1869,1830,1791
1862,1837,1815
1940,1883,1897
1918,1877,1840
1856,1824,1807
1893,1850,1841
1917,1905,1891
1891,1869,1855
1863,1829,1779
1866,1854,1782
1898,1856,1843
1872,1883,1864
1845,1818,1821
1881,1881,1843
1898,1904,1869
1853,1846,1829
1837,1875,1806
1891,1839,1853
1884,1841,1841
1915,1841,1780
1840,1823,1760
1806,1831,1841
1845,1887,1882
1874,1863,1840
1904,1780,1775
1870,1842,1871
1844,1842,1843
1821,1837,1800
1851,1839,1794
1870,1837,1841
1870,1851,1870
1825,1872,1779
1841,1872,1808
1867,1827,1876
1845,1827,1893
1793,1838,1841
1827,1835,1798
1877,1841,1830
1897,1894,1846
1846,1791,1821
1831,1796,1755
1904,1831,1815
1920,1853,1872
1849,1843,1858
1787,1843,1796
1802,1822,1841
1855,1849,1885
1856,1850,1827
1814,1826,1794
1844,1836,1854
1852,1863,1893
1852,1866,1863
1814,1847,1780
1813,1824,1814
1888,1837,1856
1874,1834,1809
1902,1806,1712
1898,1813,1853
1839,1883,1959
1762,1856,1863
1770,1822,1778
1834,1827,1826
1902,1938,1882
1862,1853,1813
1801,1828,1795
1843,1820,1819
1861,1862,1872
1840,1856,1818
1801,1818,1764
1840,1805,1817
1859,1855,1872
1839,1920,1856
1856,1783,1777
1930,1829,1799
1839,1851,1888
1791,1851,1887
1868,1872,1817
1825,1858,1821
1817,1867,1872
1814,1832,1838
1837,1846,1805
1905,1851,1829
1861,1897,1887
1813,1861,1854
1897,1837,1784
1843,1856,1808
1829,1865,1817
1819,1852,1874
1813,1855,1851
1819,1921,1853
1840,1859,1865
1813,1831,1833
1807,1807,1777
1893,1845,1810
1861,1879,1905
1839,1824,1872
1888,1799,1783
1863,1842,1810
1821,1841,1899
1779,1838,1856
1829,1855,1807
1851,1855,1840
1847,1837,1866
1801,1808,1847
1818,1813,1790
1879,1856,1807
1909,1898,1881
1834,1838,1845
1767,1871,1824
1796,1902,1825
1842,1877,1872
1840,1881,1863
1846,1831,1799
1849,1841,1810
1839,1890,1872
1844,1866,1822
1847,1831,1792
1860,1859,1846
1840,1898,1905
1817,1882,1872
1792,1856,1794
1849,1858,1835
1856,1883,1862
1815,1863,1847
1843,1843,1787
1866,1872,1866
1854,1898,1907
1798,1871,1844
1785,1827,1776
1797,1846,1815
1858,1892,1889
1872,1869,1817
1858,1843,1785
1843,1857,1861
1807,1891,1911
1822,1872,1869
1827,1850,1815
1861,1861,1815
1875,1881,1851
1842,1870,1837
1821,1841,1795
1897,1882,1849
1926,1904,1865
1786,1851,1845
1740,1829,1830
1787,1839,1851
1835,1891,1869
1822,1869,1795
1840,1863,1806
1874,1881,1853
1875,1882,1857
1838,1871,1828
1808,1836,1782
1893,1872,1853
1859,1869,1888
1822,1855,1853
1857,1845,1802
1847,1873,1872
1843,1887,1883
1811,1858,1846
1830,1823,1773
1858,1858,1842
1887,1903,1909
1848,1882,1857
1835,1840,1781
1886,1866,1808
1853,1878,1857
1797,1848,1871
1840,1859,1819
1869,1863,1827
1873,1881,1891
1807,1861,1843
1800,1845,1821
1851,1867,1840
1899,1897,1882
1887,1889,1851
1837,1844,1794
1828,1853,1855
1862,1872,1872
1866,1872,1855
1879,1872,1810
1858,1854,1823
1871,1892,1872
1851,1875,1862
1840,1847,1795
1833,1872,1843
1855,1897,1900
1821,1872,1856
1824,1833,1817
1873,1872,1869
1904,1902,1890
1909,1872,1835
1899,1840,1776
1840,1868,1821
1814,1904,1905
1810,1895,1926
1808,1872,1856
1852,1869,1846
1875,1869,1866
1904,1879,1821
1890,1841,1777
1890,1856,1840
1874,1886,1875
1834,1879,1872
1831,1847,1815
1878,1865,1855
1882,1904,1923
1887,1885,1842
1840,1861,1779
1829,1859,1853
1869,1858,1890
1867,1867,1867
1820,1843,1807
1840,1847,1830
1890,1872,1882
1894,1857,1840
1845,1842,1742
1857,1843,1831
1903,1874,1925
1885,1883,1878
1826,1858,1839
1865,1875,1851
1874,1875,1849
1829,1839,1835
1805,1817,1833
1851,1849,1873
1871,1882,1885
1872,1866,1823
1869,1823,1794
1873,1833,1821
1897,1886,1917
1839,1862,1849
1843,1841,1808
1872,1849,1831
1815,1865,1829
1811,1846,1846
1838,1836,1856
1881,1838,1859
1905,1851,1867
1838,1856,1840
1809,1847,1783
1881,1872,1838
1921,1885,1903
1862,1842,1861
1816,1830,1830
1853,1856,1829
1891,1872,1907
1872,1865,1872
1862,1858,1825
1927,1861,1840
1951,1857,1809
1841,1840,1808
1799,1827,1854
1840,1854,1889
1873,1904,1909
1832,1865,1845
1823,1838,1808
1879,1847,1856
1930,1882,1890
1899,1857,1849
1847,1858,1825
1811,1874,1855
1818,1893,1900
1847,1856,1871
1869,1811,1771
1873,1869,1805
1853,1883,1887
1846,1879,1862
1856,1839,1833
1842,1863,1818
1850,1890,1882
1851,1872,1936
1867,1838,1936
1857,1860,1870
1904,1872,1847
1887,1856,1840
1842,1840,1802
1833,1851,1859
1860,1885,1890
1839,1869,1850
1827,1862,1759
1870,1865,1855
1872,1887,1919
1845,1857,1856
1840,1853,1842
1847,1856,1840
1851,1886,1914
1838,1872,1860
1835,1848,1803
1889,1849,1825
1916,1869,1861
1916,1859,1847
1838,1827,1808
1875,1847,1817
1872,1902,1880
1837,1895,1851
1790,1851,1836
1856,1872,1872
1873,1875,1873
1857,1868,1859
1834,1847,1821
1860,1872,1840
1881,1873,1867
1863,1870,1891
1856,1853,1817
1875,1867,1804
1931,1872,1862
1871,1856,1797
1835,1841,1781
1818,1867,1869
1845,1872,1881
1862,1855,1843
1874,1839,1792
1878,1862,1802
1850,1872,1869
1830,1861,1881
1827,1843,1828
1871,1845,1822
1904,1877,1843
1863,1868,1831
1822,1835,1811
1874,1863,1846
1920,1911,1963
1936,1850,1863
1879,1829,1776
1821,1853,1762
1842,1872,1907
1809,1882,1911
1831,1862,1870
1845,1871,1866
1891,1913,1891
1904,1881,1873
1855,1840,1808
1873,1872,1811
1895,1888,1878
1854,1872,1840
1857,1837,1753
1865,1845,1798
1864,1878,1855
1845,1878,1856
1850,1855,1841
1922,1861,1846
1911,1893,1902
1824,1865,1821
1794,1827,1768
1843,1863,1876
1907,1898,1939
1870,1873,1876
1856,1840,1795
1901,1843,1841
1898,1889,1875
1808,1873,1871
1787,1854,1801
1856,1855,1859
1921,1879,1902
1866,1853,1863
1831,1833,1801
1872,1856,1839
1884,1887,1794
1865,1871,1853
1837,1852,1773
1861,1875,1868
1863,1858,1909
1857,1864,1865
1840,1858,1818
1872,1865,1827
1883,1883,1823
1867,1867,1849
1855,1840,1806
1871,1845,1825
1900,1856,1872
1845,1858,1915
1814,1837,1795
1850,1863,1829
1874,1904,1854
1893,1882,1856
1872,1817,1783
1860,1855,1853
1915,1873,1900
1871,1873,1891
1791,1842,1811
1850,1867,1815
1879,1887,1826
1876,1862,1805
1877,1847,1809
1920,1856,1822
1857,1872,1856
1813,1882,1901
1825,1888,1853
1837,1858,1863
1856,1827,1866
1904,1853,1791
1885,1827,1778
1856,1861,1916
1863,1879,1871
1856,1863,1844
1830,1868,1776
1840,1850,1792
1881,1867,1875
1855,1862,1919
1861,1829,1805
1894,1858,1857
1890,1877,1861
1808,1861,1870
1802,1836,1817
1845,1855,1822
1894,1869,1869
1893,1867,1875
1809,1832,1822
1821,1851,1827
1858,1872,1879
1877,1862,1857
1893,1840,1776
1887,1861,1799
1854,1877,1874
1841,1841,1849
1811,1824,1835
1885,1877,1892
1865,1891,1942
1842,1862,1808
1831,1839,1836
1922,1847,1834
1846,1863,1904
1823,1855,1872
1839,1839,1829
1870,1855,1814
1862,1866,1883
1810,1872,1862
1810,1834,1787
1855,1850,1839
1857,1872,1904
1879,1860,1821
1840,1818,1737
1834,1835,1817
1886,1856,1902
1866,1861,1869
1811,1839,1829
1821,1837,1822
1840,1855,1865
1869,1857,1859
1861,1831,1795
1872,1859,1834
1867,1868,1856
1837,1840,1824
1819,1833,1776
1879,1840,1812
1885,1863,1863
1853,1856,1869
1818,1837,1810
1866,1859,1825
1895,1873,1882
1861,1860,1883
1791,1818,1805
1879,1837,1808
1891,1893,1882
1843,1873,1856
1791,1840,1763
1850,1872,1819
1861,1879,1888
1890,1849,1849
1805,1818,1768
1867,1836,1785
1903,1850,1910
1872,1868,1905
1799,1826,1777
1805,1840,1829
1853,1861,1872
1898,1842,1806
1867,1827,1794
1841,1859,1828
1913,1867,1878
1839,1844,1840
1791,1827,1806
1829,1825,1825
1856,1856,1872
1840,1829,1819
1842,1801,1756
1891,1840,1792
1869,1875,1903
1826,1863,1874
1776,1838,1770
1846,1835,1793
1826,1853,1878
1843,1865,1874
1821,1847,1830
1827,1838,1809
1863,1847,1852
1875,1857,1831
1819,1818,1806
1827,1834,1845
1889,1871,1883
1895,1872,1860
1841,1826,1797
1867,1839,1796
1867,1860,1853
1891,1840,1854
1840,1824,1774
1787,1843,1797
1886,1859,1858
1845,1855,1838
1778,1840,1819
1833,1858,1839
1889,1882,1845
1903,1869,1839
1875,1835,1793
1840,1826,1830
1874,1861,1861
1826,1853,1841
1793,1831,1808
1827,1840,1826
1873,1869,1904
1873,1873,1866
1821,1845,1818
1840,1840,1805
1956,1865,1817
1910,1859,1826
1806,1819,1783
1744,1842,1854
1909,1863,1886
1933,1845,1838
1856,1859,1819
1771,1854,1821
1815,1890,1904
1801,1878,1855
1803,1844,1778
1872,1841,1796
1911,1859,1893
1787,1870,1886
1792,1841,1813
1920,1847,1800
1901,1872,1869
1837,1835,1857
1822,1856,1819
1871,1872,1835
1887,1891,1875
1936,1871,1872
1841,1843,1840
1838,1826,1812
1872,1849,1838
1872,1863,1846
1882,1811,1808
1863,1838,1763
1938,1883,1884
1842,1871,1919
1762,1848,1830
1806,1853,1833
1872,1872,1883
1881,1863,1900
1776,1840,1823
1883,1870,1815
1879,1873,1851
1852,1857,1840
1841,1831,1776
1843,1853,1808
1845,1863,1889
1845,1856,1858
1827,1840,1796
1872,1866,1790
1895,1889,1866
1860,1867,1856
1920,1837,1811
1840,1869,1840
1890,1871,1856
1825,1880,1843
1830,1861,1846
1931,1849,1840
1949,1884,1868
1967,1865,1838
1833,1830,1773
1856,1855,1809
1874,1893,1893
1811,1872,1885
1847,1856,1810
1840,1858,1807
1810,1879,1872
1840,1856,1845
1935,1855,1791
1842,1866,1821
1808,1895,1900
1897,1869,1881
1841,1842,1828
1880,1853,1859
1921,1875,1881
1955,1889,1830
1855,1831,1777
1867,1847,1830
1884,1861,1865
1970,1881,1870
1965,1829,1739
1778,1853,1815
1843,1891,1920
1873,1872,1847
1803,1850,1809
1856,1861,1861
1881,1869,1895
1865,1870,1867
1830,1853,1802
1869,1858,1815
1886,1889,1860
1905,1875,1846
1864,1833,1808
1861,1851,1823
1862,1871,1870
1849,1872,1854
1953,1839,1819
1863,1858,1826
1857,1874,1852
1788,1871,1840
1813,1840,1807
1834,1842,1821
1882,1874,1898
1825,1882,1890
1882,1865,1808
1857,1859,1802
1819,1857,1850
1868,1842,1885
1846,1840,1815
1828,1858,1821
1873,1871,1853
1891,1862,1856
1808,1830,1807
1871,1866,1859
1958,1892,1863
1909,1863,1802
1759,1826,1794
1809,1866,1863
1913,1887,1904
1915,1872,1854
1826,1840,1799
1794,1840,1835
1829,1858,1884
1872,1871,1858
1869,1854,1789
1885,1873,1835
1911,1867,1878
1872,1869,1863
1818,1851,1779
1856,1859,1808
1879,1889,1878
1867,1857,1853
1876,1835,1789
1857,1843,1824
1865,1887,1889
1856,1874,1842
1829,1835,1791
1856,1843,1835
1895,1891,1897
1843,1898,1909
1829,1837,1830
1878,1833,1807
1849,1879,1874
1855,1893,1877
1840,1858,1811
1877,1857,1802
1904,1885,1867
1870,1873,1881
1836,1842,1821
1873,1854,1807
1874,1872,1842
1850,1871,1856
1836,1842,1849
1855,1858,1834
1916,1914,1858
1883,1890,1858
1817,1834,1807
1810,1847,1835
1840,1881,1873
1847,1867,1846
1844,1858,1827
1904,1850,1808
1885,1875,1851
1830,1872,1866
1840,1851,1835
1870,1859,1823
1862,1887,1856
1833,1861,1867
1843,1834,1821
1911,1853,1833
1905,1892,1902
1879,1877,1893
1840,1845,1795
1811,1840,1797
1833,1872,1867
1851,1872,1859
1824,1845,1827
1926,1868,1825
1947,1874,1853
1871,1863,1869
1810,1837,1797
1828,1840,1834
1856,1869,1877
1849,1846,1847
1846,1842,1776
1900,1858,1823
1904,1873,1865
1898,1857,1850
1856,1842,1813
1809,1851,1869
1840,1897,1895
1869,1859,1850
1859,1826,1799
1893,1833,1796
1886,1866,1863
1855,1872,1861
1807,1853,1799
1831,1854,1840
1867,1878,1888
1872,1869,1867
1847,1846,1806
1881,1861,1823
1953,1886,1867
1909,1858,1843
1828,1840,1807
1830,1869,1837
1875,1873,1890
1943,1859,1876
1909,1829,1791
1878,1855,1814
1862,1883,1865
1883,1859,1874
1859,1855,1841
1867,1865,1834
1877,1861,1858
1883,1873,1876
1893,1850,1813
1888,1841,1794
1899,1873,1882
1903,1867,1871
1840,1835,1783
1859,1838,1792
1935,1879,1889
1938,1873,1904
1902,1842,1808
1858,1853,1794
1876,1885,1866
1927,1854,1851
