1801,1856,1813
1850,1851,1872
1894,1867,1878
1904,1854,1831
1897,1840,1826
1891,1866,1875
1888,1847,1853
1839,1836,1807
1872,1823,1792
1857,1863,1865
1843,1881,1894
1845,1871,1840
1831,1839,1809
1871,1874,1855
1869,1874,1840
1853,1842,1794
1836,1811,1827
1871,1856,1871
1867,1874,1867
1853,1856,1798
1826,1834,1787
1867,1849,1843
1975,1866,1855
1961,1858,1814
1839,1846,1794
1821,1872,1857
1825,1861,1870
1846,1847,1840
1899,1855,1811
1898,1872,1826
1840,1866,1856
1857,1854,1850
1858,1856,1842
1873,1853,1872
1891,1872,1863
1861,1864,1778
1860,1840,1798
1857,1840,1835
1895,1858,1872
1903,1854,1830
1919,1855,1808
1891,1860,1856
1854,1872,1893
1803,1854,1842
1826,1846,1833
1904,1875,1852
1883,1866,1841
1847,1854,1777
1837,1842,1793
1861,1834,1853
1872,1874,1874
1872,1847,1807
1874,1817,1795
1881,1850,1836
1879,1878,1873
1875,1855,1845
1872,1822,1792
1871,1865,1872
1885,1889,1884
1866,1861,1811
1861,1822,1808
1853,1856,1849
1855,1879,1888
1840,1846,1835
1851,1829,1795
1916,1878,1855
1922,1883,1857
1843,1839,1822
1831,1839,1815
1872,1875,1892
1898,1871,1867
1892,1836,1802
1872,1838,1824
1856,1865,1846
1846,1869,1871
1853,1837,1804
1875,1853,1808
1852,1858,1862
1869,1861,1932
1863,1862,1870
1840,1843,1790
1940,1871,1887
1883,1872,1936
1822,1843,1785
1809,1830,1820
1865,1852,1905
1911,1871,1903
1847,1851,1808
1830,1840,1774
1859,1843,1842
1892,1854,1898
1890,1853,1867
1877,1840,1807
1858,1871,1857
1864,1871,1898
1851,1821,1804
1856,1826,1780
1890,1856,1859
1856,1864,1867
1842,1843,1817
1843,1845,1831
1879,1863,1834
1894,1882,1891
1840,1842,1863
1808,1826,1827
1853,1871,1851
1886,1878,1871
1874,1821,1799
1835,1822,1771
1895,1874,1856
1893,1887,1886
1838,1870,1850
1842,1856,1833
1840,1851,1831
1837,1840,1850
1853,1835,1792
1875,1830,1771
1920,1890,1891
1873,1883,1883
1797,1853,1846
1840,1855,1795
1891,1855,1808
1871,1870,1855
1861,1847,1818
1862,1831,1830
1904,1872,1870
1858,1882,1852
1839,1841,1861
1808,1850,1792
1847,1871,1855
1885,1874,1900
1892,1855,1872
1842,1830,1807
1840,1860,1835
1863,1887,1847
1867,1865,1850
1858,1842,1841
1869,1858,1874
1887,1891,1921
1873,1856,1791
1862,1838,1763
1874,1853,1840
1871,1877,1903
1838,1871,1824
1808,1833,1824
1872,1870,1917
1870,1872,1815
1823,1841,1777
1840,1840,1791
1855,1853,1835
1867,1883,1869
1857,1873,1869
1875,1856,1829
1875,1862,1808
1857,1849,1874
1849,1849,1831
1822,1849,1784
1898,1874,1822
1879,1861,1871
1818,1842,1794
1846,1847,1744
1882,1889,1887
1889,1875,1895
1824,1849,1858
1812,1843,1829
1854,1878,1897
1867,1875,1866
1867,1863,1843
1915,1858,1808
1903,1855,1806
1815,1856,1866
1778,1840,1859
1824,1855,1861
1900,1872,1867
1861,1870,1863
1843,1856,1837
1861,1847,1819
1905,1842,1787
1859,1861,1808
1819,1850,1875
1839,1872,1843
1878,1879,1886
1906,1870,1791
1850,1851,1775
1835,1840,1886
1871,1869,1869
1863,1871,1767
1794,1853,1845
1798,1840,1776
1873,1861,1901
1904,1883,1878
1915,1862,1835
1883,1837,1775
1815,1858,1795
1838,1870,1882
1840,1849,1835
1838,1841,1840
1861,1863,1843
1877,1876,1847
1872,1847,1826
1852,1840,1866
1830,1855,1858
1861,1872,1881
1845,1843,1815
1819,1843,1806
1855,1872,1829
1858,1894,1872
1850,1855,1833
1856,1839,1782
1888,1840,1776
1877,1875,1820
1810,1863,1875
1811,1843,1807
1867,1856,1835
1867,1887,1875
1846,1872,1810
1819,1837,1774
1846,1853,1861
1882,1885,1921
1841,1850,1837
1858,1843,1776
1883,1856,1889
1874,1871,1878
1808,1838,1751
1817,1865,1765
1874,1893,1863
1898,1904,1866
1821,1857,1842
1795,1834,1799
1866,1867,1872
1919,1890,1871
1874,1857,1858
1808,1837,1802
1807,1854,1814
1851,1895,1873
1842,1871,1843
1908,1856,1798
1918,1855,1882
1851,1872,1859
1791,1857,1837
1796,1853,1795
1863,1869,1824
1903,1855,1840
1848,1840,1853
1840,1840,1873
1840,1870,1867
1859,1871,1859
1837,1823,1792
1855,1829,1781
1883,1878,1847
1862,1874,1890
1865,1852,1809
1943,1817,1771
1863,1856,1872
1818,1893,1936
1820,1849,1818
1826,1823,1795
1856,1865,1847
1923,1887,1884
1905,1866,1814
1829,1845,1797
1878,1849,1842
1881,1861,1894
1850,1866,1853
1869,1857,1825
1857,1869,1888
1877,1878,1883
1840,1855,1841
1825,1838,1807
1897,1855,1847
1931,1872,1854
1865,1877,1814
1831,1859,1795
1843,1874,1861
1886,1885,1887
1869,1869,1853
1843,1872,1842
1874,1885,1823
1937,1879,1828
1856,1854,1861
1843,1856,1861
1850,1865,1862
1811,1870,1886
1898,1851,1804
1845,1856,1775
1842,1871,1855
1902,1874,1904
1879,1867,1859
1883,1857,1809
1929,1872,1831
1929,1871,1874
1863,1842,1876
1835,1828,1817
1938,1877,1860
1872,1882,1890
1877,1845,1796
1915,1837,1775
1841,1866,1827
1870,1893,1895
1856,1867,1869
1860,1861,1830
1886,1867,1844
1900,1867,1836
1891,1818,1787
1840,1835,1814
1854,1861,1885
1883,1883,1893
1915,1858,1821
1806,1845,1791
1873,1874,1862
1843,1904,1885
1870,1851,1823
1886,1821,1822
1918,1851,1863
1869,1873,1877
1856,1856,1840
1859,1871,1796
1894,1872,1810
1871,1877,1846
1878,1863,1805
1888,1853,1808
1843,1869,1895
1889,1893,1929
1865,1872,1814
1853,1826,1730
1855,1874,1840
1943,1901,1909
1907,1859,1837
1809,1851,1819
1828,1867,1886
1872,1872,1907
1846,1855,1813
1809,1839,1759
1906,1895,1876
1903,1887,1899
1841,1863,1847
1803,1841,1807
1867,1856,1840
1871,1875,1839
1873,1847,1829
1801,1838,1826
1856,1861,1870
1851,1872,1891
1898,1871,1817
1885,1846,1807
1843,1851,1856
1874,1874,1894
1861,1859,1840
1865,1815,1765
1922,1857,1855
1873,1871,1894
1845,1856,1845
1746,1840,1802
1823,1865,1840
1931,1898,1870
1844,1840,1829
1846,1829,1821
1882,1854,1845
1856,1894,1908
1815,1876,1840
1775,1828,1795
1831,1845,1851
1907,1872,1904
1878,1882,1836
1868,1835,1791
1859,1851,1840
1842,1872,1866
1842,1849,1840
1840,1840,1815
1859,1861,1872
1914,1877,1892
1983,1856,1769
1872,1853,1789
1738,1863,1921
1733,1873,1923
1813,1834,1835
1891,1837,1806
1840,1862,1856
1881,1879,1885
1878,1861,1857
1857,1831,1817
1890,1857,1861
1837,1872,1887
1846,1840,1844
1808,1850,1783
1925,1867,1843
1899,1867,1879
1879,1869,1854
1874,1827,1792
1904,1865,1843
1914,1895,1883
1822,1843,1777
1831,1835,1801
1887,1840,1908
1840,1855,1903
1808,1843,1839
1857,1840,1787
1856,1854,1866
1835,1876,1918
1835,1853,1846
1811,1831,1791
1839,1839,1827
1818,1836,1872
1872,1847,1837
1863,1839,1786
1839,1846,1843
1874,1873,1907
1858,1840,1849
1910,1837,1809
1845,1819,1792
1835,1850,1875
1812,1831,1858
1834,1825,1795
1850,1849,1840
1842,1867,1877
1835,1838,1813
1845,1835,1789
1874,1873,1847
1874,1863,1840
1888,1840,1839
1865,1808,1811
1856,1843,1854
1861,1850,1883
1871,1847,1842
1827,1839,1808
1841,1831,1840
1894,1850,1890
1885,1829,1831
1865,1819,1808
1841,1864,1846
1809,1885,1888
1813,1867,1851
1838,1817,1782
1840,1853,1828
1862,1862,1866
1836,1831,1834
1846,1834,1802
1847,1858,1808
1863,1869,1889
1808,1855,1867
1778,1831,1824
1829,1847,1846
1852,1863,1872
1872,1855,1846
1841,1827,1767
1883,1856,1855
1853,1871,1872
1789,1853,1836
1808,1845,1827
1871,1811,1822
1914,1840,1827
1827,1855,1821
1789,1845,1838
1818,1871,1867
1865,1885,1901
1870,1851,1809
1853,1840,1806
1841,1871,1863
1838,1875,1882
1840,1850,1810
1808,1809,1763
1810,1847,1843
1903,1889,1893
1913,1872,1817
1851,1831,1782
1773,1828,1857
1796,1865,1872
1794,1839,1837
1808,1839,1817
1879,1869,1872
1876,1866,1889
1872,1845,1828
1867,1849,1801
1840,1854,1847
1837,1882,1863
1850,1854,1812
1859,1847,1826
1862,1863,1857
1838,1856,1882
1856,1863,1815
1829,1840,1792
1887,1851,1854
1840,1867,1899
1813,1855,1856
1802,1853,1829
1884,1872,1824
1883,1868,1841
1833,1853,1840
1795,1833,1817
1840,1863,1867
1926,1872,1883
1855,1856,1801
1806,1835,1792
1866,1842,1870
1853,1871,1894
1807,1853,1808
1797,1817,1771
1922,1860,1836
1903,1883,1886
1830,1857,1825
1794,1840,1823
1808,1877,1849
1883,1883,1862
1872,1853,1824
1821,1837,1823
1862,1859,1831
1858,1850,1841
1870,1857,1815
1846,1837,1808
1823,1861,1872
1866,1874,1883
1901,1869,1840
1807,1840,1807
1829,1856,1858
1887,1869,1872
1840,1843,1763
1842,1838,1788
1866,1856,1853
1843,1856,1925
1803,1858,1904
1824,1862,1776
1919,1869,1841
1918,1882,1909
1811,1865,1885
1796,1845,1818
1861,1855,1823
1845,1873,1879
1815,1861,1805
1830,1838,1822
1865,1854,1850
1877,1869,1909
1853,1844,1861
1842,1840,1811
1867,1861,1829
1877,1880,1863
1850,1856,1824
1846,1847,1799
1870,1857,1836
1872,1871,1868
1850,1849,1839
1843,1840,1807
1873,1861,1843
1879,1881,1872
1858,1861,1830
1846,1815,1795
1874,1797,1857
1879,1849,1891
1840,1904,1850
1843,1884,1808
1882,1887,1859
1889,1873,1895
1869,1822,1849
1856,1785,1824
1882,1841,1875
1900,1968,1932
1863,1917,1860
1853,1756,1831
1887,1778,1879
1914,1803,1904
1932,1850,1885
2000,1957,1844
1921,1819,1827
1895,1715,1915
1872,1712,1903
1855,1819,1841
1904,1873,1931
1933,2097,1985
1906,2318,1984
1847,2251,1920
1876,2522,1937
1909,2735,2169
1903,2787,2121
1872,2808,1798
1883,2833,1809
1919,3029,1936
1911,3104,1861
1898,3039,1872
1957,3021,1973
1994,3039,1902
1856,3127,1649
1781,3087,1639
1844,3039,1775
1883,2960,1840
1862,2975,1791
1869,2962,1773
1873,2948,1808
1872,2981,1841
1851,2845,1806
1842,2833,1776
1856,2909,1808
1856,2851,1849
1827,2871,1837
1794,2752,1802
1797,2763,1824
1789,2764,1852
1748,2741,1811
1729,2691,1823
1745,2705,1823
1774,2759,1861
1741,2659,1822
1718,2640,1799
1735,2589,1822
1730,2653,1874
1712,2559,1843
1687,2525,1819
1730,2544,1851
1744,2586,1897
1707,2503,1857
1691,2453,1809
1728,2423,1852
1717,2496,1891
1693,2470,1867
1691,2366,1826
1733,2355,1861
1738,2399,1904
1711,2366,1871
1698,2352,1819
1719,2338,1872
1732,2344,1933
1713,2306,1877
1734,2249,1851
1791,2324,1889
1834,2251,1922
1853,2256,1897
1841,2209,1814
1898,2179,1876
1975,2201,1958
2007,2196,1904
1974,2111,1840
2046,2196,1890
2134,2211,1934
2190,2151,1892
2271,2118,1867
2362,2160,1901
2443,2193,1940
2493,2115,1921
2544,1991,1857
2663,2114,1851
2762,2065,1936
2830,1987,1904
2890,2037,1831
2956,2032,1808
2997,2058,1878
3014,2043,1883
3051,2032,1840
3156,2086,1875
3217,2176,1894
3199,2210,1822
3194,2275,1776
3248,2350,1801
3294,2499,1843
3249,2483,1814
3195,2547,1733
3207,2724,1787
3269,2805,1811
3206,2889,1732
3103,2945,1708
3083,3059,1759
3047,3207,1781
3009,3258,1746
2973,3232,1690
2953,3376,1715
2926,3440,1738
2869,3558,1694
2814,3619,1630
2759,3776,1643
2749,3954,1699
2683,4015,1673
2621,3986,1650
2598,4095,1663
2559,4095,1671
2511,4095,1618
2448,4095,1599
2439,4047,1647
2422,4067,1687
2371,4095,1670
2355,4095,1616
2358,4095,1650
2303,4095,1664
2243,4095,1615
2195,4095,1630
2189,4095,1674
2195,4095,1715
2165,4095,1681
2102,4095,1584
2100,4095,1665
2091,4047,1743
2087,4095,1686
2001,4095,1767
1993,4095,2530
1983,4095,2170
1943,4095,1680
1924,4095,1535
1903,4095,1618
1919,4095,1713
1903,4065,1714
1874,4095,1685
1892,4095,1711
1886,4095,1763
1837,4095,1666
1815,4095,1642
1827,4095,1725
1834,4095,1792
1808,4095,1712
1731,4095,1650
1712,4095,1737
1680,4095,1801
1634,4095,1767
1636,4095,1711
1670,4095,1723
1653,4095,1775
1597,4095,1744
1575,4095,1738
1593,4095,1777
1606,4095,1799
1579,4095,1831
1563,4095,1791
1560,3847,1758
1559,3583,1808
1553,3600,1808
1535,3709,1763
1535,3582,1758
1525,3487,1791
1503,3397,1774
1488,3474,1739
1532,3362,1793
1555,3319,1842
1517,3235,1804
1511,3277,1776
1553,3188,1794
1574,3114,1840
1535,3065,1853
1525,3003,1818
1575,2909,1840
1609,3056,1916
1580,2906,1869
1533,2842,1826
1610,2897,1915
1810,2927,1936
1762,2782,1747
1459,2658,1785
1460,2672,1982
1600,2704,2047
1779,2656,1969
1735,2559,1863
1563,2480,1845
1719,2527,1949
1758,2505,1968
1626,2320,1722
1994,2379,1939
2115,2385,1959
1766,2315,2027
1856,2315,2112
2017,2299,2038
2102,2238,2007
2189,2224,1984
2031,2154,1951
1621,2107,2081
1751,2119,2076
2238,2118,1927
2082,1998,1789
1761,1989,2095
1808,1997,2229
1879,1885,1990
2078,1841,1837
2212,1897,2006
1917,1871,2118
1716,1833,2087
1781,1817,1955
1973,1731,1920
1969,1744,1958
2016,1691,1910
1827,1596,1862
1919,1653,2009
1942,1649,2047
1855,1618,1986
1920,1599,1964
1979,1535,1966
1932,1535,2017
1969,1468,1946
1827,1446,1925
1765,1378,1862
1820,1334,1842
1904,1351,1904
1872,1311,2000
1855,1329,2013
1834,1282,1956
1827,1217,1938
1778,1152,1879
1802,1115,1879
1868,1118,1871
1799,1117,1981
1859,1076,1968
1909,1037,1969
1837,933,1841
1747,912,1867
1581,877,1942
1648,839,2011
1721,787,1867
1775,814,1885
1701,759,1927
1725,704,1955
1696,670,1882
1814,687,1903
1740,631,1856
1705,622,1890
1680,538,1920
1747,499,1735
1717,543,1923
1631,560,2061
1744,528,1999
1733,427,1792
1616,432,1888
1602,451,1942
1649,438,1949
1666,367,1831
1744,320,1837
1741,320,1841
1661,365,1938
1637,318,1867
1590,230,1759
1703,309,1921
1691,310,2005
1649,253,1872
1671,225,1801
1744,228,1838
1748,244,1937
1693,211,1959
1659,139,1871
1687,90,1872
1674,85,1890
1675,30,1851
1664,16,1812
1639,10,1885
1744,15,1911
1702,0,1836
1663,0,1853
1680,0,1938
1671,0,1948
1666,0,1845
1724,0,1779
1808,0,1861
1637,0,1997
1535,0,1872
1667,0,1687
1772,0,1915
1703,0,1995
1647,0,1938
1631,0,1828
1653,0,1865
1726,0,1891
1680,0,1849
1675,0,1846
1729,0,1814
1714,0,1838
1821,1,1891
1686,0,1891
1600,0,1899
1699,0,1871
1755,0,1857
1633,0,1835
1635,0,1878
1714,15,1877
1712,22,1895
1714,0,1756
1677,6,1902
1648,73,1954
1670,64,1873
1727,35,1795
1808,59,1825
1739,77,1872
1664,80,1853
1629,42,1810
1697,72,1872
1713,117,1879
1760,112,1822
1711,91,1808
1680,112,1877
1728,153,1905
1691,162,1862
1682,121,1760
1744,169,1849
1793,169,1852
1841,167,1831
1728,135,1759
1610,151,1786
1634,191,1946
1683,170,1937
1653,174,1723
1808,216,1753
1815,247,1899
1647,284,1901
1630,257,1835
1724,272,1771
1861,297,1851
1760,312,1867
1651,290,1823
1722,333,1717
1776,366,1856
1690,338,1810
1677,352,1840
1728,391,1823
1738,387,1744
1743,395,1780
1714,445,1853
1714,468,1935
1767,481,1901
1812,507,1855
1777,503,1715
1726,511,1750
1715,547,1861
1703,555,1830
1737,544,1707
1731,587,1807
1741,655,1879
1698,672,1851
1699,660,1832
1745,679,1797
1813,709,1897
1745,723,1863
1713,699,1810
1811,752,1773
1740,753,1776
1721,784,1846
1705,772,1780
1790,763,1739
1779,886,1899
1714,936,1886
1680,857,1824
1731,861,1857
1808,913,1892
1857,919,1811
1776,900,1682
1670,954,1867
1707,1006,1898
1728,985,1782
1733,969,1773
1767,1008,1839
1794,1023,1875
1767,1012,1863
1749,980,1751
1739,1020,1802
1788,1045,1822
1751,1001,1840
1722,965,1763
1818,991,1817
1833,1040,1806
1776,1057,1871
1696,1062,1788
1713,1061,1842
1789,1076,1887
1841,1062,1824
1788,1059,1730
1687,1062,1770
1703,1109,1855
1748,1127,1882
1737,1108,1795
1777,1123,1840
1810,1165,1820
1856,1130,1767
1769,1157,1821
1779,1170,1904
1807,1231,1892
1776,1210,1776
1703,1184,1783
1765,1225,1809
1826,1263,1881
1802,1250,1797
1750,1268,1839
1802,1257,1734
1858,1283,1839
1770,1293,1826
1696,1306,1840
1792,1347,1855
1878,1365,1850
1811,1382,1806
1744,1390,1804
1767,1397,1803
1840,1417,1790
1778,1421,1797
1759,1431,1813
1800,1455,1787
1841,1502,1840
1785,1493,1787
1812,1478,1739
1813,1490,1730
1807,1554,1901
1840,1575,1828
1745,1553,1766
1791,1577,1837
1804,1604,1863
1828,1611,1847
1780,1584,1777
1778,1615,1779
1833,1675,1870
1819,1653,1823
1770,1646,1738
1887,1642,1712
1923,1709,1819
1769,1715,1817
1738,1681,1778
1790,1744,1787
1830,1776,1840
1824,1766,1818
1751,1741,1808
1795,1776,1823
1857,1780,1882
1821,1795,1787
1799,1795,1723
1823,1843,1847
1837,1882,1840
1809,1863,1793
1793,1846,1750
1796,1863,1824
1879,1891,1811
1851,1918,1758
1761,1866,1808
1755,1851,1747
1827,1933,1871
1842,1947,1842
1775,1936,1789
1834,1939,1821
1872,1978,1830
1920,1983,1826
1807,1927,1747
1744,1968,1823
1762,2000,1879
1751,1997,1823
1787,1970,1726
1835,2025,1793
1839,2047,1857
1808,2029,1839
1765,2009,1771
1802,2047,1830
1843,2074,1844
1776,2064,1791
1766,2047,1753
1921,2089,1780
1889,2099,1818
1795,2112,1878
1665,2084,1768
1733,2096,1776
1815,2122,1843
1771,2128,1811
1742,2102,1744
1808,2124,1792
1883,2160,1867
1831,2154,1823
1774,2139,1859
1795,2165,1802
1834,2176,1839
1875,2155,1763
1894,2141,1743
1799,2121,1735
1747,2149,1825
1743,2194,1851
1751,2199,1781
1770,2199,1787
1801,2189,1850
1803,2190,1823
1789,2182,1778
1830,2211,1835
1855,2206,1825
1786,2211,1835
1776,2190,1758
1807,2215,1783
1867,2246,1826
1839,2229,1813
1698,2192,1753
1727,2209,1807
1847,2240,1840
1904,2245,1819
1801,2224,1776
1803,2243,1839
1820,2258,1871
1781,2244,1808
1764,2218,1786
1795,2243,1803
1872,2270,1846
1803,2263,1830
1721,2223,1771
1748,2255,1781
1842,2286,1872
1839,2242,1865
1802,2225,1755
1878,2256,1795
1822,2274,1817
1793,2250,1798
1858,2250,1770
1796,2240,1808
1798,2259,1855
1846,2256,1822
1766,2239,1786
1851,2241,1783
1834,2272,1871
1744,2256,1865
1770,2225,1753
1814,2282,1846
1824,2288,1871
1885,2256,1826
1808,2256,1775
1872,2261,1796
1855,2259,1853
1798,2246,1834
1807,2209,1771
1882,2256,1841
1879,2288,1893
1825,2273,1847
1799,2254,1821
1837,2240,1808
1856,2256,1808
1827,2273,1817
1850,2251,1806
1849,2253,1840
1863,2270,1905
1858,2239,1839
1781,2227,1776
1759,2222,1763
1871,2271,1905
1887,2256,1904
1795,2250,1841
1782,2257,1840
1839,2267,1859
1810,2247,1818
1845,2230,1775
1861,2207,1812
1808,2238,1885
1798,2240,1863
1790,2226,1807
1875,2237,1829
1872,2251,1858
1818,2205,1803
1837,2192,1792
1877,2230,1839
1808,2273,1843
1872,2256,1878
1869,2193,1791
1825,2210,1850
1801,2240,1903
1823,2235,1843
1854,2189,1787
1858,2195,1835
1855,2218,1874
1799,2192,1824
1838,2192,1792
1829,2191,1834
1872,2223,1877
1877,2207,1855
1889,2181,1775
1792,2205,1839
1799,2192,1899
1859,2182,1872
1888,2145,1763
1823,2166,1850
1835,2224,1933
1850,2202,1879
1907,2153,1786
1838,2159,1814
1869,2177,1862
1861,2182,1835
1855,2155,1803
1904,2163,1872
1915,2192,1909
1887,2161,1863
1815,2126,1830
1794,2165,1876
1845,2171,1891
1820,2129,1825
1855,2107,1779
1872,2135,1808
1895,2163,1900
1981,2135,1887
1881,2111,1810
1941,2122,1814
1850,2151,1918
1744,2144,1894
1855,2128,1842
1867,2117,1840
1856,2128,1856
1861,2112,1851
1869,2112,1835
1940,2119,1835
1910,2128,1858
1840,2119,1872
1835,2078,1812
1872,2105,1854
1898,2128,1874
1897,2111,1847
1805,2065,1825
1855,2102,1863
1879,2119,1895
1873,2091,1840
1867,2054,1785
1886,2070,1821
1979,2084,1899
1829,2105,1936
1769,2060,1827
1883,2041,1818
1931,2077,1878
1889,2062,1891
1892,2043,1850
1874,2041,1838
1901,2064,1859
1917,2066,1904
1857,2054,1834
1879,2042,1841
1904,2064,1861
1875,2032,1872
1873,2022,1834
1869,2021,1840
1957,2061,1903
1905,2032,1846
1797,2003,1808
1829,2023,1876
1871,2035,1879
1831,2043,1861
1936,2034,1855
1904,2023,1809
1882,2037,1899
1893,2010,1886
1855,1973,1785
1879,2011,1850
1885,2039,1901
1869,2031,1899
1834,1999,1807
1839,1983,1808
2011,2000,1868
1817,2001,1861
1887,2000,1836
1806,1979,1813
1856,2000,1858
2005,1991,1840
1840,1973,1808
1826,2000,1890
1870,2009,1920
1891,1999,1886
1936,1980,1854
1811,1986,1856
1935,1986,1863
1840,1980,1853
1794,1963,1777
1886,1968,1811
1930,2002,1891
1871,1991,1841
1820,1947,1811
1858,1964,1851
1887,1983,1889
1886,1966,1856
1929,1942,1787
1974,1972,1808
1924,2015,1942
1873,1981,1904
1799,1939,1776
1837,1939,1807
1936,1978,1901
1873,1962,1887
1872,1922,1802
1891,1951,1840
1879,1968,1904
1857,1954,1890
1886,1936,1840
1890,1936,1862
1936,1967,1882
1917,1966,1853
1902,1931,1779
1894,1939,1846
1889,1959,1915
1855,1959,1905
1826,1929,1801
1892,1937,1815
1918,1935,1871
1936,1918,1875
1878,1882,1807
1872,1921,1840
1895,1968,1918
1884,1967,1925
1874,1904,1840
1872,1913,1809
1921,1938,1856
1904,1936,1888
1855,1885,1818
1889,1898,1833
1922,1921,1872
1858,1919,1871
1840,1910,1839
1875,1907,1845
1926,1917,1897
1984,1899,1834
1848,1855,1767
1808,1885,1871
1837,1922,1929
1855,1925,1856
1863,1878,1808
1936,1881,1837
1991,1931,1904
1882,1915,1885
1827,1875,1823
1872,1892,1831
1919,1904,1889
1887,1893,1873
1903,1872,1856
1941,1887,1851
1908,1885,1877
1823,1911,1876
1825,1881,1835
1882,1889,1872
1913,1871,1885
1840,1875,1865
1837,1873,1806
1904,1872,1801
1934,1895,1832
1893,1875,1872
1834,1840,1828
1883,1855,1834
1955,1872,1895
1938,1870,1860
1917,1871,1794
1861,1875,1838
1865,1891,1927
1837,1868,1886
1859,1840,1808
1921,1861,1825
1922,1885,1886
1893,1873,1873
1831,1834,1781
1877,1835,1808
1908,1898,1904
1893,1872,1876
1865,1840,1819
1920,1840,1854
2000,1852,1849
1905,1872,1843
1851,1813,1755
1840,1862,1878
1843,1884,1936
1886,1870,1907
1858,1812,1808
1914,1840,1777
1995,1862,1807
1918,1888,1925
1831,1829,1867
1813,1833,1830
1896,1888,1905
1898,1871,1874
1859,1840,1808
1884,1851,1823
1913,1884,1853
1904,1861,1884
1869,1835,1841
1858,1822,1833
1904,1853,1826
1883,1843,1853
1846,1840,1847
1867,1845,1835
1954,1856,1861
1901,1840,1871
1817,1822,1823
1845,1856,1841
1887,1853,1885
1886,1840,1822
1841,1820,1802
1831,1839,1843
1863,1869,1895
1850,1836,1858
1873,1798,1783
1914,1839,1821
1885,1855,1883
1852,1840,1867
1825,1818,1792
1837,1825,1831
1904,1851,1906
1862,1836,1867
1834,1802,1773
1851,1820,1760
1890,1826,1840
1871,1808,1875
1815,1805,1840
1861,1818,1840
1895,1840,1894
1904,1835,1878
1929,1786,1725
1888,1797,1777
1808,1827,1898
1789,1821,1904
1838,1808,1830
1870,1802,1766
1936,1808,1801
1878,1792,1829
1806,1793,1866
1837,1817,1902
1893,1840,1895
1936,1840,1855
1846,1789,1776
1921,1783,1793
1856,1818,1861
1846,1861,1842
1856,1760,1839
1878,1797,1857
1836,1857,1851
1805,1778,1840
1881,1716,1763
1885,1818,1793
1875,1889,1904
1826,1845,1898
1845,1771,1779
1897,1841,1801
1954,1776,1870
1875,1784,1851
1840,1835,1831
1872,1829,1834
1902,1815,1853
1809,1807,1854
1818,1831,1806
1882,1803,1787
1878,1845,1888
1861,1837,1852
1855,1795,1791
1822,1806,1849
1846,1856,1911
1872,1839,1856
1931,1781,1776
1873,1808,1791
1843,1822,1884
1838,1833,1879
1866,1795,1822
1899,1854,1851
1836,1855,1882
1878,1808,1805
1894,1800,1775
1840,1817,1813
1824,1847,1863
1846,1834,1847
1844,1791,1803
1840,1827,1840
1881,1845,1895
1861,1872,1857
1840,1794,1831
1890,1840,1819
1899,1882,1870
1854,1805,1817
1841,1866,1801
1847,1779,1840
1840,1850,1904
1814,1838,1859
1823,1830,1792
1861,1844,1797
1891,1862,1873
1913,1838,1863
1883,1860,1808
1810,1811,1850
1841,1874,1886
1825,1844,1846
1815,1792,1777
1841,1820,1805
1943,1860,1869
1840,1859,1863
1774,1837,1821
1827,1844,1853
1872,1867,1893
1866,1856,1872
1870,1844,1790
1871,1853,1821
1869,1893,1874
1860,1894,1844
1815,1804,1799
1834,1803,1815
1872,1847,1878
1863,1850,1863
1829,1792,1855
1833,1859,1851
1883,1911,1879
1861,1817,1865
1845,1836,1808
1872,1778,1826
1856,1851,1856
1810,1872,1850
1827,1857,1807
1850,1895,1850
1936,1834,1855
1837,1779,1856
1785,1849,1833
1840,1800,1799
1936,1722,1815
1903,1858,1866
1797,1940,1859
1810,1827,1857
1927,1871,1863
1893,1849,1835
1821,1831,1817
1847,1776,1855
1891,1871,1904
1867,1850,1888
1843,1822,1798
1887,1849,1846
1882,1891,1899
1866,1895,1833
1805,1826,1754
1839,1845,1856
1899,1886,1905
1849,1881,1881
1850,1791,1890
1830,1785,2923
1727,1801,1675
1667,1808,1472
1712,1704,1716
1796,1808,1861
1829,1783,1866
1812,1877,1838
1759,1874,1824
1766,1761,1827
1780,1798,1835
1781,1747,2447
1658,1744,1761
1559,1565,2651
1447,1459,1285
1535,1443,1405
1584,1501,1776
1616,1602,1899
1634,1713,1871
1686,1658,1831
1683,1642,1822
1683,1709,1823
1719,1751,1834
1723,1744,1825
1728,1796,1830
1772,1727,1833
1791,1786,1829
1815,1792,2397
1345,1366,3186
805,881,1129
821,846,600
1103,1042,1271
1299,1229,1884
1395,1403,1975
1397,1403,1876
1410,1456,1815
1477,1535,1809
1526,1535,1826
1643,1631,1835
1712,1631,1834
1617,1707,1827
1651,1709,1831
1737,1739,1834
1740,1746,1829
1750,1744,1829
1861,1790,1833
1821,1823,1831
1766,1863,1825
1792,1814,1830
1810,1735,1830
1828,1794,2335
1808,1898,1712
1781,1845,1648
1813,1828,1776
1909,1943,1850
1895,1914,1850
1872,1936,1827
1960,1919,1828
1917,1936,1825
1910,1938,1824
1821,1946,1828
1857,1967,1808
1936,2017,1758
1941,1980,1685
1958,1951,1657
1977,1986,1692
1943,2011,1713
1915,2020,1708
1904,1984,1645
1943,1983,1613
1971,2036,1715
1966,2021,1698
1951,2002,1587
1950,2011,1613
1966,2032,1694
2017,2033,1667
1942,2001,1597
1931,2011,1599
1982,2010,1633
1936,2025,1648
1915,2027,1600
1983,2019,1602
1997,2064,1674
1957,2064,1659
1936,2011,1621
1961,2003,1585
2000,2032,1647
1984,2045,1649
2038,2032,1589
1977,2009,1585
1920,2032,1686
1915,2021,1664
1966,2006,1604
1985,1990,1566
2009,2021,1631
2002,2027,1621
1898,1991,1587
1920,2003,1599
1982,2032,1657
1998,2058,1680
1939,2016,1574
