2271,2226,0
2273,2214,0
2240,2243,0
2233,2219,0
2239,2258,0
2298,2277,0
2295,2281,0
2203,2235,0
2177,2230,0
2255,2255,0
2318,2262,0
2233,2271,0
2226,2287,0
2256,2251,0
2270,2256,0
2231,2234,0
2256,2225,0
2203,2265,0
2225,2288,0
2204,2273,0
2245,2261,0
2286,2289,0
2233,2361,0
2181,2320,0
2175,2325,0
2242,2352,0
2273,2352,0
2218,2320,0
2207,2343,0
2224,2438,0
2197,2354,0
2162,2290,0
2177,2289,0
2231,2337,0
2216,2382,0
2171,2334,0
2160,2301,16
2206,2337,505
2226,2299,837
2162,2272,706
2143,2240,188
2182,2270,0
2198,2288,8
2194,2281,256
2160,2192,278
2173,2173,414
2182,2201,535
2142,2158,680
2138,2166,817
2193,2201,898
2198,2235,870
2160,2140,1050
2150,2151,1363
2202,2187,1534
2226,2146,1803
2181,2082,2604
2166,2096,2949
2192,2116,1009
2208,2102,0
2192,2093,1230
2226,2057,4095
2238,2039,4095
2206,2093,2173
2170,2093,0
2191,2029,0
2259,2030,0
2288,2064,0
2253,1991,990
2246,1968,1479
2322,2033,403
2330,2065,0
2289,2007,0
2299,1959,0
2384,2041,263
2384,2051,414
2350,1961,435
2353,1936,479
2455,1997,669
2459,2019,835
2411,1983,903
2466,1926,915
2544,1949,1151
2579,1973,1262
2503,1907,1296
2459,1913,1361
2555,1947,1460
2544,1964,1636
2511,1943,1680
2527,1911,1746
2533,1936,1840
2608,1968,1942
2591,1949,1949
2511,1936,2033
2526,1924,2174
2555,1952,2309
2436,1950,2320
2435,1853,2401
2559,1871,2512
2592,1909,2550
2382,1872,2559
2320,1863,2672
2315,1871,2767
2288,1951,2883
2205,1894,2870
2182,1831,2858
2229,1829,2947
2247,1848,3123
2096,1851,3238
2076,1811,3311
2047,1885,2398
1985,1841,1735
1971,1761,1664
2096,1775,1782
1998,1817,1844
1940,1895,1850
1874,1887,1835
1871,1825,1833
1937,1823,1833
1926,1810,1826
2002,1843,1831
1955,1831,1827
1927,1881,1831
1938,1931,1831
1856,1862,1829
1776,1822,1826
1859,1842,1833
1957,1858,1825
1829,1853,1829
1814,1854,1831
1841,1855,1835
1874,1809,1827
1815,1818,1830
1808,1840,1829
1887,1886,1833
1902,1872,1829
1788,1851,1825
1792,1815,1830
1826,1811,1830
1808,1824,1828
1737,1841,1827
1744,1829,1831
1807,1846,1831
1811,1854,1813
1794,1878,1763
1779,1772,1738
1798,1875,1776
1835,1888,1789
1856,1863,1748
1746,1744,1744
1728,1789,1791
1803,1875,1813
1761,1823,1744
1744,1806,1701
1776,1870,1764
1786,1853,1829
1755,1847,1775
1743,1762,1717
1769,1784,1765
1786,1904,1811
1776,1857,1776
1782,1746,1744
1799,1806,1785
1813,1870,1811
1797,1748,1779
1792,1821,1757
1817,1762,1739
1839,1858,1776
1795,1846,1799
1782,1767,1748
1829,1774,1791
1839,1802,1809
1792,1793,1759
1773,1774,1738
1815,1851,1805
1830,1838,1850
1792,1761,1797
1781,1776,1751
1805,1818,1771
1825,1791,1829
1797,1781,1783
1786,1776,1773
1822,1760,1876
1847,1876,1891
1795,1738,1772
1808,1664,1698
1872,1741,1769
1895,1826,1825
1898,1766,1811
1903,1733,2149
1935,1765,2013
1931,1683,1831
1909,1679,1791
1910,1710,1810
1975,1796,1834
1975,1797,1837
1906,1696,1831
1864,1707,1831
1946,1725,1830
2110,1697,1830
1910,1667,2765
1856,1471,3407
1632,1178,865
1365,1211,1373
1310,1221,1707
1375,1150,2595
1390,1059,1276
1403,1095,1418
1314,1183,1779
1406,1327,1896
1471,1409,1868
1563,1424,1826
1504,1351,1820
1495,1373,1829
1562,1488,1825
1611,1535,1827
1603,1572,1826
1572,1616,1829
1616,1535,1828
1673,1527,1827
1610,1600,1829
1563,1577,1826
1591,1575,1826
1641,1597,1821
1644,1645,1776
1652,1701,1737
1680,1792,1775
1686,1668,1802
1672,1653,1725
1692,1718,1698
1721,1741,1758
1733,1749,1840
1706,1781,1744
1682,1755,1749
1717,1738,1755
1724,1716,1739
1705,1697,1747
1706,1650,1969
1738,1707,1889
1744,1834,1726
1727,1813,1616
1709,1668,1581
1723,1695,1650
1753,1739,1680
1798,1723,1639
1782,1691,1744
1850,1758,1796
1671,1761,1762
1855,1726,1666
1891,1684,1474
1967,1837,1584
2023,1839,1646
1531,1807,1709
1425,1759,1712
1613,1680,1682
1744,1667,1661
1734,1648,1583
1714,1696,1554
1751,1754,1617
1760,1698,1659
1712,1712,1584
1690,1830,1535
1739,1859,1607
1741,1713,1645
1711,1712,1606
1695,1744,1575
1727,1837,1634
1743,1784,1675
1694,1706,1599
1699,1719,1562
1723,1761,1633
1740,1794,1656
1707,1765,1594
1682,1727,1609
1705,1729,1679
1731,1741,1696
1710,1747,1635
1702,1746,1610
1730,1717,1648
1731,1761,1674
1693,1690,1615
1682,1662,1590
1707,1717,1659
1752,1773,1723
1710,1725,1663
1709,1660,1606
1872,1633,1584
1872,1653,1654
1648,1635,1667
2029,1648,1616
1766,1678,1637
1682,1712,1794
1791,1679,1689
1669,1671,1639
1729,1775,1709
1762,1691,1712
1717,1647,1619
1702,1665,1635
1733,1722,1701
1745,1678,1710
1717,1657,1623
1781,1670,1589
2053,1691,1623
2138,1711,1719
1648,1698,1680
1608,1702,1667
1814,1686,1711
1887,1680,1718
1805,1697,1692
1655,1712,1679
1831,1759,1682
1808,1776,1719
1731,1738,1712
1683,1710,1661
1708,1794,1725
1809,1825,1776
1757,1736,1733
1762,1649,1679
1856,1717,1714
1743,1775,1735
1721,1745,1712
1815,1710,1649
1856,1797,1726
1819,1977,1767
1681,1778,1737
1573,1691,1744
1621,1729,1802
1725,1765,1824
1747,1770,1740
1697,1776,1680
1723,1826,1746
1730,1790,1804
1716,1767,1751
1885,1790,1698
2032,1830,1657
1693,1841,1800
1601,1826,1835
1616,1808,1777
1707,1843,2063
1761,1842,2806
1688,1802,2239
1659,1778,1728
1719,1830,1665
1762,1869,1780
1744,1899,1845
1649,1862,1843
1675,1813,1839
1714,1821,1822
1703,1818,1824
1697,1824,1833
1723,1869,1827
1751,1898,1828
1717,1873,1826
1715,1854,1829
1741,1882,1830
1759,1891,1829
1738,1882,1826
1728,1840,1826
1747,1889,1829
1763,1913,1828
1732,1894,1830
1728,1870,1829
1762,1902,1829
1778,1934,1829
1751,1903,1827
1728,1888,1826
1765,1917,1833
1776,1945,1831
1744,1925,1828
1728,1936,1821
1747,1919,1829
1776,1930,1828
1749,1872,1823
1735,1871,1839
1776,1914,1894
1807,1936,1937
1775,1916,1895
1747,1885,1835
1790,1904,1893
1807,1948,1927
1766,1920,1834
1755,1889,1815
1814,1919,1905
1840,1939,1942
1811,1917,1891
1789,1911,1828
1828,1950,1881
1850,2004,1946
1808,1975,1859
1823,1904,1827
1907,1919,1901
1961,1951,1936
1937,1947,1877
1943,1945,1840
1997,1969,1891
2035,1971,1919
2026,1963,1846
2021,1953,1820
2087,1975,1872
2103,1986,1887
2079,1967,1809
2106,1951,1802
2167,1988,1881
2194,1997,1911
2178,1971,1840
2178,1970,1792
2226,1970,1836
2287,1995,1874
2297,1968,1824
2343,1966,1797
2415,1997,1843
2458,2017,1885
2459,1984,1834
2462,1955,1782
2495,1979,1795
2528,2007,1901
2514,1963,1835
2527,1939,1776
2559,2001,1818
2603,2001,1840
2559,1971,1808
2559,1946,1744
2626,1959,1843
2656,1970,1873
2631,1967,1779
2608,1955,1743
2635,1974,1778
2669,1986,1799
2639,1954,1762
2618,1948,1767
2647,1981,1770
2683,1983,1856
2643,1941,1778
2626,1920,1766
2649,1932,1786
2666,1941,1805
2634,1923,1757
2608,1922,1714
2639,1941,1770
2666,1966,1824
2635,1954,1785
2586,1925,1717
2611,1936,1847
2611,1954,1841
2582,1883,1856
2559,1856,1829
2591,1871,1834
2585,1878,1835
2550,1885,1850
2528,1876,1840
2544,1891,1839
2555,1897,1834
2499,1861,1815
2471,1829,1834
2495,1835,1851
2481,1872,1830
2458,1846,1792
2426,1809,1833
2449,1823,1863
2479,1856,1863
2431,1840,1831
2389,1823,1805
2427,1837,1814
2469,1806,1833
2481,1793,1825
2416,1759,1839
2363,1776,1826
2352,1796,1831
2320,1780,1808
2304,1764,1825
2314,1759,1834
2326,1741,1856
2339,1743,1851
2472,1735,1833
2559,1776,1834
2342,1760,1785
2112,1729,1766
2142,1749,1745
2299,1779,1744
2384,1758,1741
2251,1727,1693
2160,1732,1773
2195,1753,1791
2240,1773,1794
2221,1774,1717
2186,1728,1648
2206,1712,1760
2348,1761,1779
2330,1741,1719
2124,1744,1839
2097,1786,1863
2174,1815,1897
2186,1799,1818
2170,1777,1739
2191,1787,1792
2192,1834,1883
2149,1840,1863
2123,1827,1782
2146,1861,1798
2159,1872,1861
2176,1841,2267
2147,1883,1954
2226,1922,1814
2486,2043,1831
2777,1964,1783
2937,1829,1735
2894,1863,1838
2686,1910,2026
2519,1905,2053
2496,1904,1854
2385,1920,1745
2278,1939,1774
2233,1942,1836
2230,1947,1838
2240,1975,1910
2223,2000,1835
2171,1986,1809
2122,1966,1822
2123,2000,1828
2115,2035,1833
2077,2028,1828
2043,2017,1799
2062,2035,1830
2053,2047,1834
2019,2043,1835
1999,2031,1825
2012,2047,1807
2025,2077,1822
1989,2065,1771
1949,2069,1808
1970,2065,1754
1984,2064,1851
1953,2053,1825
1934,2062,1794
1950,2068,1744
1942,2100,1856
1885,2068,1843
1891,2060,1823
1910,2066,1808
1914,2078,1805
1887,2075,1814
1873,2071,1799
1899,2079,1814
1914,2098,1838
1873,2083,1793
1852,2075,1776
1882,2096,1840
1891,2107,1842
1857,2081,1795
1840,2057,1778
1872,2083,1811
1874,2099,1820
1839,2085,1805
1809,2062,1745
1829,2087,1840
1857,2102,1821
1841,2082,1810
1808,2081,1765
1826,2096,1799
1846,2117,1819
1823,2106,1820
1796,2092,1810
1815,2110,1821
1840,2126,1863
1807,2114,1814
1776,2100,1763
1792,2119,1872
1797,2128,1890
1753,2113,1824
1741,2113,1728
1771,2118,1809
1793,2131,1895
1759,2131,1840
1725,2115,1803
1743,2139,1821
1735,2127,1827
1718,2127,1794
1724,2121,1783
1744,2135,1815
1751,2160,1854
1733,2154,1814
1705,2135,1776
1713,2144,1805
1738,2176,1842
1711,2160,1812
1703,2142,1767
1727,2160,1807
1741,2186,1842
1711,2181,1808
1683,2155,1757
1714,2175,1803
1731,2193,1847
1695,2176,1817
1680,2163,1775
1712,2182,1811
1725,2195,1849
1693,2198,1814
1680,2189,1772
1697,2189,1791
1711,2194,1846
1686,2192,1821
1664,2192,1769
1680,2194,1789
1712,2209,1853
1686,2203,1814
1693,2178,1771
1696,2197,1810
1696,2214,1843
1665,2215,1792
1639,2209,1786
1737,2230,1823
1702,2256,1856
1708,2237,1809
1655,2219,1773
1666,2231,1807
1706,2256,1847
1661,2253,1808
1680,2242,1774
1739,2270,1808
1732,2294,1855
1665,2289,1821
1632,2278,1769
1675,2298,1806
1746,2313,1851
1700,2303,1827
1659,2288,1776
1649,2305,1783
1693,2336,1841
1691,2329,1842
1670,2325,1798
1699,2349,1823
1682,2363,1851
1662,2351,1808
1646,2338,1771
1663,2333,1805
1681,2366,1851
1691,2372,1805
1655,2349,1760
1694,2353,1808
1674,2362,1851
1709,2351,1823
1651,2341,1791
1711,2351,1803
1706,2356,1824
1682,2338,1806
1670,2319,1769
1706,2337,1808
1712,2365,1840
1680,2320,1795
1667,2261,1749
1679,2281,1805
1699,2303,1854
1643,2305,1808
1644,2243,1750
1681,2235,1783
1755,2261,1840
1693,2263,1823
1666,2252,1757
1691,2213,1813
1712,2224,1853
1746,2223,1808
1670,2210,1758
1725,2211,1809
1723,2223,1872
1698,2203,1847
1699,2163,1778
1693,2163,1793
1759,2180,1851
1707,2159,1823
1649,2139,1791
1699,2147,1815
1683,2157,1868
1731,2131,1826
1685,2130,1774
1696,2110,1795
1744,2115,1877
1775,2111,1855
1677,2079,1776
1700,2076,1807
1718,2093,1858
1699,2073,1822
1685,2054,1772
1734,2068,1830
1735,2064,1886
1667,2027,1846
1733,2021,1806
1707,2023,1815
1733,2030,1858
1691,2009,1830
1677,1973,1751
1715,2023,1866
1800,2030,1897
1743,2017,1857
1655,1969,1807
1785,1958,1824
1744,1968,1881
1729,1945,1813
1710,1925,1763
1750,1939,1822
1776,1956,1875
1729,1935,1842
1665,1904,1802
1761,1917,1840
1785,1927,1871
1761,1885,1807
1746,1877,1773
1746,1875,1821
1748,1884,1872
1725,1879,1826
1712,1857,1785
1782,1853,1802
1833,1851,1829
1746,1843,1818
1742,1825,1797
1711,1834,1846
1760,1838,1873
1745,1821,1819
1641,1791,1769
1808,1786,1821
1790,1778,1874
1808,1776,1840
1723,1746,1710
1680,1776,1825
1847,1808,2147
1775,1725,2059
1600,1712,1856
1714,1763,1791
1828,1790,1808
1740,1789,1831
1683,1704,1837
1706,1710,1833
1817,1753,1834
1781,1711,1831
1731,1648,1836
1791,1687,1833
1823,1718,1818
1722,1699,1826
1627,1664,1828
1744,1691,1831
1825,1664,1825
1857,1674,1821
1769,1633,1824
1675,1650,1827
1696,1653,1831
1675,1633,1829
1711,1639,1830
1776,1616,1904
1879,1603,2128
1775,1535,1701
1557,1527,1525
1559,1555,1797
1666,1535,2100
1661,1555,2021
1600,1487,1857
1634,1494,1553
1616,1345,4095
753,631,3061
64,143,608
137,191,799
455,413,1198
726,581,1441
740,697,1630
995,896,2224
900,809,4095
293,322,1142
139,197,692
357,398,1165
730,641,1825
881,799,1779
975,896,1837
1144,1038,1829
1242,1190,1825
1211,1248,1836
1136,1228,1840
1271,1264,1783
1571,1430,1796
1518,1535,1821
1376,1555,1834
1406,1570,1831
1493,1660,1825
1525,1664,1826
1499,1660,1830
1561,1715,1831
1670,1787,1830
1718,1748,1827
1648,1744,1831
1712,1835,1838
1765,1876,1856
1884,1840,2000
1644,1745,1735
1659,1808,1504
1710,1888,1405
1751,1875,1314
1709,1820,1209
1791,1856,1407
1815,1903,1813
1747,1877,1968
1751,1826,1775
1845,1852,1763
1915,1872,1808
1813,1867,1857
1739,1851,1858
1694,1764,2412
1417,1459,2585
1045,1168,885
912,963,1580
976,905,1717
567,535,4095
0,0,4095
0,0,4095
0,0,3002
0,0,1836
0,0,1564
489,333,1718
791,683,1842
862,873,1857
905,970,1838
1000,944,1827
1133,1098,1829
1234,1245,1833
1296,1321,1827
1377,1334,1827
1443,1362,1827
1592,1474,1827
1645,1489,1831
1532,1520,1827
1594,1583,1827
1694,1587,1829
1787,1591,1829
1759,1625,1827
1779,1689,1831
1761,1729,1823
1811,1748,1830
1782,1737,1831
1856,1749,1829
1943,1783,1829
1899,1789,1827
1897,1767,1833
1981,1835,1831
2075,1847,1825
2036,1794,1830
2019,1801,1858
2000,1837,1950
2034,1849,1963
1946,1829,1826
1971,1819,1774
2037,1856,1890
2160,1874,1923
2173,1857,1842
2090,1812,1840
2000,1803,1857
2039,1843,1898
2032,1812,1830
2069,1770,1772
2142,1806,1841
2137,1810,1853
2128,1766,1789
2112,1730,1757
2128,1744,1844
2101,1739,1900
2099,1712,1808
2112,1653,1714
2202,1663,1763
2130,1694,1847
2038,1680,1797
2033,1607,1712
2064,1630,1734
2106,1644,1840
2173,1615,1772
2096,1598,1709
2040,1599,1785
2066,1630,1856
2087,1606,1785
2074,1584,1703
2091,1610,1755
2109,1583,1750
2149,1605,1751
2038,1564,1744
2064,1578,1722
2121,1617,1797
2029,1590,1751
2035,1535,1695
2130,1535,1730
2119,1603,1845
2082,1571,1776
2103,1489,1660
2128,1486,1669
2074,1472,1767
2047,1442,1753
2082,1409,1701
2067,1445,1774
2087,1459,1835
2064,1378,1744
2054,1347,1647
2089,1399,1712
2086,1393,1712
2091,1378,1701
2089,1361,1645
2064,1354,1717
2047,1387,1755
2062,1391,1694
2030,1359,1658
2044,1374,1722
2096,1395,1726
2097,1394,1728
1989,1354,1712
1991,1361,1707
2091,1402,1745
2134,1360,1631
2016,1338,1663
1962,1399,1698
2000,1413,1686
2064,1413,1730
2066,1394,1663
2092,1419,1648
2091,1459,1740
2025,1385,1749
1978,1394,1602
2008,1484,1655
2041,1429,1760
2042,1393,1722
1973,1455,1638
1994,1481,1689
2054,1464,1729
2028,1491,1709
2000,1501,1651
2000,1456,1680
2045,1488,1715
2015,1579,1735
2006,1489,1638
2077,1518,1670
2031,1572,1740
1943,1581,1715
1940,1565,1632
2047,1535,1680
2105,1613,1719
1987,1599,1700
1962,1591,1663
2006,1669,1719
2026,1651,1765
1977,1624,1701
1984,1607,1609
2011,1647,1703
2023,1694,1769
2009,1669,1752
1953,1629,1667
1937,1601,1682
2025,1744,1755
2057,1712,1723
2032,1680,1687
1963,1712,1673
1950,1709,1739
1968,1709,1738
2000,1703,1636
2004,1727,1687
2005,1749,1769
1949,1719,1666
1958,1721,1627
1981,1756,1770
1999,1791,1808
1954,1739,1731
2012,1781,1647
2057,1757,1659
2047,1792,1797
1963,1835,1778
1879,1761,1696
1918,1795,1697
2035,1783,1710
1971,1778,1721
1872,1771,1694
1973,1822,1696
1995,1787,1758
2023,1829,1721
1974,1805,1680
1919,1826,1781
1934,1845,1821
1926,1825,1744
1947,1825,1620
2013,1819,1675
1955,1876,1808
1874,1861,1767
1898,1807,1723
1973,1815,1680
2022,1879,1766
1924,1867,1776
1986,1805,1710
2002,1895,1744
1953,1934,1808
1876,1930,1809
1859,1840,1744
1941,1863,1735
2013,1914,1763
1991,1841,1743
1920,1815,1687
1951,1832,1744
1939,1879,1794
1933,1879,1795
1949,1822,1687
1923,1872,1712
1953,1923,1787
1962,1905,1825
1939,1899,1763
1951,1871,1762
1951,1875,1803
1906,1902,1788
1903,1845,1746
1924,1870,1747
2010,1893,1767
1960,1907,1808
1875,1849,1763
1943,1940,1781
1969,1808,1797
1959,1895,1777
1878,1874,1742
1857,1895,1813
1933,1927,1871
1931,1919,1811
1893,1870,1729
1955,1872,1744
1979,1954,1813
1859,1958,1851
1835,1885,1772
1975,1891,1744
2043,1946,1834
1902,1933,1889
1847,1905,1820
1921,1913,1711
1927,1894,1802
1883,1882,1865
1871,1933,1786
1963,1938,1738
1968,1968,1779
1863,1954,1840
1876,1926,1820
1915,1907,1825
1895,1972,1899
1863,1985,1853
1879,1971,1760
1902,1943,1794
1885,1951,1845
1893,1909,1838
1899,1926,1755
1898,1983,1763
1907,2006,1852
1968,2018,1843
1906,1904,1767
1838,1954,1792
1930,1966,1907
1991,1993,1840
1893,1899,1670
1870,1995,1761
1877,2030,1961
1850,1984,1872
1890,1968,1799
1941,1971,1796
1927,1982,1826
1848,2011,1900
1821,1962,1793
1873,1971,1712
1895,2000,1847
1890,2021,1889
1870,1990,1839
1890,2000,1821
1936,2030,1833
1908,2001,1817
1866,1951,1808
1888,1965,1827
1959,2027,1854
1939,2036,1871
1850,1991,1802
1820,2001,1820
1867,2022,1857
1966,1935,1841
1988,2013,1774
1851,1971,1773
1870,2058,1910
1911,2059,1942
1881,2026,1826
1878,2075,1782
1892,2000,1826
1937,2030,1855
1904,1991,1810
1879,1985,1799
1867,2016,1870
1868,2033,1904
1891,1994,1805
1882,1987,1811
1927,2035,1881
1885,2032,1895
1834,2011,1837
1856,2011,1817
1898,2028,1878
1907,1997,1871
1883,1994,1808
1879,1994,1811
1894,2011,1860
1889,2018,1888
1869,1996,1824
1858,2006,1856
1887,2026,1894
1865,2023,1867
1887,1971,1805
1910,1995,1846
1871,2027,1895
1840,2030,1858
1843,1995,1838
1850,2000,1854
1886,2018,1869
1899,2016,1851
1867,2004,1858
1918,1994,1847
1895,2018,1889
1827,2004,1887
1814,1961,1824
1910,2009,1858
1905,2038,1931
1870,2007,1872
1845,1949,1741
1874,2000,1854
1882,2032,1938
1906,2021,1911
1889,1965,1792
1845,1965,1846
1869,2015,1933
1907,2006,1889
1893,1981,1793
1871,1968,1788
1863,2018,1883
1888,2029,1909
1840,1986,1855
1855,1981,1856
1924,2030,1903
1849,1994,1872
1822,1955,1826
1909,1989,1854
1908,2001,1863
1851,1985,1840
1866,1961,1807
1889,1979,1869
1886,2030,1920
1869,1993,1830
1879,1974,1812
1904,1971,1866
1885,1999,1887
1887,1999,1903
1791,1948,1875
1857,1967,1851
1898,1990,1871
1905,1988,1885
1872,1978,1845
1820,1979,1889
1873,1984,1875
1903,2011,1910
1937,1972,1854
1862,1970,1889
1891,1985,1893
1840,1983,1904
1823,1952,1874
1869,1973,1847
1906,1984,1861
1872,1984,1877
1813,1966,1875
1826,1971,1872
1856,1969,1901
1887,1970,1868
1900,1936,1804
1905,1965,1869
1897,2005,1942
1843,1963,1904
1797,1927,1826
1851,1949,1847
1949,1989,1894
1860,1961,1889
1797,1939,1846
1831,1962,1869
1895,1972,1920
1902,1968,1911
1882,1937,1824
1917,1945,1843
1862,1974,1930
1833,1975,1904
1808,1923,1802
1903,1935,1829
1894,1978,1934
1827,1981,1941
1830,1933,1870
1891,1925,1811
1906,1966,1876
1872,1981,1914
1838,1935,1826
1857,1919,1835
1883,1979,1919
1865,1951,1874
1851,1931,1811
1865,1920,1785
1853,1933,1846
1850,1928,1879
1808,1915,1886
1827,1931,1863
1872,1965,1904
1873,1955,1919
1910,1905,1839
1885,1925,1817
1853,1946,1880
1829,1934,1889
1805,1891,1827
1842,1899,1849
1904,1935,1921
1897,1939,1878
1833,1903,1805
1821,1907,1817
1868,1918,1866
1887,1916,1868
1857,1894,1835
1875,1916,1878
1891,1962,1947
1840,1904,1855
1810,1914,1825
1830,1907,1861
1867,1926,1888
1893,1914,1895
1886,1879,1820
1834,1887,1856
1841,1929,1903
1849,1924,1882
1858,1891,1817
1911,1911,1842
1968,1928,1879
1931,1910,1840
1785,1904,1901
1799,1867,1813
1955,1922,1835
1871,1913,1872
1787,1879,1847
1805,1910,1872
1808,1923,1941
1871,1885,1858
1920,1888,1791
1892,1925,1888
1847,1907,1885
1776,1885,1854
1840,1867,1822
1879,1917,1839
1841,1936,1915
1833,1914,1923
1826,1851,1808
1835,1878,1839
1872,1919,1961
1882,1891,1903
1831,1870,1776
1829,1900,1794
1886,1919,1936
1920,1891,1866
1803,1869,1867
1767,1891,1907
1821,1904,1866
1882,1913,1838
1843,1872,1841
1872,1860,1860
1844,1919,1898
1840,1934,1869
1865,1895,1792
1830,1890,1792
1821,1887,1883
1847,1866,1809
1908,1850,1840
1837,1915,1904
1767,1919,1888
1797,1905,1847
1805,1881,1840
1877,1875,1872
1915,1916,1882
1868,1909,1872
1778,1901,1776
1783,1885,1834
1833,1901,1859
1903,1897,1860
1866,1895,1884
1841,1910,1853
1875,1935,1843
1861,1921,1825
1779,1914,1821
1803,1905,1871
1866,1893,1904
1887,1872,1793
1890,1925,1853
1788,1919,1908
1803,1936,1881
1851,1921,1879
1869,1876,1761
1879,1865,1761
1878,1920,1904
1826,1930,1918
1793,1904,1844
1866,1890,1805
1847,1919,1886
1826,1922,1875
1833,1883,1841
1809,1893,1872
1803,1897,1854
1877,1903,1808
1872,1914,1818
1831,1907,1898
1875,1936,1920
1851,1887,1795
1841,1846,1782
1843,1882,1830
1840,1917,1878
1865,1926,1949
1807,1886,1815
1831,1870,1763
1855,1919,1815
1855,1905,1872
1846,1861,1787
1902,1901,1911
1849,1963,2035
1808,1931,1878
1823,1887,1741
1855,1889,1822
1873,1920,1916
1840,1926,1856
1827,1894,1776
1856,1904,1796
1833,1919,1876
1805,1879,1842
1846,1894,1748
1938,1915,1776
1925,1915,1890
1788,1936,1925
1786,1915,1849
1840,1879,1790
1915,1911,1792
1899,1955,1846
1793,1917,1841
1776,1920,1856
1795,1946,1865
1843,1903,1782
1901,1898,1792
1838,1889,1775
1842,1914,1802
1840,1923,1824
1847,1919,1838
1799,1895,1872
1853,1921,1808
1845,1935,1894
1799,1917,1827
1808,1905,1803
1841,1953,1905
1842,1935,1808
1840,1870,1751
1845,1898,1827
1834,1904,1866
1855,1910,1831
1838,1869,1767
1831,1904,1803
1872,1942,1903
1904,1919,1862
1781,1895,1801
1775,1898,1805
1811,1894,1879
1882,1907,1829
1825,1895,1808
1815,1911,1835
1830,1902,1871
1857,1926,1885
1805,1885,1755
1826,1888,1808
1971,1913,1886
1904,1915,1842
1767,1899,1786
1791,1907,1813
1847,1915,1865
1822,1910,1875
1783,1859,1689
1923,1891,1779
1870,1943,1920
1774,1919,1947
1781,1874,1813
1833,1874,1818
1883,1905,1815
1854,1913,1949
1841,1876,1779
1887,1906,1808
1888,1933,1872
1907,1898,1891
1846,1862,1766
1798,1875,1810
1765,1919,1906
1812,1936,1888
1838,1893,1808
1863,1886,1808
1890,1922,1846
1852,1909,1872
1790,1882,1821
1805,1899,1789
1893,1942,1863
1906,1929,1879
1864,1882,1813
1828,1883,1814
1867,1909,1827
1893,1932,1836
1840,1924,1840
1858,1904,1837
1840,1907,1886
1826,1917,1858
1843,1894,1776
1827,1887,1803
1863,1910,1872
1859,1920,1893
1825,1900,1818
1835,1868,1776
1920,1925,1843
1922,1927,1865
1856,1921,1810
1776,1885,1826
1825,1887,1877
1902,1921,1871
1866,1897,1843
1814,1875,1812
1847,1904,1835
1856,1904,1879
1881,1877,1826
1808,1877,1810
1873,1936,1891
1841,1913,1855
1782,1872,1772
1830,1873,1792
1904,1904,1840
1873,1921,1894
1798,1899,1866
1808,1890,1839
1849,1915,1829
1917,1911,1837
1836,1870,1841
1749,1878,1856
1840,1919,1875
1839,1918,1863
1819,1888,1803
1881,1878,1792
1901,1872,1837
1858,1904,1877
1811,1883,1849
1828,1877,1808
1878,1891,1808
1902,1904,1845
1819,1861,1813
1840,1876,1872
1884,1911,1899
1840,1936,1890
1840,1903,1833
1817,1874,1818
1869,1893,1861
1893,1883,1863
1862,1861,1791
1804,1855,1794
1808,1875,1829
1841,1903,1872
1831,1891,1823
1853,1883,1861
1872,1924,1903
1893,1923,1861
1844,1865,1794
1790,1856,1837
1832,1891,1872
1893,1894,1861
1829,1869,1801
1853,1863,1813
1899,1897,1880
1856,1874,1861
1782,1843,1790
1840,1858,1797
1901,1897,1830
1878,1919,1893
1773,1872,1811
1818,1854,1795
1851,1896,1851
1819,1906,1884
1763,1858,1818
1809,1859,1811
1886,1877,1856
1913,1878,1863
1849,1846,1797
1830,1847,1801
1843,1891,1893
1828,1904,1891
1851,1842,1772
1803,1839,1782
1875,1872,1845
1911,1898,1847
1840,1862,1821
1850,1856,1805
1872,1873,1863
1844,1874,1850
1872,1843,1799
1808,1832,1809
1892,1871,1847
1808,1873,1904
1840,1840,1827
1930,1855,1790
1904,1878,1837
1807,1871,1824
1833,1836,1808
1846,1840,1823
1911,1877,1847
1873,1874,1868
1840,1842,1828
1773,1840,1801
1913,1871,1834
1883,1866,1839
1813,1845,1850
1794,1857,1830
1908,1866,1855
1886,1858,1862
1714,1837,1805
1915,1860,1805
1808,1865,1839
1850,1871,1885
1815,1841,1836
1843,1828,1793
1902,1854,1841
1898,1872,1854
1831,1837,1789
1827,1845,1815
1879,1874,1861
1873,1870,1842
1883,1834,1809
1892,1837,1776
1826,1858,1872
1817,1872,1889
1885,1843,1821
1904,1833,1815
1904,1863,1887
1850,1872,1877
1789,1861,1774
1934,1856,1764
1802,1829,1840
1854,1857,1888
1814,1841,1839
1898,1821,1785
1964,1881,1840
1831,1895,1921
1859,1837,1820
1866,1830,1801
1952,1856,1814
1866,1883,1884
1765,1841,1836
1742,1856,1822
1856,1856,1845
1936,1859,1863
1909,1842,1792
1885,1843,1803
1871,1867,1847
1837,1856,1831
1851,1841,1802
1881,1841,1809
1877,1865,1902
1872,1889,1876
1810,1851,1806
1833,1827,1811
1854,1871,1890
1829,1854,1850
1818,1821,1775
1777,1841,1789
1872,1853,1879
1840,1846,1866
1855,1815,1761
1821,1826,1767
1851,1867,1874
1828,1856,1891
1838,1813,1817
1825,1808,1797
1835,1862,1829
1877,1879,1853
1845,1840,1821
1856,1844,1815
1919,1845,1860
1827,1842,1867
1846,1825,1762
1863,1841,1759
1873,1855,1847
1811,1844,1871
1783,1814,1799
1866,1830,1795
1943,1856,1852
1872,1830,1840
1818,1795,1779
1819,1835,1840
1825,1874,1872
1840,1856,1868
1838,1827,1803
1806,1817,1794
1856,1840,1857
1909,1858,1859
1872,1827,1763
1778,1826,1781
1818,1857,1841
1841,1869,1873
1857,1840,1813
1850,1808,1774
1858,1843,1841
1837,1840,1840
1845,1808,1771
