1833,1965,1595
1839,1968,1609
1807,1941,1568
1808,1929,1565
1840,1961,1619
1842,1969,1680
1792,1953,1554
1819,1959,1532
1824,1971,1589
1810,1972,1583
1771,1943,1535
1835,1974,1575
1766,2047,1629
1804,1998,1614
1810,1953,1535
1797,1953,1535
1864,2005,1600
1789,2018,1606
1760,2002,1600
1829,1999,1632
1845,2021,1692
1857,2032,1712
1850,2006,1669
1757,2006,1693
1813,2057,1753
1831,2061,1767
1750,2027,1740
1786,2046,1776
1782,2063,1818
1881,2086,1831
1777,2021,1808
1791,2003,1806
1835,2055,1837
1819,2069,1825
1750,2032,1774
1789,2039,1755
1825,2080,1781
1806,2090,1746
1791,2034,1631
1781,2045,1568
1815,2096,1599
1815,2114,1567
1835,2071,1474
1731,2035,1441
1839,2060,1453
1810,2047,1429
1792,2035,1392
1791,2047,1367
1811,2074,1387
1794,2081,1370
1746,2047,1329
1783,2043,1327
1824,2091,1360
1843,2111,1359
1686,2077,1296
1793,2058,1283
1850,2091,1331
1791,2192,1360
1811,2037,1297
1785,2000,1283
1822,2061,1323
1826,2093,1335
1790,2073,1297
1796,2096,1314
1840,2078,1395
1834,2110,1363
1788,2061,1273
1793,2035,1287
1824,2084,1358
1828,2143,1382
1799,2058,1327
1803,2025,1337
1840,2070,1392
1851,2121,1410
1806,2067,1354
1807,2035,1347
1829,2081,1398
1839,2082,1413
1806,2042,1382
1808,2038,1392
1843,2087,1434
1845,2083,1439
1805,2044,1373
1811,2064,1403
1842,2093,1478
1838,2096,1473
1806,2062,1440
1812,2045,1423
1846,2132,1484
1840,2053,1493
1799,1993,1427
1795,2023,1467
1833,2087,1528
1815,2102,1525
1793,2077,1471
1799,2042,1487
1850,2099,1535
1835,2089,1535
1795,2038,1495
1805,2027,1507
1839,2080,1535
1837,2094,1552
1797,2065,1523
1802,2064,1523
1840,2097,1566
1840,2084,1584
1808,2033,1555
1809,2034,1567
1839,2083,1619
1840,2091,1605
1809,2034,1535
1808,2026,1558
1840,2070,1605
1840,2083,1615
1806,2038,1583
1808,2046,1581
1846,2093,1633
1850,2087,1659
1806,2010,1616
1807,2017,1623
1835,2055,1661
1833,2076,1657
1808,2032,1639
1814,2023,1647
1851,2071,1691
1840,2079,1694
1808,2022,1649
1818,2029,1664
1842,2011,1705
1842,2010,1712
1825,2014,1683
1834,2009,1699
1856,2038,1742
1854,2034,1737
1821,2025,1710
1840,2022,1727
1869,2022,1766
1863,2031,1776
1823,1979,1707
1811,1983,1712
1854,2009,1771
1866,2024,1792
1839,1998,1742
1840,1984,1743
1862,2011,1779
1860,2031,1798
1829,2000,1773
1821,1941,1758
1855,1973,1791
1856,1999,1791
1819,1974,1759
1814,1970,1767
1856,1999,1813
1856,2039,1821
1818,1978,1782
1814,1925,1775
1859,1962,1811
1845,1984,1827
1825,1967,1793
1827,1947,1774
1857,1981,1819
1847,1985,1840
1813,1947,1808
1821,1946,1819
1857,1972,1840
1855,1974,1837
1816,1936,1804
1825,1927,1816
1856,1955,1853
1856,1967,1854
1823,1945,1823
1835,1930,1840
1863,1943,1859
1855,1954,1854
1823,1941,1831
1830,1898,1842
1861,1935,1875
1858,1931,1872
1829,1895,1827
1825,1902,1840
1854,1936,1888
1856,1936,1893
1838,1907,1858
1839,1905,1858
1867,1933,1902
1862,1938,1899
1835,1903,1856
1840,1901,1872
1886,1936,1902
1878,1968,1909
1835,1895,1889
1839,1874,1893
1862,1905,1921
1862,1903,1907
1840,1889,1875
1845,1882,1891
1875,1920,1935
1862,1926,1933
1840,1887,1891
1851,1875,1894
1885,1909,1930
1875,1934,1936
1853,1878,1904
1856,1857,1886
1861,1894,1927
1878,1903,1936
1849,1871,1893
1838,1865,1897
1868,1897,1941
1874,1891,1956
1847,1861,1908
1840,1843,1904
1875,1899,1945
1872,1925,1951
1838,1895,1901
1840,1872,1889
1872,1840,1957
1873,1851,1966
1842,1878,1911
1840,1801,1891
1876,1835,1939
1874,1898,1943
1840,1885,1910
1840,1809,1919
1885,1840,1946
1884,1827,1955
1840,1854,1912
1835,1798,1907
1872,1818,1943
1871,1813,1950
1840,1815,1918
1840,1824,1929
1869,1867,1962
1872,1859,1961
1835,1840,1917
1843,1866,1935
1867,1819,1953
1867,1847,1940
1829,1793,1904
1831,1829,1915
1875,1856,1955
1863,1856,1956
1823,1854,1925
1835,1857,1935
1869,1835,1964
1869,1838,1954
1826,1815,1913
1835,1799,1919
1872,1842,1947
1879,1840,1949
1840,1826,1919
1840,1832,1921
1873,1870,1953
1873,1861,1957
1856,1814,1921
1854,1818,1913
1879,1883,1959
1883,1859,1968
1856,1776,1918
1851,1789,1921
1898,1846,1974
1902,1840,1961
1865,1777,1916
1857,1776,1914
1884,1817,1961
1882,1842,1963
1855,1814,1931
1871,1820,1930
1904,1907,1966
1894,1811,1952
1867,1883,1919
1871,1861,1918
1900,1865,1958
1882,1856,1963
1849,1818,1904
1859,1780,1904
1898,1846,1963
1888,1840,1955
1856,1824,1905
1854,1778,1904
1889,1866,1943
1888,1877,1955
1863,1846,1914
1853,1854,1901
1870,1891,1946
1863,1827,1952
1842,1822,1911
1853,1840,1914
1891,1829,1951
1889,1872,1946
1847,1808,1904
1840,1849,1909
1884,1861,1950
1872,1815,1934
1839,1835,1887
1840,1834,1889
1872,1870,1925
1872,1838,1927
1823,1835,1889
1827,1837,1898
1871,1826,1941
1881,1862,1943
1843,1838,1895
1842,1840,1882
1872,1872,1922
1878,1872,1937
1853,1830,1893
1850,1823,1877
1878,1870,1939
1879,1930,1955
1847,1867,1905
1847,1782,1890
1879,1825,1925
1889,1872,1936
1855,1849,1904
1857,1835,1905
1893,1839,1937
1875,1883,1936
1851,1917,1894
1855,1869,1904
1888,1827,1930
1886,1895,1935
1847,1847,1904
1856,1839,1904
1891,1934,1936
1891,1842,1933
1856,1874,1901
1860,1851,1904
1887,1860,1938
1887,1897,1946
1854,1842,1897
1862,1904,1898
1895,1877,1929
1892,1892,1929
1858,1927,1883
1864,1897,1897
1898,1904,1934
1889,1888,1937
1854,1831,1878
1857,1826,1875
1902,1922,1926
1903,1891,1953
1859,1840,1904
1859,1881,1895
1899,1857,1929
1898,1855,1922
1871,1840,1885
1871,1855,1890
1904,1890,1918
1903,1904,1904
1865,1843,1869
1859,1822,1877
1895,1855,1909
1907,1903,1926
1872,1885,1882
1862,1830,1873
1898,1851,1911
1904,1884,1920
1871,1840,1874
1872,1856,1872
1904,1885,1913
1906,1872,1914
1865,1820,1869
1865,1865,1859
1894,1891,1882
1897,1894,1898
1863,1853,1874
1872,1838,1869
1895,1867,1904
1895,1873,1907
1866,1836,1872
1871,1840,1870
1907,1885,1904
1908,1881,1897
1863,1843,1857
1861,1836,1860
1897,1879,1902
1901,1916,1899
1870,1898,1869
1867,1826,1871
1894,1808,1889
1889,1837,1887
1862,1840,1854
1874,1850,1878
1910,1886,1916
1908,1894,1911
1872,1865,1865
1871,1839,1862
1903,1881,1899
1897,1886,1898
1871,1856,1863
1870,1862,1863
1910,1890,1903
1911,1893,1905
1890,1872,1879
1878,1871,1870
1920,1875,1890
1920,1881,1895
1883,1856,1849
1875,1883,1866
1918,1911,1922
1927,1887,1923
1898,1850,1879
1890,1872,1873
1915,1915,1904
1915,1877,1902
1879,1840,1856
1891,1844,1869
1922,1892,1902
1910,1906,1904
1881,1872,1872
1883,1856,1866
1904,1910,1898
1909,1877,1899
1884,1856,1870
1886,1856,1867
1914,1893,1914
1915,1894,1903
1879,1872,1853
1885,1889,1857
1914,1870,1883
1899,1845,1897
1872,1813,1868
1875,1836,1866
1915,1889,1893
1915,1899,1902
1875,1845,1857
1872,1839,1856
1903,1885,1889
1905,1890,1895
1872,1867,1840
1867,1857,1840
1898,1890,1872
1904,1881,1898
1871,1821,1841
1860,1839,1836
1905,1921,1885
1894,1855,1866
1859,1777,1823
1858,1807,1835
1892,1857,1874
1893,1861,1856
1858,1833,1814
1870,1831,1837
1905,1866,1869
1898,1872,1856
1858,1834,1819
1856,1829,1828
1903,1871,1873
1901,1874,1869
1856,1830,1814
1866,1814,1811
1904,1865,1873
1896,1873,1873
1867,1826,1817
1862,1819,1818
1894,1855,1857
1901,1891,1872
1858,1904,1842
1863,1835,1840
1890,1832,1862
1891,1839,1867
1863,1796,1825
1861,1809,1831
1888,1853,1856
1890,1864,1859
1869,1904,1861
1872,1918,1877
1883,1820,1853
1879,1807,1840
1851,1806,1822
1871,1835,1849
1901,1873,1883
1887,1872,1870
1850,1839,1831
1857,1840,1826
1903,1871,1867
1897,1871,1860
1836,1831,1792
1867,1868,1844
1917,1936,1904
1903,1879,1886
1851,1802,1823
1856,1807,1825
1893,1853,1859
1895,1873,1866
1859,1853,1830
1853,1831,1817
1890,1863,1865
1892,1875,1872
1855,1842,1825
1872,1877,1840
1923,1918,1883
1876,1842,1840
1838,1807,1797
1843,1821,1821
1889,1865,1859
1890,1874,1868
1857,1856,1835
1864,1856,1843
1894,1873,1869
1888,1878,1863
1850,1847,1812
1856,1840,1819
1904,1889,1859
1892,1901,1875
1845,1857,1839
1840,1861,1834
1873,1877,1852
1893,1885,1854
1852,1862,1815
1855,1865,1824
1879,1902,1861
1884,1891,1877
1857,1851,1806
1843,1879,1793
1877,1875,1863
1888,1859,1872
1851,1855,1835
1855,1856,1834
1873,1882,1815
1877,1901,1878
1858,1826,1866
1855,1814,1834
1889,1856,1814
1893,1874,1818
1861,1858,1781
1845,1843,1801
1872,1867,1826
1875,1872,1901
1851,1872,1823
1851,1869,1840
1876,1857,1874
1905,1871,1870
1872,1843,1835
1869,1849,1827
1894,1907,1857
1903,1927,1901
1869,1831,1843
1867,1840,1839
1914,1887,1918
1890,1872,1853
1853,1857,1803
1863,1865,1808
1910,1905,1892
1906,1904,1869
1875,1856,1809
1879,1841,1840
1911,1907,1871
1907,1885,1870
1885,1841,1824
1875,1872,1836
1911,1885,1889
1906,1910,1894
1872,1872,1842
1872,1846,1837
1918,1911,1926
1915,1895,1893
1867,1882,1842
1867,1867,1842
1904,1859,1904
1905,1872,1846
1870,1870,1791
1856,1868,1813
1905,1875,1879
1919,1906,1886
1881,1858,1837
1872,1851,1794
1913,1878,1902
1915,1893,1889
1877,1875,1845
1881,1847,1825
1910,1885,1853
1914,1881,1871
1882,1873,1851
1874,1892,1824
1915,1872,1860
1919,1879,1859
1880,1859,1811
1877,1875,1815
1910,1891,1851
1905,1875,1878
1879,1870,1838
1883,1856,1814
1895,1878,1874
1898,1893,1903
1862,1855,1857
1867,1872,1847
1899,1902,1870
1905,1898,1888
1870,1894,1811
1882,1870,1878
1906,1881,1866
1903,1875,1890
1862,1835,1802
1869,1851,1844
1903,1904,1862
1904,1936,1862
1863,1874,1838
1866,1847,1825
1895,1885,1840
1904,1903,1891
1878,1885,1811
1874,1883,1845
1903,1909,1865
1904,1905,1916
1869,1842,1835
1872,1847,1857
1913,1893,1886
1907,1910,1887
1873,1904,1840
1875,1869,1860
1899,1903,1877
1887,1904,1902
1873,1894,1843
1887,1872,1863
1918,1904,1840
1911,1908,1887
1872,1879,1840
1872,1876,1840
1909,1907,1877
1909,1921,1859
1872,1887,1837
1877,1872,1817
1899,1910,1834
1915,1919,1862
1890,1886,1838
1882,1866,1866
1916,1903,1927
1913,1913,1856
1885,1872,1808
1878,1869,1870
1911,1922,1891
1914,1936,1925
1875,1858,1840
1879,1853,1837
1907,1901,1821
1905,1920,1891
1874,1902,1808
1901,1900,1833
1927,1939,1936
1926,1889,1904
1882,1855,1838
1886,1872,1803
1913,1911,1871
1913,1908,1879
1889,1891,1780
1904,1904,1913
1906,1903,1833
1890,1890,1918
1868,1861,1840
1872,1873,1867
1930,1922,1911
1967,1964,1949
1906,1916,1837
1854,1858,1797
1867,1872,1856
1891,1907,1884
1930,1930,1869
1903,1894,1845
1842,1869,1872
1872,1904,1891
1996,1954,1925
2034,1964,1943
1869,1859,1788
1775,1808,1831
1770,1815,1727
1840,1867,1875
1954,1956,1872
1918,1910,1917
1831,1831,1829
1877,1871,1835
1957,1927,1833
1925,1903,1873
1839,1821,1771
1846,1841,1830
1938,1917,1888
1867,1861,1847
1829,1834,1760
1904,1855,1789
1917,1890,1882
1967,1872,1879
1865,1815,1769
1808,1850,1877
1935,1936,1936
1942,1933,1872
1854,1867,1781
1840,1845,1979
1835,1872,1984
1867,1934,1702
1904,1945,1762
1807,1903,1833
1807,1904,1850
1840,1936,1858
1847,1930,1829
1865,1983,1853
1878,2007,1842
1845,1977,1862
1834,1957,1877
1847,2001,1934
1872,2085,1874
1890,2054,1793
1840,2000,1777
1858,2010,1872
1890,2026,1957
1860,2009,1872
1741,1962,1737
1780,1941,1750
1850,2007,1861
1891,2091,1938
1853,2011,1853
1769,1937,1797
1840,1975,1831
1805,1991,1840
1911,2000,1827
1904,2032,1813
1834,2061,1872
1773,1937,1883
1776,1904,1846
1879,1921,1833
1854,1968,1846
1862,1977,1777
1796,1904,1871
1808,1922,1936
1856,1985,1981
1872,1985,1915
1869,2003,1938
1885,2006,1689
1793,1925,1759
1746,1889,1827
1760,1883,1875
1821,1902,1825
1823,1967,1841
1856,2007,1859
1850,1945,1799
1807,1936,1840
1871,1993,1863
1840,1994,1845
1761,1909,1766
1835,1913,1791
1835,1950,1905
1853,1951,2001
1802,1918,1795
1838,1999,1875
1913,2096,1855
1851,2003,1761
1791,1948,1683
1726,1867,1792
1750,1875,1863
1802,1945,1856
1821,1965,1780
1842,1986,1918
1879,2024,1900
1798,1974,1778
1750,1968,1771
1827,2010,1787
1853,2032,1811
1823,2022,1813
1810,1990,1856
1819,1920,1780
1856,2032,1829
1829,2014,1791
1777,1895,1771
1835,1903,1783
1947,1986,1699
1941,1995,1797
1888,1952,1850
1833,1949,1838
1808,1993,1840
1934,2015,1840
1815,1967,1825
1833,1984,1829
1842,1977,1779
1702,1991,1864
1659,2005,1860
1680,1997,1799
1718,2021,1818
1731,2096,1853
1765,2014,1743
1782,2000,1776
1799,2045,1841
1764,2081,1807
1738,2031,1730
1683,2010,1739
1783,2063,1787
1774,2070,1776
1728,2010,1717
1741,2011,1761
1835,2061,1834
1792,2025,1776
1675,1997,1707
1712,2007,1774
1777,2006,1779
1739,1999,1777
1602,1941,1813
1649,1947,1739
1711,1978,1641
1746,2029,1694
1801,2053,1776
1776,1968,1871
1720,1919,1844
1669,1922,1656
1670,1936,1600
1728,1994,1663
1790,2025,1763
1747,1966,1742
1782,1933,1713
1791,1883,1808
1743,1911,1883
1682,1937,1658
1639,1941,1589
1707,1933,1707
1731,1929,1815
1757,1925,1771
1664,1926,1728
1652,1899,1703
1711,1847,1767
1698,1870,1776
1657,1872,1690
1730,1930,1789
1812,1905,1822
1840,1897,1996
1701,1849,1775
1695,1838,1527
1713,1871,1553
1787,1879,1753
1740,1855,1797
1834,1871,1773
1695,1840,1770
1665,1819,1802
1711,1814,1777
1762,1854,1745
1718,1877,1801
1718,1841,1696
1759,1844,1799
1799,1840,1839
1731,1830,1849
1659,1823,1769
1697,1839,1715
1721,1789,1787
1765,1810,1834
1772,1853,1797
1744,1790,1727
1724,1765,1714
1778,1843,1845
1839,1877,1901
1723,1756,1834
1683,1774,1843
1774,1821,1760
1729,1829,1709
1674,1775,1686
1743,1790,1819
1751,1837,1870
1708,1774,1792
1619,1737,1746
1714,1777,1785
1760,1879,1846
1808,1851,1882
1730,1763,1841
1725,1776,1808
1794,1847,1879
1789,1808,1794
1655,1740,1728
1703,1763,1799
1792,1834,1855
1871,1814,1809
1811,1823,1819
1720,1787,1824
1713,1840,1825
1761,1841,1919
1791,1801,1801
1739,1734,1743
1733,1793,1834
1782,1858,1887
1803,1824,1841
1725,1741,1776
1681,1760,1761
1745,1837,1825
1792,1818,1840
1763,1811,1872
1831,1842,1862
1751,1765,1904
1761,1823,1850
1781,1794,1799
1761,1738,1792
1776,1777,1851
1763,1795,1812
1765,1796,1779
1906,1865,1952
1846,1845,1875
1687,1755,1718
1712,1746,1747
1803,1808,1878
1838,1855,1950
1779,1775,1923
1730,1766,1783
1797,1795,1771
1828,1798,1828
1808,1835,1883
1785,1825,1872
1797,1813,1883
1819,1815,1856
1802,1776,1836
1792,1803,1879
1787,1796,1889
1809,1796,1878
1801,1764,1803
1825,1767,1827
1813,1793,1858
1821,1847,1906
1823,1871,1805
1855,1795,1795
1775,1775,1829
1749,1815,1907
1799,1755,1826
1783,1819,1869
1810,1808,1872
1810,1779,1872
1794,1783,1873
1784,1779,1907
1853,1856,1871
1862,1840,1813
1804,1797,1803
1809,1817,1824
1847,1850,1872
1840,1825,1890
1798,1763,1826
1851,1783,1894
1862,1827,1949
1819,1779,1829
1777,1753,1744
1815,1797,1798
1903,1818,1923
1898,1867,1977
1792,1767,1808
1782,1759,1811
1850,1798,1837
1801,1807,1844
1802,1801,1851
1825,1758,1840
1820,1818,1858
1869,1841,1924
1894,1803,1930
1823,1792,1819
1802,1765,1718
1863,1795,1868
1831,1738,1923
1811,1789,1919
1825,1838,1808
1841,1791,1789
1818,1787,1782
1817,1796,1853
1877,1838,1904
1857,1840,1934
1845,1778,1877
1872,1796,1851
1838,1838,1827
1821,1821,1818
1843,1765,1820
1852,1764,1874
1895,1850,1919
1889,1842,1899
1808,1717,1843
1786,1793,1767
1893,1879,1831
1889,1881,1904
1842,1810,1867
1847,1819,1909
1851,1863,1872
1872,1828,1872
1837,1808,1862
1811,1809,1791
1913,1878,1887
1914,1877,1947
1825,1840,1873
1776,1791,1747
1899,1835,1842
1919,1863,1917
1876,1827,1943
1814,1766,1803
1833,1849,1820
1885,1870,1858
1856,1835,1905
1852,1821,1904
1858,1865,1889
1894,1896,1879
1846,1857,1806
1873,1842,1840
1933,1858,1895
1885,1864,1910
1849,1869,1877
1865,1885,1887
1855,1904,1888
1923,1913,1910
1894,1843,1822
1878,1904,1879
1866,1856,1851
1860,1840,1865
1849,1845,1887
1856,1862,1834
1901,1911,1857
1937,1937,1904
1901,1862,1890
1857,1841,1887
1864,1898,1879
1904,1929,1913
1881,1889,1858
1923,1944,1843
1940,1937,1914
1879,1904,1904
1833,1825,1828
1853,1825,1834
1906,1904,1879
1915,1964,1899
1939,1946,1906
1917,1903,1891
1967,1950,1949
1932,1912,1916
1795,1831,1795
1802,1814,1812
1901,1911,1922
1909,1843,1955
1884,1855,1940
1904,2000,1854
1931,1987,1842
1909,1897,1854
1817,1875,1877
1860,1857,1897
1951,1897,1862
1990,1925,1851
1890,1940,1859
1835,1909,1856
1889,1893,1904
1941,1998,1873
1905,1907,1867
1898,1931,1865
1899,1922,1903
1894,1926,1904
1872,1904,1840
1891,1936,1837
1932,1930,1897
1939,1906,1921
1922,1925,1907
1937,1980,1926
1921,1907,1831
1857,1919,1847
1856,1933,1872
1908,1905,1891
1942,1909,1910
1935,1937,1935
1902,1889,1829
1987,1921,1840
1927,1924,1855
1860,1918,1834
1846,1943,1846
1886,1910,1925
1938,2011,1904
1923,1967,1844
1900,1887,1891
1886,1923,1875
1920,1947,1917
1950,1950,1892
1919,1917,1855
1943,1915,1904
1923,1947,1893
1897,1919,1840
1881,1939,1855
1920,1933,1862
1936,1937,1891
1915,1914,1855
1871,1918,1793
1936,1999,1870
1948,2013,1934
1941,1917,1910
1898,1919,1857
1891,1971,1837
1907,1947,1925
1899,1931,1905
1887,1872,1867
1904,1899,1893
1957,1947,1899
1938,1950,1871
1873,1919,1868
1867,1907,1809
1934,1923,1893
1938,1967,1899
1928,1861,1871
1935,1939,1872
1960,1945,1910
1919,1913,1906
1889,1875,1873
1906,1863,1817
1902,1937,1874
1920,1872,1878
1913,1868,1914
1941,1840,1869
2044,1869,1897
1898,1836,1891
1807,1797,1794
1901,1879,1885
1968,1921,1906
1919,1875,1889
1870,1823,1865
1907,1790,1875
1957,1841,1921
1919,1831,1889
1879,1762,1847
1894,1840,1850
1947,1862,1873
1946,1853,1869
1913,1813,1889
1917,1831,1872
1980,1862,1906
1965,1837,1897
1915,1792,1843
1919,1773,1805
1934,1783,1849
1968,1857,1887
1905,1798,1857
1890,1793,1838
1955,1826,1920
1957,1841,1945
1911,1817,1895
1904,1857,1877
1943,1794,1943
1936,1850,1873
1888,1743,1846
1899,1771,1837
1980,1866,1915
1949,1791,1921
1906,1712,1902
1905,1852,1860
1936,1779,1874
1966,1783,1936
1918,1758,1866
1937,1712,1816
1952,1735,1851
1897,1786,1871
1875,1735,1837
1907,1773,1856
1937,1829,1884
1943,1808,1939
1881,1764,1861
1873,1744,1787
1939,1774,1846
1955,1791,1938
1904,1744,1885
1891,1741,1841
1967,1772,1894
1980,1761,1904
1955,1770,1840
1895,1706,1815
1937,1754,1917
1950,1771,1855
1907,1737,1810
1877,1719,1808
1917,1771,1917
1971,1798,1922
1972,1776,1872
1920,1776,1830
1891,1733,1840
1901,1719,1840
1903,1694,1815
1943,1783,1898
1970,1799,1934
1945,1791,1879
1925,1810,1835
1931,1719,1853
1904,1712,1867
1906,1722,1867
1904,1711,1829
1925,1739,1863
1969,1779,1933
1977,1838,1936
1919,1754,1824
1897,1744,1861
1964,1776,1946
1914,1743,1835
1872,1712,1763
1908,1696,1814
1966,1766,1878
1957,1802,1953
1927,1762,1851
1922,1723,1793
1940,1807,1879
1914,1789,1874
1871,1745,1835
1894,1759,1855
1975,1802,1904
1962,1778,1843
1891,1710,1777
1894,1737,1856
1935,1793,1924
1929,1795,1882
1894,1782,1863
1895,1789,1823
1940,1811,1885
1951,1806,1895
1919,1757,1825
1929,1782,1872
1936,1814,1865
1931,1817,1853
1920,1840,1838
1936,1811,1907
1922,1778,1855
1922,1757,1867
1911,1776,1810
1920,1782,1830
1921,1808,1889
1904,1813,1885
1915,1791,1839
1900,1774,1798
1937,1838,1869
1939,1847,1899
1900,1814,1877
1904,1848,1843
1967,1865,1852
1934,1806,1859
1895,1787,1842
1919,1808,1823
1965,1858,1904
1957,1867,1916
1923,1840,1833
1886,1823,1747
1911,1815,1857
1930,1798,1882
1936,1826,1857
1920,1824,1835
1937,1835,1829
1899,1843,1821
1900,1840,1755
1879,1795,1813
1931,1858,1904
1923,1904,1904
1886,1872,1878
1893,1797,1861
1936,1810,1835
1935,1843,1799
1904,1825,1843
1882,1824,1849
1917,1861,1897
1924,1847,1834
1935,1808,1797
1886,1779,1792
1886,1839,1877
1920,1855,1878
1888,1831,1831
1920,1843,1851
1942,1856,1869
1917,1872,1846
1873,1818,1787
1886,1812,1795
1950,1867,1872
1955,1885,1915
1940,1874,1855
1906,1895,1824
1919,1893,1904
1930,1869,1961
1921,1811,1856
1941,1810,1777
1910,1842,1790
1875,1863,1833
1865,1871,1832
1909,1842,1850
1914,1850,1871
1917,1885,1904
1886,1872,1811
1901,1840,1824
1920,1852,1877
1904,1831,1904
1882,1822,1823
1896,1857,1792
1934,1895,1869
1907,1862,1903
1901,1858,1840
1929,1894,1856
1943,1877,1909
1917,1857,1856
1882,1875,1808
1890,1840,1801
1938,1828,1854
1936,1873,1855
1901,1889,1849
1904,1869,1895
1884,1830,1897
1872,1840,1875
1847,1895,1830
1897,1873,1847
1936,1823,1847
1933,1877,1867
1894,1871,1838
1909,1868,1865
1903,1871,1881
1907,1859,1856
1899,1870,1823
1889,1916,1810
1925,1961,1920
1922,1863,1859
1913,1825,1793
1872,1839,1837
1872,1904,1913
1881,1895,1905
1871,1823,1881
1904,1834,1818
1933,1891,1830
1922,1936,1836
1910,1901,1876
1936,1863,1911
1928,1859,1881
1899,1872,1870
1876,1873,1808
1897,1854,1781
1936,1911,1904
1905,1914,1906
1871,1885,1838
1910,1870,1810
1908,1941,1826
1910,1925,1877
1905,1891,1883
1920,1874,1947
1981,1878,1818
1844,1869,1731
1829,1868,1820
1875,1878,1889
1949,1938,1943
1951,1934,1903
1912,1884,1838
1909,1901,1803
1907,1901,1871
1895,1926,1858
1872,1907,1801
1907,1878,1831
1898,1884,1856
1877,1885,1895
1890,1845,1904
1872,1883,1834
1901,1919,1840
1903,1923,1875
1879,1917,1856
1881,1910,1890
1939,1956,1930
1913,1938,1874
1854,1858,1752
1918,1863,1808
1904,1920,1869
1880,1946,1890
1887,1863,1799
1899,1872,1840
1891,1951,1878
1911,1924,1866
1878,1863,1803
1839,1855,1869
1867,1904,1900
1904,1961,1873
1890,1957,1855
1902,1915,1895
1914,1926,1825
1927,1923,1847
1905,1904,1845
1856,1863,1811
1877,1923,1879
1920,1934,1942
1906,1874,1842
1886,1899,1785
1922,1958,1872
1909,1951,1859
1868,1905,1867
1889,1874,1843
1925,1889,1819
1879,1919,1894
1847,1921,1843
1875,1918,1850
1940,2013,1951
1975,2019,1897
1872,1855,1762
1838,1835,1814
1895,1946,1883
1904,1934,1905
1863,1863,1808
1921,1933,1864
1984,1993,1909
1911,1917,1823
1826,1879,1784
1863,1919,1808
1941,1968,1851
1904,1968,1872
1875,1929,1836
1903,1918,1869
1922,1941,1904
1895,1979,1875
1904,1938,1838
1898,1851,1775
1882,1899,1847
1904,1923,1888
1870,1892,1815
1904,1926,1907
1922,1954,1906
1936,1963,1831
1907,1919,1776
1904,1969,1920
1901,1981,1874
1879,1879,1831
1845,1844,1822
1872,1887,1847
1917,1952,1887
1936,1966,1857
1872,1885,1765
1904,1894,1840
1930,1997,1981
1927,1955,1965
1840,1862,1781
1840,1840,1819
1889,1915,1875
1917,1926,1914
1873,1879,1844
1865,1901,1823
1903,1946,1858
1902,1946,1862
1885,1906,1808
1922,1939,1872
1926,1962,1923
1861,1920,1842
1843,1891,1819
1874,1883,1840
1898,1878,1854
1904,1916,1850
1872,1893,1822
1870,1897,1855
1927,1940,1936
1907,1933,1879
1872,1936,1825
1891,1935,1887
1889,1882,1787
1854,1844,1776
1881,1898,1854
1915,1930,1861
1923,1927,1859
1882,1899,1872
1871,1884,1744
1844,1892,1754
1875,1965,1884
1909,1834,1839
1894,1775,1823
1856,1839,1871
1898,2032,1943
1916,2033,1959
1874,1899,1767
1891,1707,1797
1973,1818,1911
1941,1878,1930
1872,1853,1827
1840,1851,1824
1869,1898,1872
1925,1907,1861
1866,1869,1783
1875,1904,1855
1898,1881,1906
1895,1863,1895
1856,1840,1807
1901,1894,1851
1954,2005,1936
1912,1891,1930
1872,1791,1917
1925,1857,1892
1890,1866,1859
1839,1831,1827
1836,1806,1739
1887,1839,1841
1971,1968,1922
1954,1917,1883
1873,1821,1789
1842,1825,1827
1915,1899,1883
1941,1936,1955
1933,1899,1879
1854,1834,1837
1860,1850,1866
1887,1872,1962
1915,1872,1871
1898,1871,1847
1857,1881,1831
1866,1890,1863
1905,1872,1897
1904,1814,1872
1904,1872,1872
1904,1910,1898
1846,1874,1875
1841,1808,1797
1920,1830,1889
1925,1879,1893
1855,1842,1841
1874,1863,1842
1908,1920,1937
1891,1874,1877
1898,1846,1830
1866,1833,1853
1883,1888,1858
1872,1873,1859
1894,1889,1875
1904,1905,1882
1913,1838,1843
1879,1840,1872
1834,1835,1847
1876,1879,1906
1937,1933,1904
1923,1921,1874
1859,1840,1863
1856,1821,1856
1904,1904,1907
1916,1942,1904
1872,1919,1853
1883,1815,1803
1915,1881,1843
1891,1902,1879
1882,1853,1853
1870,1897,1875
1935,1961,1986
1934,1897,1905
1842,1783,1791
1847,1801,1771
1887,1888,1854
1900,1902,1874
1825,1887,1859
1887,1870,1858
1904,1883,1873
1873,1918,1861
1904,1898,1846
1894,1837,1874
1953,1918,1907
1875,1893,1866
1808,1845,1829
1878,1863,1895
1943,1917,1963
1884,1900,1850
1831,1893,1792
1865,1882,1839
1889,1868,1903
1884,1889,1894
1859,1876,1889
1904,1855,1853
1904,1920,1899
1909,1837,1862
1845,1827,1808
1867,1835,1795
1909,1907,1886
1857,1930,1918
1851,1914,1873
1872,1866,1808
1899,1871,1899
1891,1904,1848
1862,1894,1839
1842,1921,1874
1877,1977,1931
1933,1902,1846
1868,1744,1780
1884,1777,1825
1911,1926,1872
1825,1989,1927
1865,1831,1860
1889,1776,1865
1907,1810,1850
1872,1877,1873
1867,1872,1830
1871,1871,1798
1885,1933,1878
1885,1910,1937
1840,1898,1876
1872,1872,1793
1881,1893,1833
1874,1913,1866
1830,1854,1862
1878,1898,1877
1903,1936,1915
1901,1891,1856
1856,1841,1823
1890,1861,1882
1936,1929,1911
1890,1859,1858
1869,1831,1840
1875,1889,1867
1879,1900,1875
1886,1899,1824
1883,1918,1819
1904,1899,1910
1878,1874,1915
1936,1872,1840
1903,1881,1811
1909,1877,1809
1889,1932,1922
1875,1903,1895
1872,1872,1863
1839,1849,1827
1890,1877,1862
1923,1901,1888
1892,1889,1868
1813,1872,1872
1939,1873,1927
1899,1856,1869
1898,1901,1814
1879,1920,1834
1892,1833,1833
