2370,2102,4073
2395,2022,4095
2315,1991,4095
2272,2006,4095
2320,2010,4095
2374,2010,4095
2359,2067,4095
2297,2071,4095
2287,1964,4095
2327,1937,4095
2403,2188,4095
2317,2009,4095
2244,1847,4095
2289,1970,4095
2303,2016,4095
2306,1922,4095
2354,2123,4095
2288,2192,4095
2263,1949,4095
2240,1839,4095
2283,1895,4095
2359,2032,4095
2288,2013,4095
2192,1862,4095
2204,1920,4095
2271,1921,4095
2367,2020,4095
2288,2087,4095
2243,1907,4075
2237,2038,4087
2255,1994,4029
2259,1950,3906
2246,1962,3966
2331,2114,3973
2256,1985,3789
2173,1832,3708
2234,1965,3711
2331,2021,3751
2256,2019,3596
2186,1889,3547
2222,1920,3527
2255,1810,3557
2297,2022,3480
2321,2171,3411
2230,2097,3409
2194,1934,3458
2298,1805,3485
2307,1878,3278
2192,2057,3267
2173,2034,3201
2194,1725,3165
2339,2015,3399
2332,2035,3170
2138,1899,3009
2142,1849,3067
2242,1895,3094
2462,2096,3120
2267,2052,2933
2123,1893,2914
2143,1910,2925
2314,1968,2939
2356,2191,2986
2211,1797,2759
2137,1821,2787
2182,1906,2859
2238,1857,2760
2256,1889,2766
2240,2039,2753
2195,2002,2692
2261,2117,2726
2245,2089,2623
2187,2020,2611
2169,2038,2669
2270,2182,2641
2383,1998,2559
2177,2057,2447
2087,2167,2483
2156,2241,2416
2243,2315,2502
2269,2331,2437
2191,2316,2394
2206,2349,2448
2201,2339,2391
2226,2383,2306
2288,2535,2335
2136,2371,2163
2124,2513,2269
2160,2671,2283
2189,2629,2191
2195,2610,2200
2194,2640,2183
2238,2798,2111
2193,2736,2131
2147,2673,2203
2115,2711,2070
2128,2778,1990
2137,2688,1988
2165,2704,2055
2163,2800,2032
2137,2876,1939
2102,2791,1893
2133,2781,1910
2129,2800,1890
2118,2847,1872
2125,2875,1888
2128,2864,1839
2099,2849,1846
2077,2834,1792
2097,2907,1799
2129,2974,1811
2111,2992,1779
2110,3133,1789
2089,3043,1669
2057,2919,1712
2060,2965,1736
2061,3019,1669
2074,3024,1646
2104,3015,1696
2084,3025,1635
2076,3009,1632
2071,2992,1587
2070,2941,1653
2064,2915,1635
2046,2889,1626
2037,2873,1532
2068,2877,1558
2070,2891,1531
2057,2811,1494
2055,2789,1488
2092,2797,1614
2109,2798,1532
2063,2735,1455
2026,2704,1426
2061,2709,1456
2046,2654,1439
2039,2623,1407
2071,2634,1424
2074,2621,1446
2061,2591,1462
2069,2592,1413
2082,2559,1425
2096,2559,1375
2039,2477,1404
2000,2416,1318
2034,2414,1400
2094,2415,1413
2128,2419,1406
2094,2384,1360
2001,2298,1314
2005,2268,1271
2045,2253,1345
2046,2267,1359
2034,2224,1285
2047,2178,1296
2023,2145,1283
2010,2178,1264
2064,2298,1359
2075,2271,1329
2047,2330,1318
2023,2544,1261
1973,2475,1186
1987,2595,1261
2021,2829,1342
1941,2961,1174
1910,3152,1138
1945,3479,1183
1968,4028,1207
1962,4095,1165
1929,4095,1133
1923,4095,1167
1962,4095,1210
2037,4095,1149
2001,4095,1109
1792,4095,1059
1793,4095,1123
1821,4095,1022
1782,4095,1093
1842,4095,1125
1872,4095,1121
1793,4095,1070
1776,4095,1078
1764,4095,976
1712,4095,934
1640,4095,911
1757,4095,1023
1942,4095,1199
1886,4095,1184
1687,4095,944
1810,4095,1079
1680,4095,905
1559,4095,835
1638,4095,850
1746,4095,961
1711,4095,945
1585,4095,918
1534,4095,937
1657,4095,950
1735,4095,985
1712,4095,1015
1742,4095,1023
1728,4095,1007
1739,4095,943
1817,4095,966
1615,4095,1038
1494,4095,1041
1533,4095,944
1642,4095,897
1629,4095,896
1562,4095,909
1511,4095,947
1521,4095,947
1535,4095,913
1659,4095,1021
1712,4007,1072
1511,3537,886
1450,3357,789
1470,3289,882
1558,3298,1017
1599,3251,1035
1629,3201,994
1616,3106,986
1531,2996,993
1535,2931,1061
1658,2895,1131
1691,2844,1150
1581,2755,957
1523,2688,918
1622,2643,993
1619,2581,1071
1630,2526,1051
1607,2466,1099
1584,2413,1094
1717,2387,1130
1648,2296,1064
1627,2259,1129
1670,2222,1182
1765,2170,1141
1616,2096,1157
1638,2031,1178
1637,1965,1170
1711,1895,1121
1772,1885,1203
1664,1818,1222
1657,1812,1249
1711,1787,1217
1663,1668,1185
1667,1635,1261
1754,1669,1408
1799,1667,1292
1712,1499,1165
1648,1424,1170
1646,1417,1229
1761,1451,1329
1712,1392,1326
1716,1366,1299
1777,1390,1335
1728,1310,1358
1719,1280,1357
1774,1293,1373
1726,1236,1329
1710,1179,1359
1769,1195,1369
1680,1151,1301
1699,1098,1302
1664,1085,1389
1795,1105,1474
1757,1132,1424
1730,1086,1335
1728,1003,1362
1767,994,1420
1730,976,1449
1699,926,1423
1739,945,1462
1799,976,1492
1837,976,1514
1750,885,1471
1707,880,1358
1747,896,1399
1835,912,1478
1779,870,1482
1698,827,1493
1757,831,1519
1760,892,1498
1695,821,1423
1659,750,1488
1795,795,1562
1749,834,1519
1742,783,1488
1726,755,1529
1805,754,1559
1738,769,1522
1753,785,1513
1744,803,1535
1700,743,1575
1735,721,1603
1694,742,1594
1735,734,1503
1755,752,1553
1709,754,1569
1763,757,1584
1711,689,1535
1711,741,1638
1776,734,1692
1683,674,1517
1712,679,1503
1755,633,1600
1703,659,1605
1680,707,1585
1765,723,1637
1744,651,1653
1724,643,1647
1738,631,1649
1726,589,1617
1691,678,1598
1691,697,1598
1726,659,1616
1774,624,1678
1783,655,1712
1731,635,1624
1680,619,1584
1739,626,1622
1727,629,1665
1709,657,1697
1691,671,1687
1712,660,1703
1755,704,1807
1774,703,1728
1670,676,1627
1674,579,1646
1744,603,1708
1741,599,1679
1705,624,1670
1697,682,1728
1799,683,1756
1695,656,1732
1703,675,1689
1758,705,1703
1780,702,1767
1712,667,1741
1677,656,1699
1725,670,1726
1749,727,1777
1723,732,1769
1693,716,1717
1712,687,1810
1744,704,1743
1742,695,1682
1719,683,1680
1712,704,1722
1723,730,1771
1775,739,1792
1743,738,1751
1732,727,1761
1751,746,1781
1739,740,1771
1680,732,1735
1743,766,1775
1769,784,1823
1741,762,1807
1717,765,1758
1733,784,1783
1759,787,1821
1783,825,1819
1747,784,1789
1711,773,1764
1767,791,1789
1734,816,1809
1712,867,1794
1735,839,1791
1795,822,1815
1743,843,1822
1798,858,1795
1709,882,1809
1779,892,1845
1770,912,1828
1675,922,1797
1715,918,1795
1691,942,1859
1743,916,1842
1727,951,1789
1741,976,1823
1771,979,1862
1787,1018,1872
1785,1142,1856
1771,1057,1845
1773,894,1842
1761,915,1849
1781,1179,1872
1833,1313,1879
1810,1360,1847
1742,1009,1832
1747,864,1863
1782,1014,1855
1735,983,1869
1731,1114,1865
1776,1142,1887
1885,1360,1963
1831,1262,1894
1691,935,1872
1702,956,1778
1745,1094,1866
1956,1399,1951
1815,1503,1926
1609,1076,1820
1663,915,1879
1808,974,1987
1833,1306,1875
1744,1335,1835
1778,1471,1983
1841,1431,2032
1841,1270,2023
1749,1081,1894
1711,1063,1883
1769,1328,1967
1791,1421,2001
1803,1514,1969
1813,1513,2021
1793,1235,1969
1803,1122,2029
1839,1328,2000
1859,1437,2060
1838,1387,2061
1856,1309,2112
1836,1455,2064
1826,1488,2055
1851,1472,2200
1868,1362,2179
1869,1464,2112
1871,1729,2061
1840,1475,2017
1856,1389,2065
1894,1464,2090
1920,1681,2043
1841,1491,1893
1847,1511,2174
1904,1403,2193
2047,1442,2097
1905,1615,2103
1755,1522,2033
1787,1482,2027
2027,1775,2174
2064,1711,2159
1797,1383,1998
1737,1328,2039
1819,1456,2126
1926,1626,2125
1923,1605,2133
1850,1504,2092
1862,1627,2032
1872,1535,2013
1934,1598,2143
1947,1822,2124
1829,1613,1919
1893,1743,2111
1906,1674,2096
1949,1762,2046
1919,1767,1926
1913,2042,2190
1893,1838,2223
1809,1603,1990
1863,1791,2010
1899,2030,1965
2016,2017,2096
2112,2064,1931
1840,2078,2039
1717,1942,2128
1831,2063,2110
1855,2065,1985
1959,2297,2101
1979,2367,2137
1859,2140,1906
1811,2455,1971
1851,2352,2060
1872,2318,2018
1905,2454,1977
1840,2323,1915
1936,2519,2011
1982,2559,2043
1810,2338,1917
1811,2362,1905
1878,2719,1936
1889,2640,2086
1892,2596,2067
1840,2529,1871
1823,2703,1926
1844,2658,2058
1904,2673,1914
1914,2976,1818
2212,3043,2082
1772,2912,2047
1597,2601,1908
1751,2717,1867
1968,2857,1915
2022,3106,1845
1818,2897,1860
1679,2711,1981
1755,2751,1947
1850,2862,1827
1893,2814,1891
1870,2865,1795
1838,3093,1895
1781,2800,1936
1812,2722,1858
1748,2685,1843
1809,2889,1879
1823,2967,1855
1793,2814,1807
1806,2875,1889
2064,3090,1856
1966,2986,1808
1661,2743,1831
1680,2715,1920
1808,2884,1952
1880,2949,1893
1936,2952,1941
1811,2981,1646
1746,2837,1742
1802,2869,1918
1825,2883,1876
1819,2914,1840
1797,2947,1725
1846,2927,1825
1841,2960,1872
1824,3004,1822
1826,2867,1795
1859,2918,1842
1869,2955,1840
1849,2946,1778
1879,3151,1845
1862,3099,1777
1845,2997,1787
1846,2939,1779
1873,3063,1783
1888,3177,1811
1887,3209,1857
1847,3197,1808
1839,3254,1853
1872,3284,1858
1882,3243,1836
1858,3159,1818
1872,3247,1811
1900,3295,1840
1892,3163,1833
1872,3085,1789
1895,3120,1808
1920,3152,1847
1936,3196,1858
1937,3167,1841
1927,3083,1824
1911,3059,1818
1952,3115,1837
2006,3121,1879
2006,3133,1883
1931,3050,1816
1909,2977,1797
1968,3082,1825
2010,3056,1875
1942,2987,1842
1904,2902,1801
1904,2921,1787
1959,2892,1828
2054,2925,1910
2083,2898,1936
2046,2871,1892
1983,2784,1831
1931,2656,1782
1914,2592,1776
1953,2638,1789
2032,2639,1843
2121,2672,1933
2116,2662,1906
1904,2458,1728
1846,2395,1727
1945,2443,1831
2033,2513,1883
2101,2518,1901
2155,2513,1969
2099,2432,1945
1885,2282,1724
2000,2345,1776
2036,2287,1803
1927,2186,1791
2025,2287,1894
2018,2243,1834
2089,2259,1804
2177,2241,1747
1872,2196,1773
1775,2079,1776
1946,2145,1808
2011,2224,1818
1955,2172,1843
1936,2224,1808
1889,2112,1759
1904,2173,1754
1974,2149,1776
2075,2285,1849
1925,2196,1757
1931,2192,1745
2101,2317,1886
1840,2141,1682
1789,2160,1589
1904,2215,1734
1914,2273,1767
1959,2240,1757
1978,2247,1711
1939,2209,1717
1761,2113,1676
1715,2074,1583
1904,2155,1653
2055,2231,1721
1841,2151,1615
1776,2099,1628
1886,2105,1659
1794,2167,1685
1684,2159,1703
1726,2125,1645
1770,2117,1629
1818,2107,1665
1828,2132,1667
1813,2106,1649
1875,2098,1663
1744,1994,1631
1670,1986,1589
1680,1998,1582
1760,1959,1611
1793,1872,1651
1790,1975,1590
1754,1937,1517
1763,1916,1531
1808,1922,1633
1750,1889,1671
1731,1874,1643
1763,1872,1631
1787,1869,1626
1771,1821,1615
1762,1785,1557
1761,1785,1583
1746,1730,1606
1754,1747,1607
1714,1707,1535
1744,1699,1618
1776,1680,1705
1806,1677,1641
1780,1708,1531
1769,1644,1583
1791,1616,1651
1841,1653,1717
1782,1580,1645
1719,1507,1520
1766,1504,1600
1904,1648,1766
1899,1535,1709
1660,1434,1535
1744,1447,1667
1777,1418,1618
1677,1327,1518
1674,1385,1584
1761,1421,1693
1819,1317,1699
1776,1319,1650
1751,1283,1649
1790,1339,1701
1799,1347,1685
1806,1308,1651
1789,1270,1680
1829,1330,1746
1898,1392,1758
1841,1311,1718
1715,1152,1639
1670,1141,1643
1784,1322,1616
1795,1350,1665
1762,1232,1712
1796,1225,1748
1808,1276,1674
1797,1177,1664
1789,1166,1726
1777,1215,1738
1773,1333,1712
1777,1343,1690
1783,1072,1707
1799,1168,1748
1801,1162,1744
1791,1157,1725
1881,1303,1857
1851,1196,1846
1746,1279,1709
1706,1124,1627
1767,970,1694
1872,1150,1841
1833,1235,1799
1677,1103,1600
1711,1131,1678
1797,1168,1813
1808,1158,1815
1791,1200,1798
1840,1333,1825
1841,1296,1751
1726,1067,1745
1706,1035,1739
1776,1130,1774
1810,1227,1793
1829,1221,1801
1749,1114,1687
1765,1182,1791
1826,1183,1879
1867,1219,1909
1822,1174,1863
1749,1236,1759
1744,1270,1681
1761,1146,1729
1791,1123,1814
1823,1195,1926
1808,1282,1833
1805,1319,1804
1779,1241,1778
1749,1158,1782
1769,1198,1799
1862,1328,1874
1851,1413,1853
1802,1361,1827
1811,1420,1851
1755,1213,1793
1794,1217,1857
1827,1264,1917
1825,1255,1856
1834,1310,1872
1837,1266,1874
1851,1350,1891
1838,1344,1915
1807,1392,1915
1776,1387,1804
1763,1233,1805
1792,1302,1857
1806,1393,1885
1793,1366,1855
1806,1343,1892
1865,1380,2013
1856,1424,1922
1867,1467,1831
1811,1461,1785
1819,1408,1891
1801,1381,1918
1807,1423,1905
1823,1471,1885
1833,1439,1909
1825,1469,1921
1825,1499,1914
1840,1426,1937
1855,1410,1966
1805,1424,1909
1787,1475,1888
1822,1487,1936
1845,1488,1927
1856,1534,1904
1835,1535,1875
1867,1573,1942
1824,1562,1951
1813,1599,1955
1808,1429,1874
1830,1470,1871
1851,1568,1904
1840,1535,1961
1829,1535,1925
1865,1604,1952
1827,1575,1931
1837,1573,1935
1830,1582,1926
1847,1577,1945
1867,1591,1918
1847,1580,1910
1826,1603,1909
1875,1616,1941
1880,1602,1974
1899,1671,2064
1831,1682,1934
1807,1658,1870
1856,1773,1913
1865,1618,1977
1861,1594,1978
1904,1657,1973
1870,1689,1974
1840,1718,1939
1827,1774,1951
1853,1694,1940
1873,1648,1943
1883,1675,1955
1853,1723,1904
1873,1745,1948
1899,1777,2010
1889,1742,2006
1851,1721,1930
1865,1706,1937
1894,1771,2018
1857,1769,1945
1840,1723,1890
1879,1741,1954
1899,1803,2034
1883,1781,2006
1865,1840,1904
1870,1856,1904
1891,1762,1950
1904,1724,1962
1874,1763,1947
1872,1858,1966
1890,1863,1978
1862,1795,1939
1869,1789,1935
1882,1769,1949
1866,1808,1934
1845,1818,1936
1856,1818,1960
1895,1899,1968
1903,1838,1953
1877,1785,1915
1857,1783,1919
1871,1834,1971
1915,1867,2004
1883,1857,1896
1865,1847,1872
1852,1859,1907
1887,1887,1974
1919,1961,2006
1886,1989,1925
1861,1853,1929
1880,1836,2006
1905,1808,1953
1902,1841,1934
1856,1856,1915
1856,1915,1942
1867,1894,1947
1840,1915,1872
1858,1872,1872
1893,1837,1957
1886,1890,1994
1866,1915,1930
1851,1894,1905
1890,1948,1969
1887,2011,2014
1866,1904,2022
1869,1819,1893
1872,1875,1893
1871,1902,1977
1850,1876,1958
1861,1894,1894
1888,1936,1970
1891,1968,1887
1849,1872,1886
1850,1862,1987
1861,1943,1936
1885,1999,1909
1862,2000,1974
1822,1958,1894
1828,1841,1846
1833,1802,1914
1821,1839,1904
1877,1889,1964
1955,1965,2002
1858,1898,1910
1804,1915,1866
1845,1986,1965
1902,1974,1936
1862,1847,1877
1833,1843,1858
1826,1911,1897
1858,1909,1936
1878,1915,1956
1859,1938,1957
1855,1940,1959
1857,1903,1897
1890,1933,1946
1886,1994,1957
1832,1905,1906
1826,1893,1978
1849,1879,1926
1853,1920,1861
1879,1998,1907
1883,1936,1945
1872,1883,1914
1881,1953,1889
1849,1794,1852
1874,1811,1907
1831,1883,2005
1806,1962,1899
1852,1966,1854
1923,1915,1943
1901,1840,1962
1856,1886,1899
1818,1947,1888
1835,1877,1911
1871,2006,1950
1873,1954,1953
1872,1904,1887
1874,1958,1964
1869,1908,1907
1818,1791,1791
1851,1809,1878
1947,2011,2000
1884,2041,1887
1853,1941,1845
1868,1791,1900
1823,1683,1874
1819,1773,1891
1830,1856,1936
1872,1918,1899
1917,1920,1933
1879,1921,1881
1849,1866,1847
1863,1859,1877
1886,1888,1955
1857,1872,1873
1830,1856,1827
1850,1914,1894
1899,1961,1974
1856,1879,1904
1821,1830,1850
1851,1857,1937
1872,2011,1936
1843,1883,1902
1829,1768,1879
1863,1830,1935
1879,1817,1930
1890,1869,1933
1938,2010,1883
1847,1975,1808
1842,1819,1905
1850,1745,1824
1787,1749,1792
1825,1838,1867
1905,1873,1991
1899,1812,1926
1868,1839,1858
1874,1911,1853
1902,1914,1936
1871,1920,1854
1819,1805,1823
1845,1771,1894
1894,1893,1950
1891,1885,1932
1870,1869,1847
1865,1893,1871
1923,1874,1942
1883,1899,1891
1787,1795,1776
1789,1789,1808
1883,1885,1958
1904,1904,1894
1871,1966,1847
1868,1879,1831
1873,1744,1911
1889,1857,1891
1863,1925,1938
1851,1795,1829
1856,1776,1822
1854,1839,1857
1858,1877,1830
1859,1889,1856
1904,1982,1893
1947,2128,1877
1831,1803,1786
1811,1651,1856
1866,1806,1951
1903,1981,1909
1900,1984,1954
1873,1898,1869
1879,1838,1872
1901,1817,1949
1886,1872,1872
1879,2058,1844
1904,2023,1826
1901,1863,1842
1835,1708,1838
1840,1757,1895
1904,1880,1941
1882,1843,1904
1870,1877,1829
1890,1899,1887
1933,1920,1923
1846,1879,1827
1840,1902,1834
1872,1927,1919
1936,1987,1965
1891,1911,1863
1861,1895,1840
1875,1884,1877
1904,1899,1918
1875,1841,1841
1866,1895,1785
1887,1935,1914
1904,1927,1881
1895,1893,1872
1869,1875,1838
1917,1981,1899
1887,1825,1859
1870,1819,1950
1872,1940,1936
1927,1935,1859
1894,1809,1904
1843,1856,1843
1859,1906,1819
1927,1931,1895
1879,1921,1883
1851,1915,1863
1866,1952,1823
1893,1903,1949
1902,1930,1906
1878,1870,1827
1861,1858,1882
1893,1902,1904
1933,1946,1904
1889,1979,1863
1897,2002,1915
1871,1868,1882
1874,1842,1889
1922,1919,1940
1889,1925,1846
1871,1878,1840
1937,1959,2015
1968,2013,1919
1850,1875,1775
1847,1847,1817
1904,1945,1922
1907,1970,1999
1871,1877,1857
1881,1889,1817
1925,1917,1870
1936,1922,1863
1856,1913,1842
1887,1933,1906
1920,1985,1946
1885,1936,1937
1862,1902,1833
1907,1997,1875
1893,1871,1872
1883,1845,1877
1925,1921,1863
1874,1978,1882
1925,1953,1904
1940,1967,1903
1902,1991,1871
1869,1904,1868
1873,1887,1943
1901,1920,1910
1933,2066,1839
1905,1977,1785
1936,1872,1947
1895,1915,1895
1873,1930,1853
1878,1914,1845
1933,1991,1917
1911,1922,1873
1895,1904,1895
1908,1930,1895
1953,2032,1973
1921,1968,1955
1837,1947,1805
1886,1964,1792
1907,1999,1890
1936,1968,1883
1894,1923,1874
1894,1875,1841
1913,1904,1871
1895,1943,1877
1904,1968,1871
1957,2032,1909
1945,1986,1906
1895,1935,1904
1869,1932,1839
1917,1994,1869
1957,1998,1889
1921,2032,1872
1875,2055,1891
1919,1867,1881
1955,1875,1844
1870,2025,1862
1857,1982,1915
1891,1995,1879
1870,2053,1881
1863,1925,1867
1857,1795,1823
1887,1906,1891
1917,2010,1931
1893,1986,1874
1927,1952,1868
1891,2007,1861
1961,1994,1875
1919,1953,1902
1937,2010,1869
1951,2097,1921
1846,2114,1936
1920,2014,1852
1812,1827,1766
1889,1872,1823
1938,1997,1902
1920,2119,1919
1867,1959,1797
1849,1933,1821
1865,2018,1893
1936,2090,1870
1854,1907,1763
1894,1942,1835
1871,2000,1856
1885,2003,1850
1907,1991,1871
1954,2003,1887
1935,2011,1907
1909,2009,1872
1867,2101,1844
1915,2112,1900
1881,1979,1838
1873,1883,1855
1905,1999,1856
1892,2055,1845
1904,2011,1870
1918,1963,1830
1903,1961,1839
1908,1969,1836
1843,2019,1911
1908,2034,1883
1927,1998,1849
1877,1963,1895
1890,2000,1855
1922,2055,1877
1921,2087,1877
1883,2028,1859
1910,2003,1857
1898,2000,1824
1868,2007,1818
1866,2032,1831
1911,2055,1870
1897,2014,1847
1870,2014,1862
1872,2082,1893
1914,2085,1904
1906,1990,1845
1903,2059,1852
1883,1983,1826
1883,2041,1854
1892,2091,1862
1827,2002,1792
1855,1985,1805
1910,2012,1862
1881,2069,1893
1806,2047,1829
1893,2047,1845
1865,2036,1901
1877,2063,1903
1926,2037,1898
1845,2062,1871
1898,2059,1871
1840,1997,1793
1835,2020,1810
1872,2067,1856
1920,2037,1867
1898,2042,1839
1869,2047,1776
1961,2059,1860
1930,2104,1855
1871,2016,1841
1883,1961,1832
1875,2018,1878
1883,2075,1841
1847,2033,1856
1873,2037,1854
1903,2045,1923
1904,2021,1915
1863,2033,1775
1855,2000,1743
1899,1995,1836
1887,1962,1870
1867,2004,1829
1874,2045,1825
1917,2053,1915
1911,2036,1904
1889,2027,1822
1869,1936,1779
1872,1961,1837
1855,2047,1923
1905,2080,1871
1879,2054,1822
1957,2021,1839
1882,1953,1830
1877,2020,1849
1865,2019,1830
1884,2035,1877
1931,2039,1886
1863,1925,1847
1824,1915,1869
1886,1989,1879
1889,2034,1869
1906,2000,1870
1879,2022,1799
1893,2088,1843
1887,1957,1856
1871,1907,1858
1872,2017,1859
1902,1994,1868
1905,1939,1863
1927,1942,1901
1890,1959,1869
1846,1957,1834
1885,2023,1854
1905,2015,1891
1873,1945,1829
1909,1957,1861
1896,1978,1846
1908,1962,1885
1842,1935,1813
1859,1947,1808
1904,1951,1885
1885,1953,1861
1853,1939,1859
1882,1975,1878
1898,2007,1933
1898,1937,1906
1872,1847,1776
1872,1905,1829
1913,1961,1911
1901,1936,1904
1857,1947,1819
1858,1915,1790
1888,1904,1832
1902,1947,1856
1909,2017,1872
1881,1920,1854
1885,1885,1883
1883,1909,1855
1872,1909,1856
1882,1917,1855
1928,1997,1895
1919,1991,1903
1871,1904,1877
1842,1840,1795
1869,1911,1844
1893,1917,1904
1874,1845,1840
1863,1886,1792
1881,1971,1863
1877,1891,1919
1903,1871,1888
1869,1862,1840
1898,1901,1906
1889,1899,1858
1863,1858,1845
1869,1887,1840
1886,1918,1905
1896,1910,1876
1926,1955,1887
1914,1922,1871
1862,1877,1839
1838,1877,1825
1871,1893,1845
1903,1995,1875
1936,1985,1910
1887,1841,1867
1870,1823,1818
1859,1864,1837
1888,1840,1912
1905,1871,1969
1874,1891,1839
1881,1866,1792
1907,1878,1838
1873,1867,1852
1862,1886,1827
1910,1931,1867
1878,1904,1871
1875,1881,1886
1891,1865,1847
1881,1858,1831
1871,1843,1867
1872,1851,1878
1887,1892,1840
1895,1940,1841
1929,1926,1877
1905,1840,1855
1862,1831,1866
1872,1877,1886
1895,1858,1840
1876,1863,1843
1869,1896,1855
1879,1891,1849
1893,1877,1936
1895,1899,1971
1869,1872,1774
1894,1856,1794
1890,1882,1863
1860,1851,1833
1875,1841,1808
1904,1867,1868
1865,1869,1856
1876,1861,1856
1895,1866,1841
1904,1871,1875
1904,1883,1918
1910,1920,1898
1868,1873,1833
1872,1834,1857
1887,1879,1823
1906,1880,1874
1869,1808,1863
1842,1855,1853
1882,1890,1872
1891,1839,1860
1874,1795,1833
1853,1849,1843
1911,1911,1927
1878,1856,1877
1843,1793,1806
1854,1826,1814
1891,1865,1898
1907,1902,1955
1883,1868,1831
1882,1872,1838
1859,1855,1840
1881,1840,1849
1925,1875,1926
1878,1827,1876
1842,1789,1797
1840,1798,1838
1870,1863,1855
1881,1863,1840
1881,1823,1904
1879,1827,1905
1894,1868,1837
1878,1867,1808
1926,1887,1872
1851,1831,1842
1831,1811,1879
1839,1824,1828
1904,1852,1863
1902,1881,1869
1869,1838,1841
1854,1796,1854
1882,1849,1955
1886,1853,1905
1882,1840,1789
1857,1843,1805
1909,1849,1907
1872,1835,1825
1889,1815,1838
1875,1777,1872
1866,1833,1903
1866,1809,1843
1865,1803,1807
1872,1843,1833
1853,1876,1875
1841,1830,1845
1851,1835,1808
1849,1857,1840
1889,1935,1907
1872,1845,1853
1855,1803,1808
1858,1847,1847
1854,1862,1867
1899,1872,1893
1845,1797,1838
1843,1827,1874
1881,1857,1935
1883,1850,1865
1858,1874,1814
1851,1849,1824
1856,1840,1857
1863,1808,1859
1847,1842,1842
1874,1861,1872
1879,1824,1871
1861,1857,1807
1867,1786,1808
1874,1783,1853
1887,1855,1902
1888,1872,1899
1863,1863,1823
1865,1841,1842
1875,1840,1874
1894,1825,1880
1872,1814,1837
1876,1855,1867
1897,1899,1955
1891,1854,1885
1873,1802,1795
1872,1873,1814
1890,1843,1879
1894,1840,1904
1872,1872,1847
1840,1876,1835
1866,1800,1856
1891,1862,1863
1891,1822,1809
1890,1833,1856
1904,1849,1883
1887,1878,1894
1841,1853,1860
1859,1826,1827
1891,1988,1850
1925,1871,1893
1882,1751,1826
1879,1747,1847
1852,1763,1823
1872,1815,1873
1869,1822,1830
1863,1904,1821
1895,1904,1887
1894,1839,1876
1866,1786,1851
1874,1998,1846
1948,2112,1936
1888,1728,1821
1858,1776,1833
1869,1877,1887
1877,1817,1869
1876,1698,1853
1872,1777,1850
1863,1850,1808
1886,1823,1847
1862,1775,1858
1817,1835,1851
1845,1811,1791
1872,1819,1809
1872,1897,1871
1871,1904,1833
1872,1934,1826
1865,1910,1932
1871,2010,1913
1866,2039,1830
1855,2106,1815
1859,2023,1796
1857,2071,1815
1824,2139,1791
1830,2218,1819
1866,2274,1894
1839,2261,1861
1852,2322,1824
1846,2351,1802
1825,2301,1813
1847,2327,1854
1812,2346,1808
1845,2447,1811
1858,2474,1872
1827,2439,1793
1809,2419,1735
1824,2463,1808
1840,2465,1835
1859,2544,1854
1833,2553,1782
1856,2591,1849
1833,2630,1898
1819,2559,1776
1775,2643,1693
1799,2592,1758
1830,2659,1842
1845,2723,1814
1809,2605,1744
1795,2559,1767
1817,2641,1818
1840,2734,1835
1812,2629,1788
1809,2678,1776
1827,2669,1799
1861,2819,1925
1807,2701,1792
1786,2646,1712
1808,2625,1736
1823,2694,1806
1807,2688,1837
1814,2647,1835
1831,2589,1763
1851,2651,1765
1808,2559,1725
1808,2633,1751
1810,2625,1817
1809,2559,1814
1807,2656,1791
1831,2716,1857
1837,2624,1805
1825,2559,1777
1814,2588,1774
1848,2583,1798
1841,2580,1790
1824,2508,1808
1793,2498,1776
1809,2539,1808
1855,2559,1841
1872,2646,1854
1839,2466,1798
1840,2544,1815
1840,2484,1847
1825,2421,1810
1815,2375,1760
1851,2417,1810
1859,2487,1872
1840,2485,1855
1843,2446,1812
1872,2439,1787
1872,2336,1842
1859,2448,1845
1827,2391,1808
1838,2366,1807
1882,2384,1861
1885,2430,1853
1876,2445,1847
1886,2469,1856
1903,2335,1884
1863,2240,1830
1818,2302,1811
1860,2433,1936
1906,2354,1856
1881,2257,1810
1859,2255,1803
1901,2310,1868
1920,2320,1888
1891,2326,1856
1871,2257,1878
1851,2185,1829
1883,2235,1877
1885,2236,1919
1922,2274,1877
1914,2294,1899
1865,2160,1846
1856,2192,1853
1875,2162,1867
1906,2191,1903
1915,2238,1863
1879,2187,1859
1855,2098,1829
1865,2128,1859
1918,2207,1899
1883,2109,1834
1897,2130,1873
1847,2122,1862
1859,2134,1859
1879,2161,1856
1888,2192,1863
1903,2197,1923
1916,2147,1947
1872,2090,1889
1872,2113,1830
1873,2109,1857
1899,2127,1937
1943,2221,1914
1906,2224,1837
1861,2160,1863
1878,2105,1881
1919,2135,1871
1934,2139,1869
1922,2205,1889
1875,2099,1902
1889,2102,1889
1907,2099,1892
1931,2197,1904
1915,2285,1917
1885,2215,1856
1840,2082,1790
1891,2094,1867
1914,2190,1923
1906,2194,1936
1915,2214,1911
1872,2097,1827
1892,2112,1872
1909,2193,1904
1908,2170,1881
1905,2163,1869
1895,2157,1894
1903,2165,1922
1875,2094,1873
1911,2151,1876
1911,2189,1872
1904,2170,1853
1906,2207,1891
1907,2190,1935
1889,2032,1872
1894,2071,1878
1890,2117,1876
1877,2111,1861
1920,2158,1885
1927,2129,1895
1898,2113,1905
1872,2064,1883
1882,2114,1868
1912,2107,1873
1904,2029,1857
1895,2047,1872
1950,2179,1954
1899,2092,1862
1865,2003,1827
1905,2055,1892
1946,2161,1939
1949,2132,1890
1883,2012,1882
1887,2000,1921
1880,2019,1827
1895,2032,1877
1890,2011,1807
1885,2047,1799
1935,2096,1910
1920,1991,1921
1890,1969,1886
1904,2010,1842
1911,2007,1857
1901,1963,1889
1894,1926,1872
1920,1983,1902
