1847,1858,1847
1804,1813,1794
1892,1845,1831
1887,1889,1871
1862,1865,1843
1872,1815,1824
1803,1813,1834
1904,1875,1863
1831,1890,1842
1853,1840,1856
1923,1837,1849
1888,1870,1839
1856,1859,1845
1835,1815,1830
1883,1847,1845
1909,1893,1861
1792,1856,1815
1872,1838,1828
1878,1827,1833
1892,1861,1874
1866,1849,1856
1808,1793,1771
1842,1828,1786
1899,1883,1858
1863,1862,1843
1846,1826,1823
1872,1840,1902
1900,1871,1872
1895,1857,1809
1952,1861,1803
1840,1855,1822
1811,1861,1872
1814,1855,1830
1867,1814,1776
1827,1836,1837
1895,1872,1901
1851,1866,1847
1790,1814,1795
1850,1835,1810
1865,1879,1867
1857,1860,1809
1870,1825,1791
1914,1839,1819
1942,1886,1882
1962,1877,1872
1856,1840,1857
1859,1834,1840
1855,1862,1815
1858,1850,1792
1795,1821,1818
1889,1872,1881
1909,1904,1873
1844,1862,1826
1852,1835,1813
1907,1859,1849
1907,1888,1872
1863,1871,1847
1846,1853,1809
1920,1853,1854
1904,1840,1879
1783,1843,1847
1802,1850,1799
1859,1859,1828
1917,1893,1872
1904,1891,1857
1840,1840,1803
1861,1856,1857
1886,1863,1872
1862,1856,1835
1865,1862,1821
1885,1869,1872
1866,1867,1875
1841,1856,1825
1856,1846,1836
1895,1859,1838
1959,1894,1863
1903,1873,1856
1913,1847,1786
1899,1878,1840
1893,1883,1872
1881,1856,1842
1858,1829,1835
1857,1853,1833
1902,1877,1872
1874,1872,1855
1863,1854,1823
1890,1874,1861
1899,1888,1878
1873,1863,1840
1840,1844,1797
1874,1872,1831
1919,1890,1887
1894,1872,1870
1856,1845,1821
1872,1840,1840
1919,1877,1878
1918,1869,1870
1826,1819,1792
1840,1838,1829
1907,1891,1905
1895,1858,1863
1856,1818,1815
1883,1843,1843
1909,1875,1891
1878,1867,1871
1840,1846,1834
1866,1858,1821
1911,1903,1871
1875,1839,1881
1847,1823,1823
1871,1861,1809
1909,1891,1859
1907,1882,1865
1856,1831,1806
1893,1861,1863
1906,1890,1893
1887,1878,1860
1854,1833,1850
1856,1860,1886
1904,1897,1888
1913,1919,1873
1863,1827,1838
1861,1823,1847
1885,1882,1869
1891,1879,1853
1840,1841,1817
1874,1874,1860
1916,1907,1905
1897,1874,1873
1884,1866,1850
1856,1846,1840
1888,1874,1853
1863,1865,1846
1861,1854,1844
1890,1871,1871
1921,1915,1904
1867,1870,1845
1841,1825,1805
1887,1872,1851
1897,1894,1891
1861,1878,1861
1858,1852,1868
1888,1858,1862
1918,1895,1869
1893,1881,1871
1871,1854,1857
1889,1871,1872
1893,1905,1876
1870,1869,1862
1865,1833,1830
1895,1859,1866
1920,1913,1875
1882,1867,1844
1854,1841,1808
1883,1871,1836
1919,1914,1899
1881,1856,1872
1840,1825,1839
1871,1863,1849
1907,1880,1891
1875,1856,1855
1860,1846,1815
1902,1874,1858
1918,1892,1895
1887,1893,1861
1855,1859,1823
1867,1872,1843
1925,1914,1899
1872,1885,1837
1851,1839,1834
1878,1831,1868
1893,1872,1883
1890,1878,1856
1866,1850,1821
1878,1863,1858
1911,1902,1901
1872,1873,1868
1853,1849,1855
1858,1851,1825
1891,1901,1854
1878,1899,1854
1857,1863,1840
1871,1875,1840
1909,1895,1887
1899,1878,1889
1851,1855,1797
1871,1873,1807
1903,1903,1873
1895,1904,1885
1856,1893,1829
1872,1875,1845
1904,1894,1904
1889,1874,1881
1863,1877,1856
1882,1888,1857
1868,1885,1839
1851,1882,1851
1856,1856,1829
1895,1873,1842
1937,1912,1909
1875,1895,1872
1826,1846,1823
1861,1870,1859
1903,1936,1882
1904,1902,1855
1884,1850,1863
1885,1856,1894
1883,1895,1872
1872,1899,1851
1860,1891,1851
1885,1897,1874
1920,1911,1889
1903,1867,1856
1851,1840,1823
1865,1867,1843
1904,1907,1883
1901,1902,1875
1843,1846,1840
1883,1874,1870
1903,1909,1887
1872,1871,1841
1851,1843,1821
1878,1889,1862
1933,1936,1913
1902,1894,1863
1869,1830,1817
1870,1866,1855
1881,1904,1889
1885,1891,1879
1857,1857,1857
1873,1881,1900
1904,1949,1886
1867,1885,1843
1842,1845,1835
1872,1903,1853
1916,1911,1878
1885,1841,1868
1840,1891,1841
1872,1883,1857
1889,1887,1875
1870,1873,1857
1840,1871,1852
1876,1902,1861
1907,1919,1888
1872,1876,1851
1849,1831,1838
1853,1857,1859
1910,1918,1927
1885,1895,1856
1869,1904,1826
1883,1871,1892
1899,1869,1876
1862,1885,1833
1845,1863,1811
1884,1845,1865
1905,1935,1907
1873,1855,1873
1825,1826,1793
1874,1887,1871
1921,1903,1893
1895,1935,1872
1835,1873,1808
1859,1842,1840
1891,1906,1902
1869,1856,1840
1839,1860,1793
1882,1875,1855
1909,1906,1915
1878,1895,1862
1865,1813,1831
1872,1856,1797
1919,1899,1874
1898,1919,1899
1871,1876,1851
1872,1854,1834
1920,1954,1871
1870,1871,1840
1834,1872,1811
1840,1885,1792
1876,1917,1873
1867,1895,1877
1858,1891,1871
1891,1897,1889
1904,1936,1886
1872,1879,1854
1840,1855,1811
1884,1865,1840
1895,1869,1882
1879,1926,1863
1863,1853,1855
1888,1899,1846
1913,1936,1879
1865,1855,1831
1857,1858,1838
1866,1857,1842
1920,1905,1903
1874,1861,1872
1833,1856,1837
1842,1809,1835
1904,1898,1870
1901,1845,1870
1839,1840,1852
1837,1903,1831
1872,1837,1827
1867,1887,1829
1862,1840,1839
1878,1893,1852
1919,1889,1883
1871,1911,1843
1842,1840,1849
1887,1905,1877
1930,1918,1872
1862,1859,1808
1827,1799,1821
1849,1818,1827
1888,1911,1840
1866,1888,1825
1850,1790,1818
1889,1873,1840
1923,1911,1890
1887,1886,1865
1851,1882,1844
1882,1895,1865
1901,1988,1889
1873,1878,1846
1860,1866,1819
1870,1875,1822
1894,1901,1853
1891,1905,1843
1859,1881,1840
1867,1862,1851
1882,1872,1884
1843,1815,1791
1840,1866,1809
1881,1867,1885
1895,1914,1887
1869,1875,1825
1847,1823,1814
1856,1847,1841
1889,1913,1871
1885,1911,1845
1882,1901,1838
1941,1881,1918
1893,1857,1878
1859,1835,1830
1845,1868,1791
1889,1854,1841
1904,1905,1855
1863,1830,1838
1845,1841,1841
1891,1878,1859
1936,1895,1878
1904,1879,1863
1857,1839,1826
1881,1894,1842
1912,1918,1891
1876,1871,1847
1840,1875,1808
1897,1902,1849
1936,1905,1902
1904,1871,1871
1833,1840,1832
1842,1874,1845
1882,1860,1877
1893,1874,1874
1865,1829,1840
1860,1839,1841
1875,1898,1847
1861,1867,1845
1867,1868,1847
1878,1897,1883
1920,1899,1920
1903,1872,1872
1856,1871,1835
1866,1903,1841
1904,1871,1911
1872,1891,1872
1845,1927,1821
1842,1865,1810
1887,1915,1863
1881,1920,1887
1856,1791,1840
1870,1922,1841
1902,1918,1887
1871,1872,1847
1853,1902,1853
1871,1791,1875
1881,1914,1879
1865,1920,1863
1853,1853,1843
1889,1893,1865
1890,1904,1852
1844,1876,1808
1842,1840,1801
1867,1875,1842
1892,1909,1872
1869,1891,1870
1854,1867,1862
1899,1893,1885
1909,1904,1878
1867,1862,1849
1831,1867,1837
1879,1899,1842
1910,1921,1873
1886,1905,1850
1845,1856,1814
1860,1861,1863
1883,1895,1895
1879,1901,1860
1878,1872,1834
1872,1846,1819
1903,1891,1886
1877,1868,1853
1871,1856,1811
1882,1872,1858
1907,1922,1911
1859,1874,1872
1840,1831,1826
1872,1849,1842
1906,1903,1868
1885,1897,1859
1842,1895,1815
1857,1879,1825
1902,1856,1885
1887,1861,1871
1869,1855,1846
1883,1856,1855
1920,1893,1894
1864,1849,1834
1859,1837,1818
1879,1856,1872
1893,1893,1902
1853,1855,1836
1850,1821,1823
1872,1850,1839
1883,1886,1866
1873,1877,1808
1862,1842,1819
1904,1872,1914
1931,1917,1936
1872,1919,1825
1842,1822,1774
1879,1810,1831
1899,1850,1895
1884,1840,1850
1865,1813,1818
1871,1840,1822
1900,1883,1840
1888,1858,1852
1873,1822,1853
1881,1836,1861
1913,1897,1872
1885,1870,1815
1853,1828,1802
1897,1856,1840
1915,1904,1856
1886,1872,1840
1849,1826,1829
1894,1859,1838
1922,1857,1889
1875,1823,1856
1852,1809,1802
1875,1826,1823
1905,1871,1886
1878,1860,1835
1858,1827,1827
1875,1856,1847
1907,1878,1872
1873,1853,1851
1867,1846,1846
1887,1866,1863
1942,1888,1904
1898,1859,1865
1844,1833,1825
1872,1833,1855
1904,1877,1898
1877,1856,1836
1842,1840,1777
1870,1841,1831
1913,1872,1917
1878,1872,1882
1848,1826,1815
1886,1834,1843
1923,1875,1904
1895,1879,1859
1867,1853,1839
1878,1839,1870
1933,1879,1923
1886,1866,1840
1862,1837,1808
1883,1838,1846
1899,1875,1904
1898,1878,1872
1867,1853,1813
1857,1857,1838
1869,1861,1856
1857,1840,1841
1851,1855,1837
1902,1850,1872
1905,1842,1885
1877,1856,1854
1857,1856,1851
1875,1856,1868
1905,1875,1883
1875,1851,1866
1866,1830,1857
1872,1856,1855
1886,1899,1854
1869,1873,1842
1855,1836,1833
1872,1831,1857
1903,1886,1889
1895,1906,1911
1866,1874,1849
1879,1873,1838
1918,1874,1882
1903,1824,1907
1868,1804,1860
1872,1857,1822
1907,1882,1857
1862,1868,1821
1864,1852,1856
1893,1882,1889
1906,1911,1862
1879,1867,1851
1851,1850,1850
1887,1874,1884
1904,1883,1878
1881,1885,1860
1857,1865,1827
1890,1883,1859
1905,1886,1881
1872,1871,1849
1844,1859,1826
1866,1863,1861
1886,1891,1882
1856,1874,1822
1844,1855,1812
1887,1873,1845
1908,1903,1901
1879,1880,1878
1858,1842,1865
1887,1872,1872
1909,1907,1898
1888,1904,1870
1875,1842,1847
1889,1862,1872
1909,1900,1853
1878,1894,1790
1874,1857,1866
1893,1872,1888
1894,1873,1871
1857,1839,1803
1850,1830,1822
1877,1904,1875
1907,1919,1893
1875,1882,1806
1866,1840,1823
1904,1851,1863
1927,1890,1872
1891,1867,1895
1850,1889,1817
1872,1902,1809
1914,1906,1840
1888,1853,1840
1850,1818,1834
1872,1833,1872
1901,1887,1872
1901,1890,1858
1879,1826,1827
1882,1857,1842
1921,1887,1905
1879,1877,1847
1854,1857,1808
1877,1871,1840
1905,1904,1890
1911,1929,1842
1861,1835,1807
1872,1841,1848
1906,1874,1891
1883,1854,1869
1870,1857,1837
1901,1890,1855
1904,1923,1872
1900,1874,1883
1866,1825,1826
1887,1859,1861
1902,1883,1915
1867,1853,1853
1857,1878,1831
1903,1883,1861
1920,1903,1951
1860,1865,1871
1855,1833,1765
1886,1872,1834
1910,1893,1887
1874,1869,1874
1869,1849,1823
1914,1887,1869
1900,1920,1884
1876,1901,1856
1856,1840,1818
1886,1845,1839
1915,1901,1890
1884,1881,1886
1852,1840,1776
1877,1853,1877
1917,1902,1886
1899,1888,1835
1835,1842,1777
1874,1847,1835
1925,1901,1933
1887,1888,1938
1850,1843,1849
1878,1847,1839
1915,1893,1862
1904,1879,1885
1918,1872,1872
1920,1874,1862
1892,1877,1849
1842,1855,1807
1841,1854,1833
1887,1863,1824
1907,1874,1875
1887,1885,1889
1840,1846,1825
1889,1883,1871
1914,1911,1904
1861,1871,1819
1841,1821,1825
1889,1857,1840
1923,1908,1936
1891,1881,1872
1861,1851,1840
1894,1870,1867
1920,1907,1890
1892,1895,1860
1870,1853,1829
1857,1854,1830
1872,1891,1847
1877,1879,1819
1862,1849,1839
1872,1872,1853
1907,1907,1899
1875,1899,1845
1866,1890,1868
1898,1872,1883
1915,1877,1901
1892,1885,1861
1872,1870,1873
1871,1863,1842
1872,1897,1838
1872,1901,1798
1873,1872,1810
1887,1872,1898
1909,1914,1943
1882,1898,1894
1842,1865,1843
1870,1872,1868
1898,1906,1825
1876,1920,1890
1856,1863,1835
1889,1861,1887
1915,1895,1882
1872,1889,1858
1851,1877,1805
1877,1872,1834
1930,1920,1878
1895,1897,1865
1861,1874,1822
1872,1886,1872
1891,1917,1901
1839,1891,1813
1842,1887,1810
1897,1893,1877
1926,1904,1918
1872,1888,1821
1833,1872,1799
1883,1892,1944
1904,1925,1920
1895,1904,1897
1860,1883,1840
1866,1886,1822
1894,1915,1833
1894,1903,1893
1873,1875,1840
1904,1909,1875
1935,1922,1904
1901,1914,1885
1840,1853,1808
1874,1879,1811
1914,1926,1811
1873,1881,1842
1851,1841,1834
1879,1872,1856
1904,1897,1894
1908,1898,1941
1872,1852,1856
1879,1872,1840
1907,1890,1853
1887,1869,1831
1849,1835,1810
1874,1866,1863
1895,1908,1898
1897,1926,1860
1890,1845,1841
1890,1837,1862
1921,1898,1893
1883,1853,1840
1847,1837,1806
1873,1865,1839
1929,1909,1904
1887,1851,1878
1859,1810,1840
1894,1840,1840
1921,1858,1872
1902,1845,1869
1840,1825,1765
1898,1865,1826
1926,1872,1897
1879,1842,1851
1855,1818,1841
1904,1863,1872
1933,1901,1867
1878,1839,1840
1867,1803,1830
1895,1826,1863
1918,1856,1883
1887,1845,1844
1877,1846,1840
1891,1834,1864
1889,1853,1871
1958,1844,1861
1911,1834,1839
1859,1851,1863
1935,1892,1941
1841,1858,1855
1863,1808,1815
1881,1857,1840
1888,1880,1867
1904,1835,1890
1897,1801,1887
1891,1840,1837
1901,1869,1856
1872,1840,1831
1878,1827,1802
1890,1859,1850
1917,1879,1875
1910,1850,1856
1866,1829,1843
1878,1816,1839
1925,1837,1877
1915,1834,1879
1872,1855,1840
1891,1851,1853
1902,1851,1872
1869,1816,1841
1872,1825,1855
1897,1837,1855
1936,1888,1901
1906,1872,1872
1850,1837,1825
1879,1842,1863
1910,1871,1889
1872,1830,1825
1833,1805,1818
1867,1840,1862
1958,1876,1902
1936,1856,1862
1876,1808,1840
1846,1837,1890
1858,1826,1815
1884,1821,1794
1859,1834,1808
1889,1858,1869
1919,1871,1897
1874,1866,1857
1860,1835,1828
1871,1860,1867
1871,1872,1873
1931,1847,1824
1825,1833,1808
1859,1866,1849
1856,1875,1874
1920,1856,1872
1878,1859,1878
1881,1891,1861
1883,1901,1840
1835,1863,1828
1869,1814,1808
1889,1864,1871
1937,1908,1918
1888,1865,1872
1877,1825,1823
1884,1830,1860
1904,1923,1921
1887,1907,1854
1812,1819,1792
1842,1818,1830
1886,1880,1863
1868,1863,1830
1874,1835,1791
1903,1867,1845
1915,1936,1915
1940,1887,1872
1893,1827,1798
1872,1847,1835
1933,1915,1901
1870,1900,1850
1873,1861,1827
1927,1870,1867
1889,1862,1850
1867,1872,1799
1877,1867,1808
1946,1882,1872
1887,1903,1889
1862,1895,1856
1771,1886,1811
1873,1903,1830
1914,1869,1869
1874,1834,1819
1827,1808,1775
1893,1886,1847
1909,1897,1904
1861,1885,1844
1856,1867,1794
1886,1865,1840
1907,1894,1872
1898,1882,1854
1947,1894,1859
1902,1918,1850
1893,1901,1843
1910,1859,1809
1843,1872,1810
1856,1892,1855
1869,1892,1872
1889,1872,1850
1855,1857,1841
1861,1882,1885
1917,1899,1885
1857,1903,1855
1805,1863,1787
1875,1861,1831
1862,1888,1883
1904,1872,1847
1875,1839,1814
1943,1877,1826
1884,1905,1868
1840,1883,1840
1840,1866,1831
1775,1867,1851
1962,1934,1875
1885,1905,1863
1867,1841,1859
1873,1854,1862
1859,1872,1823
1829,1882,1792
1839,1862,1771
1904,1883,1831
1910,1965,1913
1895,1931,1901
1835,1782,1815
1877,1842,1850
1821,1894,1880
1780,1873,1856
1821,1840,1836
1893,1885,1853
1909,1915,1861
1889,1892,1842
1936,1869,1872
1904,1915,1870
1861,1935,1841
1904,1862,1838
1840,1830,1845
1869,1894,1873
1943,1925,1851
1899,1884,1842
1787,1855,1801
1807,1899,1862
1904,1928,1904
1824,1888,1863
1899,1894,1863
1897,1920,1839
1895,1905,1858
1873,1888,1861
1872,1875,1860
1889,1889,1843
1918,1899,1895
1905,1901,1907
1870,1914,1853
1871,1911,1834
1883,1871,1840
1891,1867,1854
1892,1877,1840
1927,1936,1863
1925,1875,1871
1895,1851,1877
1810,1833,1805
1841,1885,1826
1878,1920,1855
1872,1889,1870
1850,1840,1840
1887,1858,1872
1918,1899,1927
1875,1895,1867
1866,1882,1811
1891,1872,1822
1904,1911,1884
1885,1861,1885
1840,1799,1798
1878,1817,1825
1906,1872,1867
1898,1877,1882
1873,1847,1889
1914,1895,1872
1903,1887,1835
1840,1821,1783
1835,1825,1826
1903,1866,1903
1904,1878,1879
1872,1854,1851
1854,1810,1821
1852,1840,1803
1905,1875,1884
1889,1850,1883
1856,1827,1827
1888,1868,1867
1937,1904,1916
1875,1861,1883
1835,1820,1821
1882,1847,1856
1907,1887,1860
1871,1849,1813
1858,1810,1799
1887,1856,1858
1915,1883,1914
1905,1855,1879
1867,1817,1831
1885,1872,1875
1925,1892,1895
1903,1845,1855
1884,1855,1840
1919,1879,1883
1913,1871,1874
1876,1872,1822
1842,1837,1803
1891,1867,1854
1915,1917,1877
1872,1879,1821
1837,1820,1806
1893,1872,1872
1909,1879,1875
1854,1823,1837
1834,1829,1819
1871,1872,1847
1909,1877,1904
1873,1841,1854
1866,1870,1822
1886,1866,1830
1904,1875,1855
1889,1872,1856
1870,1861,1841
1872,1855,1869
1912,1894,1885
1872,1894,1840
1842,1854,1810
1892,1869,1839
1921,1904,1891
1906,1872,1871
1869,1871,1840
1882,1850,1835
1876,1857,1847
1866,1847,1868
1852,1845,1829
1889,1879,1863
1901,1890,1862
1881,1865,1825
1879,1845,1849
1922,1887,1900
1917,1924,1873
1858,1871,1818
1855,1833,1810
1887,1850,1861
1914,1899,1903
1882,1892,1857
1858,1858,1805
1887,1887,1849
1893,1904,1866
1867,1858,1849
1872,1829,1846
1904,1849,1843
1920,1930,1888
1895,1892,1856
1872,1860,1821
1886,1880,1824
1904,1899,1885
1891,1869,1905
1872,1871,1851
1899,1883,1839
1915,1879,1866
1884,1845,1877
1855,1860,1844
1894,1913,1843
1931,1903,1895
1879,1827,1853
1856,1814,1825
1883,1871,1875
1893,1882,1893
1874,1872,1829
1878,1863,1843
1911,1866,1878
1890,1872,1842
1856,1872,1802
1859,1867,1831
1907,1910,1894
1918,1889,1903
1859,1867,1843
1847,1848,1807
1916,1890,1835
1924,1872,1879
1871,1850,1850
1841,1859,1809
1883,1883,1843
1898,1878,1851
1893,1893,1841
1887,1870,1847
1885,1830,1855
1880,1855,1856
1856,1870,1821
1859,1856,1802
1890,1877,1840
1912,1898,1872
1879,1891,1856
1859,1831,1835
1911,1885,1872
1933,1840,1906
1861,1826,1837
1843,1827,1826
1872,1876,1877
1910,1914,1861
1894,1857,1835
1844,1853,1815
1856,1895,1835
1905,1920,1867
1895,1871,1840
1865,1853,1825
1913,1845,1850
1931,1871,1887
1876,1856,1836
1862,1838,1815
1888,1872,1861
1861,1899,1835
1856,1856,1840
1875,1820,1840
1904,1846,1875
1917,1906,1879
1881,1917,1823
1883,1893,1823
1904,1881,1845
1915,1835,1884
1883,1814,1842
1856,1807,1813
1865,1835,1839
1903,1882,1901
1890,1899,1863
1872,1819,1831
1883,1823,1855
1899,1881,1851
1876,1898,1827
1856,1856,1822
1898,1922,1872
1942,1931,1923
1879,1854,1835
1845,1781,1793
1888,1840,1833
1927,1899,1895
1898,1936,1872
1857,1840,1826
1879,1861,1840
1895,1920,1867
1863,1876,1818
1872,1851,1842
1906,1855,1849
1924,1886,1867
1872,1840,1856
1851,1873,1851
1897,1900,1890
1903,1867,1846
1872,1804,1833
1870,1850,1872
1907,1919,1871
1919,1901,1885
1874,1870,1853
1843,1792,1786
1895,1862,1836
1909,1871,1869
1875,1871,1840
1875,1862,1856
1904,1813,1894
1908,1825,1853
1894,1908,1846
1889,1837,1856
1891,1897,1861
1894,1909,1883
1875,1856,1843
1862,1854,1824
1885,1892,1845
1925,1903,1872
1904,1879,1903
1846,1826,1799
1853,1845,1813
1897,1872,1872
1877,1873,1853
1850,1903,1818
1885,1923,1870
1927,1969,1903
1872,1885,1844
1840,1829,1815
1872,1845,1866
1893,1864,1885
1875,1866,1841
1847,1917,1794
1881,1909,1844
1910,1941,1909
1899,1904,1888
1872,1886,1837
1878,1882,1840
1879,1841,1851
1872,1857,1845
1872,1863,1847
1879,1876,1863
1914,1906,1873
1899,1905,1840
1865,1887,1819
1863,1827,1848
1903,1899,1902
1874,1840,1862
1858,1803,1812
1879,1824,1848
1904,1869,1872
1885,1846,1846
1856,1825,1830
1899,1921,1874
1943,1921,1907
1919,1911,1878
1859,1808,1822
1872,1883,1821
1909,1885,1867
1907,1903,1883
1861,1867,1822
1887,1869,1847
1917,1897,1892
1898,1840,1840
1862,1856,1837
1883,1872,1858
1891,1897,1846
1888,1922,1830
1877,1891,1847
1909,1845,1875
1947,1911,1886
1894,1867,1840
1829,1824,1781
1859,1911,1840
1902,1878,1890
1904,1918,1871
1883,1874,1837
1890,1901,1846
1911,1902,1878
1882,1857,1850
1867,1826,1839
1903,1872,1905
1898,1824,1860
1847,1943,1792
1837,1841,1789
1881,1872,1868
1922,1866,1870
1905,1930,1841
1898,1872,1870
1895,1947,1885
1946,1942,1949
1871,1893,1834
1824,1808,1791
1849,1904,1824
1911,1910,1877
1874,1840,1837
1859,1859,1855
1910,1904,1898
1947,1875,1915
1905,1963,1860
1890,1869,1846
1896,1875,1861
1903,1902,1883
1882,1894,1847
1851,1862,1829
1866,1861,1823
1926,1921,1893
1890,1885,1871
1903,1899,1902
1927,1898,1907
1904,1884,1841
1861,1873,1799
1841,1891,1802
1872,1901,1856
1911,1918,1894
1904,1912,1873
1902,1935,1859
1904,1930,1894
1910,1861,1878
1892,1829,1856
1863,1840,1845
1901,1885,1872
1891,1915,1840
1872,1931,1843
1895,1887,1871
1949,1917,1934
1933,1936,1895
1866,1855,1816
1847,1838,1799
1887,1873,1867
1919,1936,1914
1908,1903,1905
1902,1874,1891
1929,1939,1926
1904,1931,1857
1808,1842,1764
1824,1849,1803
1885,1888,1879
1947,1961,1930
1922,1919,1881
1886,1843,1841
1904,1869,1856
1883,1904,1873
1872,1893,1855
1873,1869,1856
1935,1920,1920
1953,2025,1971
1902,1962,1886
1867,1846,1785
1862,1809,1802
1914,1887,1888
1882,1897,1848
1870,1869,1840
1891,1877,1875
1904,1901,1887
1888,1891,1853
1873,1881,1852
1904,1905,1865
1902,1920,1877
1893,1892,1875
1854,1849,1840
1877,1889,1878
1927,1936,1935
1934,1936,1919
1854,1888,1842
1840,1856,1808
1884,1913,1845
1906,1927,1881
1873,1857,1851
1877,1862,1823
1914,1888,1850
1886,1863,1854
1855,1863,1847
1882,1907,1875
1906,1915,1872
1873,1892,1854
1862,1863,1840
1895,1906,1863
1920,1927,1903
1904,1869,1887
1869,1868,1861
1896,1931,1869
1910,1904,1874
1850,1867,1811
1839,1854,1810
1888,1856,1856
1921,1885,1868
1888,1871,1835
1855,1840,1822
1887,1903,1890
1925,1953,1919
1902,1887,1872
1859,1840,1838
1881,1898,1873
1911,1952,1917
1877,1889,1853
1855,1819,1807
1877,1844,1839
1908,1895,1883
1892,1904,1883
1863,1863,1858
1918,1879,1873
1929,1899,1883
1889,1858,1853
1856,1826,1821
1904,1887,1885
1920,1919,1890
1861,1872,1840
1847,1831,1829
1885,1906,1869
1936,1887,1888
1882,1799,1807
1840,1818,1830
1877,1867,1876
1904,1899,1910
1885,1866,1856
1866,1865,1850
1897,1900,1867
1901,1883,1872
1875,1853,1847
1853,1824,1815
1892,1881,1872
1935,1936,1926
1904,1869,1874
1857,1828,1825
1871,1856,1856
1902,1907,1893
1876,1866,1854
1851,1851,1817
1875,1875,1860
1904,1911,1910
1880,1874,1865
1871,1851,1833
1903,1877,1865
1925,1904,1910
1878,1879,1855
1842,1843,1793
1884,1861,1829
1915,1891,1885
1904,1860,1855
1859,1853,1822
1891,1904,1898
1913,1924,1898
1872,1845,1809
1846,1812,1805
1901,1867,1867
1920,1927,1898
1885,1872,1872
1875,1863,1877
1887,1908,1857
1907,1919,1915
1911,1878,1877
1874,1842,1840
1911,1887,1903
1910,1914,1902
1872,1859,1797
1826,1819,1778
1865,1848,1839
1903,1878,1915
1900,1883,1872
1868,1858,1815
1888,1872,1872
1903,1886,1892
1872,1872,1840
1847,1843,1793
1879,1849,1883
1933,1907,1908
1877,1866,1855
1857,1849,1824
1884,1875,1868
1885,1893,1861
1871,1875,1892
1872,1863,1827
1909,1899,1843
1889,1892,1855
1856,1871,1856
1852,1848,1860
1904,1911,1882
1881,1882,1871
1868,1836,1817
1853,1821,1811
1885,1890,1850
1905,1939,1863
1872,1893,1869
1853,1863,1840
1881,1856,1872
1897,1887,1872
1861,1887,1825
1853,1869,1846
1899,1895,1886
1919,1895,1887
1872,1856,1842
1863,1841,1872
1874,1867,1856
1873,1890,1850
1860,1850,1821
1863,1837,1799
1888,1863,1864
1889,1886,1858
1871,1872,1877
1874,1891,1826
1874,1872,1831
1897,1908,1866
1875,1892,1811
1853,1862,1824
1923,1889,1898
1941,1875,1883
1867,1857,1808
1854,1863,1856
1872,1855,1835
1895,1904,1885
1890,1902,1868
1861,1844,1790
1873,1860,1817
1903,1899,1873
1891,1895,1867
1874,1888,1847
1907,1907,1855
1934,1890,1874
1922,1854,1869
1897,1843,1853
1899,1885,1875
1907,1904,1855
1881,1869,1825
1883,1869,1835
1918,1911,1905
1955,1927,1922
1899,1865,1885
1870,1872,1861
1893,1882,1833
1903,1906,1874
1875,1891,1830
1873,1857,1792
1909,1872,1847
1930,1910,1898
1899,1891,1824
1873,1866,1807
1907,1905,1850
1933,1939,1941
1904,1913,1856
1857,1873,1858
1890,1915,1826
1930,1935,1938
1883,1871,1926
1893,1901,1866
1909,1915,1902
1903,1871,1840
1867,1850,1787
1882,1869,1832
1921,1918,1899
1936,1952,1962
1904,1910,1862
1861,1870,1818
1910,1907,1890
1943,1936,1891
1883,1915,1830
1859,1906,1897
1903,1882,1863
1925,1879,1904
1909,1884,1871
1874,1872,1835
1887,1868,1840
1897,1903,1871
1882,1873,1802
1887,1873,1876
1904,1898,1895
1904,1906,1841
1876,1886,1806
1889,1883,1843
1922,1910,1894
1922,1959,1885
1886,1893,1862
1857,1853,1803
1887,1890,1878
1925,1893,1936
1908,1862,1863
1861,1867,1822
1903,1919,1905
1934,1911,1954
1889,1853,1823
1856,1835,1824
1915,1897,1879
1930,1935,1900
1878,1900,1842
1872,1877,1821
1890,1887,1849
1917,1902,1893
1882,1867,1830
1866,1847,1819
1933,1898,1880
1929,1921,1892
1914,1903,1889
1886,1868,1840
1877,1871,1839
1917,1914,1868
1918,1903,1846
1881,1850,1797
1883,1886,1802
1914,1954,1871
1893,1901,1823
1865,1853,1843
1882,1888,1859
1929,1888,1920
1898,1872,1872
1873,1875,1831
1910,1931,1882
1919,1925,1795
1884,1892,1817
1855,1857,1812
1887,1871,1857
1921,1929,1931
1899,1920,1906
1869,1885,1865
1895,1887,1835
1891,1902,1847
1859,1857,1840
1847,1846,1824
1893,1867,1853
1919,1913,1872
1904,1901,1872
1859,1872,1846
1899,1898,1899
1941,1917,1917
1893,1890,1857
1867,1872,1840
1873,1889,1857
1909,1899,1902
1877,1886,1857
1857,1909,1823
1889,1924,1841
1906,1926,1891
1883,1869,1839
1872,1836,1814
1913,1883,1904
1926,1899,1939
1869,1889,1866
1866,1843,1833
1905,1872,1839
1936,1914,1856
1957,1895,1876
1899,1873,1851
1885,1898,1861
1895,1918,1870
1910,1904,1841
1856,1904,1838
1869,1936,1883
1920,1913,1903
1885,1843,1841
1871,1849,1822
1923,1900,1881
1884,1903,1918
1942,1887,1867
1883,1873,1825
1895,1891,1861
1958,1914,1904
1904,1913,1846
1843,1840,1805
1880,1858,1859
1913,1908,1876
1903,1921,1851
1853,1854,1833
1888,1890,1872
1893,1911,1869
1840,1905,1855
1872,1854,1844
1877,1856,1853
1904,1918,1887
1883,1914,1849
1872,1872,1838
1907,1869,1878
1936,1900,1904
1859,1904,1834
1875,1875,1840
1882,1855,1862
1918,1870,1870
1872,1874,1813
1861,1871,1818
1909,1903,1877
1879,1903,1904
1904,1861,1856
1867,1856,1808
1853,1891,1866
1904,1904,1888
1910,1876,1817
1823,1872,1795
1847,1927,1836
1898,1920,1887
1882,1855,1833
1850,1844,1811
1890,1894,1865
1919,1914,1883
1855,1873,1857
1869,1855,1829
1902,1902,1859
1902,1915,1894
1827,1873,1839
1871,1850,1805
1908,1927,1886
1873,1918,1891
1904,1854,1846
1809,1843,1807
1921,1893,1878
1891,1903,1872
1850,1876,1797
1872,1850,1809
1931,1872,1872
1886,1886,1836
1877,1885,1821
1820,1863,1855
1920,1884,1865
1942,1905,1906
1923,1851,1857
