1862,1961,1879
1840,1917,1840
1853,1913,1855
1877,1930,1887
1866,1931,1866
1842,1907,1843
1867,1922,1872
1897,1967,1906
1870,1927,1878
1830,1904,1841
1846,1921,1862
1887,1953,1897
1862,1925,1872
1840,1909,1850
1863,1913,1869
1885,1931,1899
1863,1932,1879
1839,1879,1844
1866,1872,1868
1896,1930,1905
1872,1924,1876
1843,1892,1845
1861,1897,1873
1881,1921,1909
1858,1918,1884
1831,1890,1855
1856,1894,1875
1887,1903,1904
1870,1877,1865
1840,1904,1837
1862,1841,1874
1903,1966,1914
1877,1957,1879
1850,1861,1843
1867,1878,1878
1887,1939,1911
1874,1894,1886
1847,1895,1856
1872,1904,1879
1904,1915,1915
1872,1901,1886
1843,1853,1840
1872,1872,1857
1904,1937,1895
1886,1874,1878
1856,1872,1839
1867,1904,1857
1889,1919,1903
1876,1904,1872
1850,1886,1847
1859,1909,1875
1895,1872,1905
1874,1906,1884
1853,1870,1852
1879,1841,1871
1904,1864,1901
1875,1840,1873
1859,1863,1851
1888,1845,1878
1913,1933,1904
1883,1886,1882
1849,1898,1853
1872,1851,1877
1911,1909,1916
1873,1847,1867
1844,1834,1833
1877,1869,1875
1910,1874,1906
1883,1882,1878
1840,1872,1841
1868,1858,1872
1886,1851,1904
1879,1837,1874
1846,1872,1845
1872,1879,1871
1897,1887,1898
1883,1838,1874
1851,1799,1843
1877,1863,1850
1905,1894,1894
1886,1866,1885
1858,1843,1851
1879,1863,1867
1908,1868,1889
1884,1890,1867
1861,1839,1845
1877,1808,1866
1906,1868,1898
1872,1853,1869
1849,1811,1837
1879,1795,1871
1907,1854,1898
1873,1853,1862
1840,1771,1826
1869,1829,1842
1896,1839,1879
1872,1851,1881
1849,1803,1845
1872,1847,1862
1894,1891,1895
1872,1792,1871
1854,1791,1847
1871,1839,1872
1899,1861,1906
1878,1835,1876
1842,1839,1843
1872,1810,1866
1899,1880,1900
1881,1871,1875
1849,1793,1843
1868,1817,1869
1904,1877,1900
1873,1833,1871
1853,1827,1840
1885,1806,1860
1911,1853,1905
1882,1870,1883
1853,1826,1844
1866,1808,1856
1895,1869,1887
1886,1865,1876
1856,1851,1852
1874,1810,1863
1905,1895,1904
1885,1846,1879
1862,1831,1841
1886,1862,1862
1919,1916,1891
1887,1826,1881
1853,1799,1847
1878,1817,1867
1904,1835,1891
1875,1839,1857
1856,1815,1841
1873,1904,1883
1907,1892,1911
1888,1846,1885
1857,1856,1847
1872,1795,1860
1909,1894,1901
1885,1873,1874
1859,1906,1853
1871,1818,1853
1887,1811,1873
1878,1831,1870
1863,1810,1842
1882,1817,1872
1902,1826,1903
1897,1866,1875
1869,1815,1853
1877,1879,1866
1903,1883,1889
1871,1875,1854
1853,1777,1838
1877,1840,1872
1907,1904,1898
1890,1831,1858
1869,1821,1815
1883,1847,1856
1907,1878,1904
1887,1870,1865
1856,1791,1827
1876,1853,1855
1915,1854,1898
1888,1861,1871
1853,1851,1842
1869,1855,1863
1905,1858,1884
1885,1776,1862
1846,1819,1823
1877,1852,1860
1927,1902,1921
1904,1825,1887
1851,1819,1822
1856,1818,1837
1900,1850,1885
1890,1832,1872
1867,1785,1842
1894,1872,1857
1907,1825,1878
1872,1823,1840
1865,1904,1833
1895,1840,1859
1923,1876,1895
1889,1873,1851
1844,1847,1826
1877,1817,1855
1921,1930,1893
1879,1871,1859
1836,1838,1808
1870,1838,1840
1909,1853,1875
1882,1863,1862
1846,1846,1829
1872,1871,1847
1917,1882,1882
1894,1859,1862
1866,1840,1837
1879,1873,1840
1917,1899,1882
1888,1829,1863
1857,1835,1820
1865,1841,1821
1911,1872,1877
1882,1867,1861
1847,1831,1808
1866,1840,1821
1911,1891,1877
1915,1888,1883
1887,1891,1846
1878,1822,1837
1879,1806,1838
1867,1812,1810
1840,1840,1807
1881,1861,1851
1923,1878,1883
1878,1827,1840
1831,1808,1805
1863,1839,1829
1905,1874,1872
1926,1930,1879
1884,1922,1846
1857,1776,1815
1881,1821,1846
1870,1838,1855
1835,1741,1806
1872,1809,1840
1903,1858,1867
1863,1841,1851
1861,1799,1840
1872,1837,1836
1891,1872,1871
1861,1882,1843
1814,1779,1785
1891,1817,1840
1936,1915,1923
1894,1872,1877
1903,1856,1872
1935,1878,1877
1904,1875,1856
1791,1758,1788
1729,1762,1711
1803,1813,1751
1919,1887,1839
1937,1918,1891
1832,1845,1840
1843,1840,1834
1922,1906,1872
1846,1887,1835
1840,1817,1782
1851,1836,1779
1795,1867,1815
1800,1904,1811
1808,1929,1793
1843,1952,1831
1904,2002,1899
1899,2025,1893
1739,1934,1710
1777,1981,1712
1844,2032,1787
1813,2091,1837
1810,2078,1807
1840,2127,1829
1795,2077,1823
1745,2094,1751
1755,2142,1742
1896,2257,1851
1883,2273,1843
1729,2239,1771
1694,2239,1724
1777,2224,1781
1874,2310,1875
1823,2317,1825
1768,2279,1727
1779,2348,1775
1770,2314,1809
1775,2318,1793
1758,2305,1719
1746,2320,1729
1840,2415,1838
1799,2393,1811
1712,2347,1724
1755,2384,1744
1814,2445,1827
1789,2445,1811
1750,2373,1733
1759,2386,1730
1784,2448,1771
1790,2447,1759
1751,2402,1712
1807,2446,1755
1844,2481,1792
1745,2453,1712
1702,2366,1674
1722,2294,1679
1795,2352,1728
1792,2394,1719
1776,2435,1728
1783,2432,1740
1776,2378,1721
1749,2351,1673
1742,2326,1657
1776,2358,1712
1803,2432,1750
1780,2416,1728
1762,2311,1711
1771,2295,1712
1801,2383,1740
1799,2302,1731
1754,2240,1686
1762,2245,1699
1806,2281,1730
1794,2263,1738
1774,2228,1722
1807,2255,1747
1861,2285,1779
1811,2243,1758
1725,2169,1664
1746,2185,1694
1808,2199,1746
1808,2182,1745
1779,2143,1723
1809,2167,1757
1845,2187,1793
1829,2118,1776
1778,2121,1712
1807,2128,1744
1855,2142,1817
1837,2123,1803
1800,2099,1769
1827,2107,1782
1869,2127,1808
1846,2095,1803
1813,2058,1763
1838,2073,1794
1875,2097,1827
1863,2078,1813
1830,2011,1803
1854,2029,1810
1887,2062,1851
1872,2035,1775
1842,2000,1785
1873,2012,1851
1906,2026,1843
1872,2033,1821
1851,1982,1770
1871,1951,1841
1909,1982,1866
1907,1975,1885
1873,1935,1829
1888,1950,1835
1920,1968,1875
1895,1943,1881
1872,1915,1838
1901,1921,1862
1936,1946,1902
1916,1921,1887
1874,1882,1847
1890,1878,1859
1934,1898,1904
1926,1885,1910
1903,1869,1855
1909,1858,1872
1936,1872,1879
1929,1850,1884
1901,1821,1861
1929,1815,1874
1969,1863,1920
1943,1853,1905
1916,1802,1867
1953,1782,1889
1994,1784,1946
1951,1801,1915
1922,1746,1894
1936,1777,1904
1965,1826,1911
1949,1798,1904
1925,1743,1873
1949,1724,1909
1972,1747,1930
1951,1730,1936
1935,1712,1907
1965,1703,1923
2002,1729,1965
1968,1699,1919
1942,1643,1859
1968,1645,1895
2000,1699,1939
1980,1680,1883
1951,1628,1907
1975,1600,1897
2009,1650,1943
1985,1669,1975
1947,1618,1906
1972,1600,1906
2003,1617,1983
1991,1597,1897
1959,1580,1897
1969,1586,1920
2001,1614,1931
1981,1589,1937
1958,1562,1906
1987,1582,1957
2005,1582,1937
1985,1535,1931
1957,1507,1905
1969,1520,1936
1998,1595,1983
1990,1568,1939
1963,1520,1939
1970,1532,1906
2003,1565,1999
1990,1535,1897
1955,1513,1898
1983,1521,1959
2010,1561,1998
1982,1553,1951
1954,1527,1871
1971,1555,1909
2002,1535,1926
1980,1511,1938
1951,1486,1831
1968,1503,1894
2000,1557,1931
1983,1535,1925
1941,1518,1898
1967,1524,1863
2002,1554,1952
1975,1535,1910
1935,1511,1866
1963,1535,1910
2007,1589,1971
1981,1570,1938
1936,1498,1904
1964,1522,1916
1994,1583,1945
1971,1520,1920
1936,1488,1881
1967,1526,1895
1994,1567,1936
1977,1535,1909
1936,1521,1883
1959,1557,1928
2000,1587,1939
1970,1575,1941
1920,1535,1866
1949,1557,1893
1991,1594,1926
1969,1591,1906
1936,1584,1877
1947,1581,1917
1985,1600,1936
1965,1600,1893
1930,1596,1837
1957,1618,1907
1975,1605,1909
1966,1588,1921
1933,1573,1916
1945,1587,1880
1975,1611,1936
1950,1637,1892
1920,1623,1886
1943,1630,1909
1995,1710,1953
2000,1735,1959
1939,1595,1902
1919,1525,1849
1941,1590,1885
1934,1619,1906
1919,1642,1825
1935,1626,1936
1968,1647,1904
1946,1638,1804
1916,1639,1840
1936,1693,1874
1959,1690,1900
1947,1697,1887
1909,1622,1843
1915,1600,1837
1961,1651,1872
1937,1661,1895
1891,1655,1867
1913,1681,1897
1951,1687,1870
1939,1696,1884
1904,1685,1873
1911,1671,1857
1944,1696,1893
1934,1712,1875
1895,1712,1830
1904,1709,1872
1936,1691,1875
1923,1688,1894
1878,1656,1817
1922,1729,1823
1965,1776,1920
1933,1739,1874
1899,1703,1831
1914,1680,1841
1941,1715,1878
1920,1701,1865
1872,1707,1813
1900,1735,1840
1947,1775,1891
1948,1772,1874
1886,1727,1830
1882,1742,1847
1905,1777,1870
1888,1769,1849
1872,1738,1819
1904,1766,1855
1949,1803,1903
1920,1754,1857
1877,1751,1811
1940,1819,1884
1982,1827,1951
1900,1756,1861
1819,1755,1787
1840,1680,1803
1903,1716,1819
1904,1765,1829
1874,1765,1833
1877,1754,1844
1964,1823,1877
1918,1824,1873
1955,1822,1872
2010,1865,1892
1841,1819,1823
1801,1759,1779
1865,2005,1853
1886,1857,1855
1854,1535,1834
1840,1616,1824
1856,1745,1824
1891,1798,1840
1927,1835,1883
1907,1935,1898
1843,1856,1835
1861,1644,1806
1866,1657,1831
1888,1760,1866
1866,1775,1840
1931,1845,1869
1942,1872,1901
1838,1756,1829
1814,1769,1808
1838,1796,1838
1920,1853,1885
1911,1861,1871
1808,1810,1793
1787,1809,1793
1809,1743,1803
1869,1776,1810
1856,1857,1830
1854,1775,1840
1829,1757,1832
1850,1792,1813
1809,1791,1808
1831,1811,1842
1870,1845,1871
1827,1855,1833
1847,1840,1807
1841,1841,1801
1860,1852,1856
1799,1829,1819
1770,1814,1776
1832,1883,1805
1951,1981,1891
1897,1914,1858
1805,1887,1775
1741,1814,1787
1872,1840,1858
1842,1887,1849
1830,1904,1812
1840,1919,1836
1771,1899,1818
1796,1936,1825
1813,1939,1825
1909,1952,1857
1921,2064,1890
1870,2007,1833
1699,1859,1739
1718,1904,1757
1856,2015,1846
1804,2015,1792
1774,2076,1797
1833,2142,1839
2128,2349,1968
2015,2285,1901
1648,2165,1675
1623,2061,1647
1712,2173,1773
1811,2288,1825
1782,2328,1776
1786,2363,1765
1840,2375,1801
1805,2407,1821
1869,2439,1843
1773,2411,1785
1760,2393,1771
1727,2343,1625
1706,2351,1665
1712,2448,1738
1771,2479,1840
1840,2447,1806
1798,2459,1701
1750,2509,1742
1822,2621,1783
1733,2643,1777
1679,2608,1789
1744,2710,1858
1783,2767,1777
1669,2698,1647
1659,2707,1616
1746,2784,1699
1712,2846,1779
1697,2832,1752
1679,2819,1702
1642,2850,1699
1697,2891,1706
1676,2925,1699
1690,2921,1674
1735,2943,1692
1840,2999,1715
1743,2961,1659
1655,2939,1573
1639,2957,1553
1681,2974,1556
1683,3007,1535
1671,3018,1531
1764,2983,1525
1695,2992,1535
1709,2956,1535
1597,2903,1510
1713,2912,1481
1721,2925,1495
1712,2896,1506
1715,2839,1506
1811,2845,1503
1757,2869,1521
1786,2839,1582
1648,2767,1487
1836,2739,1519
1723,2727,1523
1671,2727,1629
1780,2684,1616
1760,2626,1502
1734,2630,1492
1729,2598,1535
1767,2559,1561
1760,2581,1553
1777,2589,1585
1840,2559,1623
1795,2494,1520
1712,2439,1532
1671,2480,1600
1781,2545,1763
1840,2404,1641
1810,2315,1449
1709,2378,1535
1726,2350,1616
1776,2307,1642
1733,2285,1623
1774,2304,1655
1789,2277,1680
1761,2225,1655
1731,2221,1645
1803,2230,1706
1759,2221,1669
1724,2194,1645
1751,2214,1717
1831,2231,1744
1813,2171,1715
1697,2025,1614
1734,2005,1683
1820,2080,1754
1779,2125,1747
1731,2115,1710
1869,2030,1767
1811,1970,1808
1738,1925,1736
1675,1881,1750
1767,1919,1685
1931,1991,1763
1818,1968,1780
1599,1958,1707
1805,1933,1787
1821,1967,1901
1695,1955,1870
1629,1779,1752
1635,1777,1742
1723,1883,1827
1750,1894,1872
1765,1801,1822
1714,1758,1786
1667,1779,1814
1697,1807,1856
1735,1840,1834
1734,1833,1825
1805,1837,1939
1840,1803,1953
1830,1761,1807
1690,1790,1718
1628,1744,1926
1661,1711,1982
1767,1710,1831
1739,1744,1776
1705,1776,1863
1699,1732,1929
1761,1682,1851
1680,1705,1854
1728,1776,1983
1789,1803,2006
1701,1666,1871
1627,1613,1872
1731,1662,1942
1741,1693,1983
1643,1595,1890
1638,1599,1920
1734,1719,2035
1754,1712,1959
1663,1630,1854
1666,1611,1898
1820,1727,2030
1771,1695,1968
1594,1573,1902
1600,1581,1936
1684,1623,1953
1689,1611,1945
1695,1586,1925
1738,1635,1995
1728,1677,2063
1717,1625,2008
1716,1586,1983
1691,1604,1957
1714,1599,1984
1639,1535,2021
1679,1603,2011
1730,1615,1983
1701,1590,1968
1658,1573,1938
1659,1559,1926
1680,1579,1952
1753,1651,2014
1754,1624,2046
1785,1590,2006
1735,1605,2023
1670,1591,1983
1701,1614,1958
1665,1585,1927
1664,1535,1973
1703,1571,2029
1776,1584,1984
1733,1524,1941
1659,1532,2005
1678,1583,2061
1714,1582,2011
1702,1557,1959
1713,1555,2033
1764,1646,2065
1727,1636,1979
1707,1565,1955
1767,1649,2000
1760,1686,2023
1696,1509,1949
1681,1468,1919
1742,1595,1933
1749,1632,2032
1724,1589,2039
1733,1535,1973
1765,1591,1962
1840,1685,2042
1784,1625,1951
1700,1507,1961
1709,1502,2026
1778,1563,2045
1752,1591,1987
1712,1605,1936
1743,1601,1941
1808,1646,2043
1841,1653,2061
1734,1613,1946
1696,1585,1898
1778,1577,1986
1770,1582,1955
1731,1623,1922
1767,1671,1958
1790,1635,1994
1744,1565,1936
1756,1535,1931
1814,1606,1980
1823,1634,2006
1766,1602,1905
1762,1604,1910
1807,1620,1937
1823,1659,1970
1862,1658,2002
1808,1637,1990
1794,1613,1920
1809,1621,1950
1825,1645,2010
1749,1630,1967
1744,1658,1879
1776,1593,1909
1807,1610,1981
1843,1659,1989
1888,1690,2010
1852,1663,1890
1773,1598,1839
1714,1613,1856
1783,1595,1951
1863,1663,2006
1871,1682,1943
1814,1631,1903
1817,1648,1936
1831,1678,1972
1826,1648,1935
1904,1689,1953
1854,1651,1950
1863,1693,1979
1845,1712,1965
1808,1599,1894
1858,1651,1904
1873,1686,1999
1840,1650,1895
1891,1666,1892
1837,1648,1922
1847,1705,1984
1826,1685,1916
1799,1653,1858
1847,1712,1910
1913,1734,1968
1915,1711,1915
1805,1642,1877
1808,1600,1872
1906,1667,1932
1904,1686,1926
1889,1737,1968
1870,1807,1972
1909,1712,1941
1879,1675,1915
1892,1680,1882
1906,1787,1951
1884,1694,1951
1931,1698,1915
1879,1659,1899
1843,1674,1851
1860,1727,1896
1833,1775,1910
1862,1683,1869
1951,1726,1919
2038,1799,1984
1892,1729,1878
1796,1663,1840
1856,1749,1911
1914,1776,1920
1943,1798,1923
1929,1793,1904
1923,1745,1919
1901,1677,1899
1913,1731,1899
1868,1733,1846
1895,1754,1901
1911,1776,1955
1951,1808,1944
1869,1739,1883
1895,1754,1918
1955,1782,1933
1886,1777,1843
1807,1741,1777
1874,1808,1844
1949,1765,1920
1982,1763,1933
2000,1794,1969
1894,1751,1875
1915,1776,1898
1915,1808,1904
1958,1849,1953
1909,1760,1872
1898,1753,1846
1876,1781,1835
1879,1797,1851
1947,1806,1887
1974,1803,1920
1926,1792,1893
1893,1728,1851
1957,1828,1906
1999,1846,1939
1963,1813,1877
1925,1871,1861
1881,1753,1854
1921,1779,1887
1937,1837,1903
1965,1820,1915
1947,1807,1869
1922,1801,1851
1920,1801,1847
1895,1744,1867
1951,1783,1885
1990,1867,1904
1919,1808,1873
1918,1838,1913
1973,1827,1936
1971,1787,1903
1975,1879,1873
1919,1795,1856
1969,1778,1885
1906,1788,1813
1907,1793,1840
1975,1823,1872
2023,1905,1890
1952,1903,1881
1904,1776,1872
1939,1822,1893
1975,1840,1953
1957,1868,1889
1938,1840,1810
1925,1767,1807
1943,1814,1878
1987,1883,1934
2004,1878,1903
1936,1830,1839
1938,1874,1862
2021,1903,1937
1921,1782,1869
1849,1732,1775
1929,1744,1834
2064,1904,1947
2015,1857,1917
1968,1844,1879
1920,1813,1787
1943,1898,1869
1938,1899,1839
1906,1934,1824
1960,1889,1845
2000,1842,1918
1955,1767,1856
1907,1809,1830
1938,1858,1830
2095,1947,1934
1995,1829,1883
1879,1779,1787
1895,1791,1780
1984,1927,1918
2007,1941,1936
1909,1761,1776
1975,1906,1873
1964,1899,1921
2035,1927,1855
1974,1916,1840
1954,1869,1885
2003,1959,1910
1922,1915,1840
1876,1812,1795
1909,1838,1808
2000,1863,1840
1985,1871,1830
1911,1771,1887
1943,1856,1923
1954,1858,1802
1911,1873,1779
1931,1862,1808
2047,1936,1941
2005,1927,1941
1920,1834,1863
1885,1811,1789
1999,1954,1872
2007,1963,1890
1921,1898,1811
1897,1815,1787
1963,1770,1873
2003,1878,1904
1968,1926,1837
1924,1875,1813
1925,1835,1814
1978,1885,1872
2005,1909,1831
1901,1811,1774
1919,1877,1882
1962,1931,1904
1966,1925,1836
1946,1867,1789
1921,1879,1839
1934,1871,1850
1959,1922,1918
1970,1811,1856
1911,1882,1806
1936,1866,1854
1974,1930,1887
1920,1903,1809
1926,1868,1840
2000,1929,1890
1983,1915,1814
1997,1872,1807
1939,1885,1874
1969,1930,1907
1924,1869,1786
1911,1857,1783
1924,1854,1791
1969,1904,1885
1993,1942,1918
1936,1913,1852
1921,1884,1872
1959,1921,1870
1978,1869,1835
1911,1811,1781
1920,1843,1810
1970,1934,1857
1950,1939,1843
1937,1904,1817
1967,1891,1850
2014,1941,1904
1982,1916,1897
1942,1869,1853
1967,1883,1812
1914,1914,1798
1862,1857,1870
1889,1886,1850
1942,1915,1829
1968,1886,1813
1939,1867,1798
1947,1880,1856
1995,1932,1906
1937,1899,1827
1921,1904,1799
1898,1903,1808
1955,1919,1888
1984,1948,1887
1918,1861,1827
1904,1872,1794
1983,1901,1825
1986,1936,1886
1948,1963,1917
1968,1890,1890
1930,1877,1872
1914,1862,1775
1901,1891,1782
1879,1841,1767
1920,1905,1855
1986,1939,1926
1959,1910,1877
1942,1913,1845
1969,1938,1893
1970,1935,1853
1911,1898,1777
1862,1845,1766
1937,1867,1867
2018,1936,1969
1919,1891,1825
1865,1861,1773
1941,1898,1923
2003,1991,1910
1941,1937,1807
1889,1845,1744
1917,1904,1815
1936,1908,1874
1911,1855,1853
1939,1872,1831
1982,1911,1872
1933,1931,1890
1909,1869,1791
1872,1824,1763
1915,1869,1837
1984,1931,1917
2010,1940,1952
1904,1904,1831
1872,1854,1739
1921,1885,1808
1906,1891,1887
1920,1898,1878
1991,1937,1873
1957,1953,1776
1891,1909,1777
1863,1817,1777
1883,1819,1856
1952,1906,1929
1967,1936,1913
1902,1884,1808
1872,1841,1771
1915,1902,1818
1930,1902,1841
1919,1878,1840
1936,1861,1849
1971,1872,1803
1949,1895,1846
1926,1872,1812
1952,1904,1818
2003,2015,1877
1969,1970,1952
1918,1840,1894
1862,1822,1802
1901,1875,1811
1883,1853,1830
1893,1846,1776
1927,1898,1778
1964,1882,1851
1947,1899,1872
1920,1881,1801
1918,1896,1808
1965,1968,1924
1920,1901,1907
1867,1826,1791
1919,1872,1866
1948,1887,1829
1915,1854,1814
1918,1859,1818
1927,1894,1831
1948,1899,1822
1898,1858,1824
1899,1927,1855
1898,1865,1878
1950,1903,1906
1919,1856,1852
1875,1877,1762
1911,1870,1773
1968,1899,1835
1918,1890,1832
1871,1872,1818
1975,1935,1939
2003,1937,1943
1847,1822,1761
1825,1835,1716
1915,1870,1793
1938,1889,1943
1904,1863,1931
1872,1885,1775
1914,1908,1808
1968,1905,1845
1919,1892,1835
1904,1855,1797
1934,1873,1826
1947,1888,1889
1903,1895,1873
1858,1875,1809
1910,1867,1858
1973,1904,1943
1947,1913,1879
1921,1879,1840
1918,1866,1810
1919,1882,1815
1927,1905,1840
1886,1867,1794
1888,1851,1815
1934,1919,1863
1933,1916,1897
1881,1858,1823
1903,1870,1862
1975,1915,1907
1951,1931,1846
1874,1877,1829
1883,1875,1830
1953,1918,1934
1917,1919,1905
1856,1869,1788
1887,1865,1786
1946,1894,1806
1942,1904,1875
1865,1858,1817
1890,1887,1850
1942,1921,1866
1922,1905,1861
1856,1840,1762
1905,1857,1837
2039,1962,1946
1974,1936,1925
1824,1826,1792
1842,1812,1781
1923,1872,1858
1930,1911,1885
1917,1872,1811
1909,1863,1845
1914,1904,1874
1900,1879,1890
1872,1846,1871
1889,1863,1847
1957,1915,1873
1945,1915,1921
1894,1855,1843
1886,1853,1805
1941,1918,1877
1941,1921,1901
1861,1861,1798
1887,1851,1812
1930,1882,1865
1904,1867,1841
1872,1840,1816
1865,1851,1835
1906,1889,1877
1920,1889,1856
1915,1851,1811
1936,1877,1831
1908,1907,1872
1888,1890,1901
1874,1840,1871
1902,1862,1863
1934,1904,1904
1920,1901,1824
1870,1847,1763
1872,1850,1793
1923,1915,1879
1910,1884,1918
1878,1855,1850
1904,1890,1843
1934,1908,1888
1927,1899,1846
1889,1853,1814
1882,1849,1825
1914,1901,1886
1907,1915,1831
1910,1898,1857
1905,1889,1805
1964,1936,1857
1923,1923,1819
1875,1887,1901
1901,1900,1824
1923,1934,1871
1918,1935,1859
1904,1922,1815
1885,1935,1854
1905,1963,1837
1926,1958,1854
1920,1947,1857
1916,1981,1875
1947,2033,1898
1938,2022,1945
1877,1956,1872
1877,1955,1813
1936,2013,1855
1931,2000,1865
1878,1978,1799
1886,1983,1823
1920,2001,1842
1903,2005,1837
1923,2014,1855
1921,2000,1840
1926,2026,1881
1913,2009,1820
1881,1991,1820
1889,1990,1833
1930,2035,1883
1888,2015,1879
1874,2011,1860
1895,2022,1869
1914,2041,1840
1903,2023,1877
1881,2006,1854
1892,2014,1807
1921,2030,1883
1906,2018,1855
1887,1988,1870
1886,2000,1842
1919,2026,1855
1924,2028,1861
1872,1997,1806
1893,2007,1850
1918,2031,1832
1906,2017,1793
1887,1984,1785
1946,2011,1840
1948,2037,1919
1901,2025,1895
1855,1984,1783
1877,1968,1850
1936,2000,1872
1938,1995,1846
1875,1967,1808
1897,1968,1929
1923,2001,1847
1921,1982,1829
1885,1924,1825
1917,1962,1893
1945,2005,1916
1897,1969,1835
1887,1943,1821
1890,1942,1809
1920,1976,1875
1914,1970,1840
1904,1954,1840
1921,1967,1849
1938,1970,1859
1923,1948,1889
1898,1925,1858
1904,1937,1831
1915,1969,1840
1895,1954,1808
1904,1936,1814
1931,1941,1863
1911,1955,1855
1910,1945,1867
1902,1930,1872
1904,1946,1893
1904,1940,1833
1889,1917,1834
1855,1904,1791
1904,1936,1902
1937,1970,1909
1919,1945,1863
1879,1910,1841
1881,1906,1837
1925,1950,1890
1907,1936,1855
1872,1906,1801
1872,1921,1830
1924,1959,1929
1891,1935,1831
1866,1914,1812
1907,1929,1849
1930,1957,1914
1898,1936,1893
1873,1891,1828
1898,1919,1840
1919,1957,1898
1893,1942,1894
1875,1907,1856
1902,1907,1829
1923,1961,1872
1904,1926,1850
1851,1867,1792
1882,1888,1822
1930,1936,1883
1877,1905,1890
1853,1872,1837
1895,1904,1857
1930,1936,1889
1892,1919,1865
1858,1887,1819
1875,1888,1823
1936,1923,1895
1907,1907,1868
1893,1884,1820
1953,1904,1901
1943,1938,1915
1886,1922,1916
1846,1881,1853
1909,1883,1837
1911,1905,1866
1907,1904,1840
1886,1879,1849
1907,1861,1859
1929,1904,1872
1904,1881,1834
1891,1831,1793
1869,1872,1872
1909,1911,1893
1860,1887,1838
1868,1872,1813
1890,1885,1857
1918,1923,1962
1904,1910,1918
1901,1858,1839
1879,1872,1845
1944,1895,1857
1898,1889,1882
1857,1856,1866
1857,1863,1827
1905,1886,1872
1906,1877,1879
1893,1867,1873
1908,1877,1859
1914,1893,1842
1840,1872,1810
1872,1847,1841
1876,1840,1877
1917,1885,1866
1909,1891,1865
1910,1861,1885
1872,1890,1891
1895,1887,1894
1869,1856,1829
1835,1821,1811
1890,1857,1892
1936,1898,1918
1893,1873,1843
1872,1849,1826
1892,1856,1842
1911,1887,1872
1918,1872,1891
1886,1834,1850
1859,1845,1873
1909,1889,1881
1917,1872,1852
1862,1850,1829
1894,1845,1860
1961,1862,1890
1907,1841,1853
1847,1835,1783
1858,1869,1826
1911,1890,1909
1920,1871,1881
1897,1840,1840
1918,1870,1906
1900,1872,1853
1869,1840,1818
1866,1818,1830
1833,1831,1858
1901,1872,1882
1905,1862,1867
1898,1835,1936
1902,1837,1834
1921,1874,1808
1893,1850,1791
1793,1825,1803
1906,1836,1829
1914,1861,1882
1901,1863,1879
1881,1817,1873
1901,1819,1854
1902,1872,1905
1901,1881,1937
1824,1833,1806
1856,1802,1747
1902,1836,1833
1907,1853,1875
1871,1829,1856
1883,1830,1840
1904,1847,1851
1904,1863,1899
1920,1839,1842
1863,1828,1822
1872,1840,1833
1844,1826,1803
1842,1803,1794
1873,1825,1860
1917,1862,1905
1899,1861,1874
1856,1834,1811
1891,1840,1826
1945,1866,1887
1939,1856,1893
1909,1814,1815
1851,1837,1807
1887,1861,1895
1808,1851,1866
1876,1807,1778
1868,1821,1797
1886,1872,1880
1906,1859,1888
1886,1817,1820
1902,1822,1827
1917,1880,1930
1935,1851,1885
1892,1818,1789
1855,1813,1808
1909,1859,1884
1873,1866,1901
1839,1844,1808
1904,1865,1825
1936,1867,1892
1887,1863,1857
1858,1837,1809
1887,1840,1828
1905,1859,1845
1901,1840,1847
1867,1827,1846
1872,1854,1867
1917,1887,1885
1875,1867,1823
1846,1831,1803
1851,1851,1870
1906,1904,1909
1885,1877,1881
1867,1858,1856
1895,1860,1872
1994,1879,1890
1888,1867,1854
1840,1842,1822
1929,1874,1872
1899,1878,1891
1882,1836,1837
1853,1801,1775
1872,1818,1817
1920,1851,1890
1931,1856,1878
1906,1845,1845
1874,1850,1862
1899,1880,1878
1875,1872,1819
1845,1841,1805
1847,1847,1859
1914,1874,1877
1886,1866,1878
1872,1843,1857
1883,1855,1854
1888,1883,1863
1862,1857,1835
1850,1839,1815
1866,1839,1841
1891,1888,1885
1870,1862,1862
1862,1833,1835
1878,1855,1846
1904,1897,1851
1872,1872,1834
1833,1826,1826
1863,1835,1842
1919,1902,1899
1877,1887,1898
1844,1871,1790
1852,1884,1815
1899,1899,1886
1893,1888,1913
1854,1849,1851
1867,1857,1805
1875,1883,1846
1862,1875,1863
1859,1856,1867
1887,1877,1889
1920,1904,1936
1886,1886,1841
1851,1865,1787
1846,1871,1819
1872,1902,1872
1878,1894,1885
1839,1846,1804
1861,1860,1781
1904,1901,1872
1888,1887,1892
1853,1857,1839
1870,1872,1840
1891,1901,1894
1872,1878,1872
1859,1856,1840
1843,1860,1818
1867,1881,1856
1877,1879,1882
1843,1852,1823
1856,1863,1813
1890,1905,1867
1879,1901,1871
1852,1854,1849
1865,1853,1856
1908,1906,1903
1890,1888,1859
1855,1856,1822
1872,1887,1827
1883,1899,1873
1856,1873,1829
1846,1855,1798
1865,1869,1833
1901,1904,1876
1900,1910,1881
1854,1878,1824
1861,1898,1851
1917,1948,1894
1909,1919,1909
1851,1872,1820
1851,1886,1810
1897,1911,1847
1881,1911,1859
1856,1879,1818
1872,1903,1856
1901,1941,1869
1863,1891,1807
1842,1855,1830
1884,1886,1887
1923,1936,1872
1863,1904,1811
1841,1872,1808
1863,1898,1829
1916,1929,1891
1933,1918,1904
1853,1878,1831
1865,1874,1877
1907,1918,1877
1890,1901,1851
1855,1874,1796
1858,1895,1830
1893,1904,1874
1876,1879,1868
1840,1869,1815
1859,1891,1841
1913,1935,1951
1894,1920,1871
1842,1865,1776
1858,1873,1823
1904,1915,1895
1888,1903,1866
1873,1889,1857
1909,1904,1904
1934,1935,1897
1865,1921,1808
1841,1917,1829
1871,1904,1863
1909,1922,1886
1901,1888,1841
1835,1855,1798
1862,1883,1872
1889,1922,1870
1890,1899,1854
1840,1868,1809
1863,1889,1865
1890,1904,1879
1895,1903,1887
1840,1867,1840
1855,1887,1840
1898,1923,1872
1888,1922,1874
1873,1874,1862
1861,1893,1851
1903,1932,1922
1889,1879,1891
1850,1834,1796
