1821,1914,1616
1786,1873,1570
1807,1899,1587
1840,1922,1618
1813,1939,1588
1777,1870,1535
1809,1904,1586
1846,1918,1621
1812,1931,1602
1776,1899,1577
1802,1869,1597
1842,1898,1615
1813,1919,1597
1779,1859,1566
1793,1891,1587
1841,1936,1631
1825,1943,1613
1793,1879,1591
1808,1905,1607
1833,1861,1623
1819,1891,1607
1795,1831,1604
1812,1884,1631
1830,1939,1652
1799,1859,1620
1783,1842,1597
1811,1857,1619
1842,1903,1670
1824,1902,1651
1793,1851,1607
1807,1850,1626
1821,1872,1668
1808,1853,1648
1781,1842,1610
1811,1863,1649
1844,1885,1685
1814,1863,1664
1787,1871,1627
1808,1909,1653
1844,1859,1694
1825,1877,1674
1798,1856,1648
1807,1891,1665
1842,1919,1713
1824,1904,1699
1785,1859,1655
1808,1864,1694
1840,1911,1734
1821,1872,1707
1783,1871,1664
1809,1895,1709
1840,1876,1744
1820,1926,1741
1802,1870,1706
1820,1897,1717
1840,1904,1744
1827,1885,1723
1803,1840,1711
1808,1904,1728
1851,1890,1773
1834,1904,1755
1799,1879,1723
1812,1899,1737
1842,1904,1770
1823,1902,1755
1799,1840,1717
1813,1901,1746
1838,1939,1776
1833,1881,1767
1803,1866,1753
1820,1856,1791
1847,1989,1819
1824,1876,1787
1792,1834,1747
1811,1873,1774
1846,1878,1808
1829,1907,1793
1795,1872,1766
1820,1887,1786
1850,1909,1822
1823,1889,1783
1786,1883,1759
1823,1890,1807
1860,1923,1840
1831,1882,1813
1794,1840,1787
1813,1879,1809
1847,1914,1853
1824,1883,1814
1793,1845,1794
1805,1862,1809
1824,1881,1840
1822,1894,1840
1813,1890,1834
1827,1873,1840
1835,1965,1868
1821,1890,1847
1800,1858,1814
1813,1875,1838
1846,1959,1875
1818,1946,1851
1790,1821,1814
1809,1834,1841
1842,1871,1874
1817,1885,1841
1799,1872,1822
1830,1920,1859
1845,1932,1881
1825,1873,1861
1796,1862,1830
1810,1808,1840
1853,1894,1876
1840,1841,1870
1809,1875,1840
1831,1904,1865
1853,1889,1896
1824,1873,1862
1807,1824,1831
1829,1851,1857
1857,1892,1895
1838,1877,1873
1802,1840,1849
1828,1853,1864
1859,1904,1895
1840,1867,1872
1796,1826,1843
1823,1855,1863
1856,1872,1895
1843,1849,1863
1814,1818,1840
1835,1797,1872
1866,1906,1907
1840,1882,1887
1811,1862,1849
1837,1827,1867
1865,1887,1907
1850,1877,1895
1823,1839,1859
1840,1825,1870
1871,1858,1913
1850,1845,1898
1813,1889,1859
1840,1915,1881
1862,1905,1917
1843,1965,1904
1815,1841,1872
1833,1797,1889
1872,1791,1916
1853,1872,1910
1814,1814,1878
1835,1845,1892
1873,1872,1930
1849,1904,1906
1817,1845,1871
1831,1830,1878
1874,1871,1922
1857,1860,1907
1830,1834,1877
1847,1853,1903
1872,1872,1920
1856,1871,1905
1823,1840,1870
1841,1840,1877
1872,1875,1919
1855,1863,1914
1824,1838,1889
1840,1840,1902
1871,1869,1921
1845,1856,1894
1818,1809,1863
1851,1824,1899
1873,1871,1925
1847,1853,1911
1820,1808,1885
1831,1838,1903
1858,1867,1921
1831,1842,1891
1813,1808,1863
1847,1825,1888
1886,1856,1923
1858,1835,1903
1823,1808,1865
1841,1823,1892
1870,1862,1920
1845,1846,1910
1813,1777,1883
1827,1787,1872
1856,1829,1898
1840,1821,1904
1822,1785,1889
1842,1803,1901
1867,1833,1911
1835,1827,1894
1810,1792,1878
1837,1812,1899
1871,1828,1917
1840,1808,1892
1813,1789,1871
1838,1798,1903
1871,1840,1921
1851,1831,1904
1821,1748,1871
1826,1744,1875
1856,1821,1904
1840,1813,1880
1827,1773,1867
1855,1792,1903
1877,1840,1936
1856,1829,1915
1823,1775,1869
1845,1786,1873
1870,1804,1897
1857,1807,1903
1840,1792,1899
1859,1778,1921
1881,1803,1936
1855,1788,1897
1826,1762,1867
1845,1773,1897
1883,1802,1916
1871,1793,1907
1840,1759,1872
1856,1770,1897
1886,1802,1935
1859,1774,1902
1825,1729,1866
1850,1765,1896
1887,1808,1931
1872,1776,1909
1835,1725,1878
1857,1735,1886
1873,1779,1913
1862,1777,1899
1839,1739,1878
1857,1729,1902
1882,1762,1926
1855,1749,1903
1817,1705,1872
1839,1740,1882
1876,1772,1920
1863,1762,1895
1829,1725,1857
1844,1741,1877
1885,1776,1907
1872,1739,1894
1840,1705,1875
1856,1715,1885
1889,1757,1909
1872,1759,1889
1840,1727,1877
1850,1697,1879
1872,1728,1908
1870,1739,1897
1843,1712,1875
1852,1724,1899
1872,1744,1919
1856,1757,1889
1841,1713,1865
1856,1712,1893
1878,1745,1920
1876,1734,1887
1839,1707,1863
1852,1721,1892
1873,1766,1905
1862,1770,1882
1828,1701,1845
1850,1686,1875
1884,1727,1904
1862,1738,1878
1827,1731,1862
1843,1712,1872
1876,1722,1904
1872,1707,1885
1843,1699,1855
1845,1723,1872
1875,1767,1904
1865,1719,1873
1830,1658,1835
1841,1682,1871
1882,1723,1909
1872,1731,1880
1826,1683,1835
1834,1686,1855
1869,1719,1899
1861,1744,1897
1840,1742,1866
1850,1695,1872
1879,1723,1904
1862,1753,1873
1811,1587,1800
1824,1616,1838
1877,1698,1895
1869,1744,1887
1835,1681,1849
1844,1732,1856
1875,1712,1885
1855,1585,1851
1825,1620,1822
1857,1674,1868
1895,1712,1911
1873,1716,1886
1842,1756,1850
1855,1735,1867
1869,1627,1879
1851,1630,1861
1840,1654,1840
1861,1682,1870
1887,1697,1888
1862,1706,1869
1827,1687,1881
1850,1701,1865
1884,1722,1918
1855,1690,1859
1813,1664,1791
1852,1691,1887
1888,1726,1895
1859,1723,1851
1830,1648,1867
1837,1651,1820
1866,1699,1872
1855,1692,1869
1837,1673,1835
1856,1698,1847
1865,1713,1915
1847,1680,1843
1825,1661,1801
1841,1661,1859
1870,1726,1886
1847,1732,1866
1815,1653,1829
1819,1655,1838
1865,1737,1901
1855,1719,1887
1822,1653,1808
1833,1633,1847
1866,1680,1872
1856,1703,1876
1821,1679,1876
1830,1680,1869
1851,1684,1885
1849,1700,1846
1822,1671,1843
1841,1696,1867
1871,1732,1882
1846,1714,1861
1829,1672,1840
1842,1671,1843
1872,1708,1865
1851,1693,1851
1827,1679,1833
1852,1712,1821
1882,1733,1878
1847,1697,1840
1821,1677,1777
1851,1720,1866
1883,1739,1906
1867,1712,1847
1827,1655,1850
1836,1706,1844
1863,1715,1875
1871,1680,1820
1853,1690,1833
1828,1706,1782
1843,1727,1850
1851,1718,1851
1837,1682,1820
1849,1705,1872
1878,1738,1904
1872,1775,1885
1844,1707,1831
1843,1667,1834
1867,1696,1868
1856,1702,1853
1842,1692,1841
1842,1689,1856
1861,1718,1837
1863,1726,1849
1840,1681,1858
1849,1698,1872
1867,1723,1888
1851,1715,1855
1836,1687,1815
1857,1702,1846
1886,1746,1911
1872,1774,1881
1840,1687,1782
1840,1674,1847
1877,1712,1853
1860,1726,1869
1839,1703,1803
1856,1710,1865
1882,1739,1868
1862,1742,1853
1833,1714,1839
1850,1717,1820
1878,1747,1843
1874,1741,1872
1868,1762,1857
1855,1744,1840
1867,1697,1859
1858,1684,1871
1829,1670,1843
1839,1703,1841
1874,1741,1894
1872,1739,1866
1865,1716,1846
1872,1718,1841
1887,1738,1872
1853,1730,1843
1827,1711,1839
1851,1723,1859
1886,1757,1909
1872,1759,1898
1840,1728,1861
1857,1726,1862
1897,1765,1868
1872,1718,1853
1866,1678,1839
1867,1735,1831
1886,1773,1857
1864,1759,1926
1855,1738,1887
1881,1751,1839
1913,1793,1892
1870,1766,1935
1819,1744,1881
1840,1741,1844
1872,1775,1898
1855,1771,1837
1823,1734,1849
1847,1771,1823
1872,1813,1907
1871,1749,1879
1838,1715,1842
1858,1745,1890
1891,1792,1892
1874,1787,1860
1840,1763,1889
1867,1776,1877
1903,1767,1923
1872,1787,1878
1823,1765,1824
1840,1757,1823
1887,1791,1899
1877,1777,1879
1840,1776,1841
1847,1749,1856
1894,1765,1878
1875,1770,1842
1835,1750,1847
1845,1765,1902
1877,1799,1867
1888,1811,1857
1862,1756,1859
1840,1744,1899
1870,1786,1941
1859,1782,1917
1834,1744,1830
1857,1770,1860
1920,1849,1935
1901,1840,1872
1825,1782,1852
1839,1782,1821
1879,1809,1842
1904,1846,1877
1894,1776,1894
1920,1851,1879
1891,1861,1875
1789,1794,1812
1777,1790,1789
1849,1851,1819
1936,1963,1905
1904,1978,1890
1796,1927,1785
1808,1940,1792
1869,2021,1872
1862,2065,1870
1850,2103,1840
1819,2045,1821
1853,2112,1856
1857,2143,1866
1829,2109,1829
1837,2145,1830
1861,2221,1844
1877,2247,1850
1857,2218,1840
1856,2209,1837
1904,2288,1872
1862,2250,1818
1761,2186,1702
1731,2195,1745
1815,2308,1885
1918,2346,1952
1841,2239,1766
1756,2183,1745
1751,2235,1793
1786,2257,1778
1851,2265,1815
1810,2224,1834
1794,2256,1807
1808,2281,1819
1783,2217,1749
1817,2212,1769
1952,2295,1827
1947,2285,1691
1699,2140,1694
1661,2138,1831
1777,2192,1899
1838,2169,1770
1726,2126,1708
1782,2133,1793
1810,2153,1888
1775,2118,1809
1712,2079,1706
1773,2077,1751
1809,2108,1887
1803,2057,1798
1758,2036,1777
1725,2022,1735
1746,2035,1758
1817,2058,1791
1840,1988,1799
1856,1966,1778
1937,2007,1791
1808,1997,1681
1593,1905,1734
1650,1904,1840
1830,1951,1865
1837,1928,1776
1823,1920,1757
1771,1911,1775
1693,1898,1747
1659,1861,1744
1680,1799,1715
1761,1809,1763
1739,1840,1827
1680,1832,1776
1655,1799,1629
1698,1737,1660
1663,1739,1748
1683,1770,1881
1666,1707,1732
1730,1762,1634
1713,1763,1721
1648,1673,1770
1645,1651,1723
1601,1651,1703
1606,1648,1695
1697,1649,1674
1625,1638,1719
1577,1644,1730
1597,1651,1735
1606,1616,1707
1600,1606,1707
1606,1610,1728
1639,1580,1767
1629,1559,1792
1655,1519,1739
1578,1533,1675
1599,1570,1774
1639,1582,1769
1609,1559,1713
1605,1563,1749
1642,1574,1838
1618,1520,1859
1595,1488,1697
1618,1494,1697
1683,1521,1728
1557,1510,1755
1525,1479,1761
1601,1532,1774
1625,1580,1792
1601,1472,1776
1616,1410,1776
1655,1490,1810
1695,1622,1845
1628,1517,1802
1603,1392,1746
1648,1441,1792
1635,1461,1802
1630,1456,1751
1610,1461,1755
1581,1417,1807
1594,1424,1761
1606,1456,1709
1631,1485,1775
1658,1457,1812
1676,1459,1889
1672,1482,1825
1679,1476,1775
1662,1427,1840
1653,1426,1812
1621,1426,1762
1605,1388,1818
1632,1417,1875
1665,1481,1876
1670,1518,1744
1617,1409,1729
1639,1374,1802
1704,1418,1854
1735,1458,1856
1583,1417,1802
1535,1446,1826
1584,1465,1873
1606,1473,1809
1521,1447,1823
1503,1423,1879
1535,1472,1882
1502,1417,1777
1466,1392,1763
1490,1461,1776
1526,1418,1841
1530,1398,1949
1495,1409,1947
1483,1409,1786
1522,1488,1805
1531,1520,1829
1509,1505,1756
1566,1500,1906
1535,1390,1957
1465,1277,1850
1392,1296,1758
1477,1371,1805
1535,1479,1856
1520,1462,1847
1405,1376,1802
1429,1374,1854
1487,1443,1862
1520,1498,1835
1472,1490,1806
1454,1392,1825
1501,1344,1872
1520,1429,1845
1495,1442,1765
1488,1453,1777
1488,1425,1872
1493,1424,1857
1455,1403,1833
1535,1408,1895
1588,1486,1859
1466,1432,1839
1456,1443,1840
1490,1458,1807
1564,1522,1863
1535,1446,1878
1467,1411,1850
1467,1450,1809
1500,1425,1808
1514,1428,1792
1526,1433,1839
1605,1475,1800
1570,1529,1861
1499,1514,1862
1455,1453,1771
1507,1472,1904
1614,1535,1973
1515,1488,1785
1459,1403,1710
1503,1438,1774
1561,1523,1856
1562,1519,1845
1535,1494,1872
1562,1488,1804
1589,1535,1827
1531,1584,1877
1594,1687,1867
1570,1702,1843
1535,1385,1834
1568,1385,1866
1601,1490,1887
1600,1569,1776
1655,1664,1825
1591,1557,1828
1566,1488,1839
1607,1562,1888
1661,1664,1911
1675,1609,1826
1591,1493,1813
1589,1523,1826
1633,1613,1835
1586,1602,1823
1592,1611,1783
1643,1644,1853
1726,1761,1920
1675,1701,1856
1598,1511,1775
1627,1591,1831
1664,1571,1905
1662,1597,1814
1666,1647,1791
1685,1635,1834
1701,1710,1885
1700,1715,1877
1682,1685,1776
1677,1655,1806
1669,1574,1834
1694,1662,1849
1680,1669,1872
1680,1647,1865
1709,1710,1840
1715,1600,1817
1754,1610,1829
1744,1758,1855
1666,1745,1774
1686,1652,1792
1673,1674,1831
1664,1718,1818
1712,1734,1872
1738,1743,1873
1717,1740,1843
1705,1843,1791
1710,1702,1783
1712,1616,1808
1705,1686,1861
1753,1810,1864
1744,1771,1796
1735,1732,1791
1744,1787,1798
1786,1834,1835
1774,1776,1845
1769,1834,1869
1694,1746,1762
1741,1715,1840
1776,1713,1889
1761,1839,1750
1680,1795,1730
1705,1729,1875
1754,1776,1862
1811,1819,1789
1794,1842,1774
1729,1831,1859
1798,1895,1840
1776,1901,1755
1719,1773,1777
1775,1845,1854
1793,1847,1856
1751,1808,1770
1754,1726,1776
1809,1776,1796
1798,1808,1789
1763,1854,1823
1767,1911,1814
1835,1902,1857
1822,1822,1840
1813,1849,1817
1795,1877,1811
1779,1895,1765
1813,1855,1837
1807,1802,1857
1819,1838,1823
1829,1904,1762
1837,1968,1818
1859,1938,1846
1790,1840,1779
1841,1862,1824
1924,1858,1914
1827,1853,1786
1763,1860,1846
1776,1904,1822
1857,1922,1802
1887,1984,1803
1831,1808,1808
1840,1758,1840
1887,1869,1883
1873,1873,1903
1823,1874,1755
1829,1888,1728
1889,1934,1825
1891,1901,1840
1881,1883,1875
1876,1911,1892
1917,1920,1886
1870,1918,1856
1847,1904,1817
1869,1872,1774
1919,1861,1830
1910,1840,1887
1886,1893,1887
1854,1872,1778
1895,1869,1797
1924,1903,1859
1908,1904,1901
1901,1872,1882
1884,1822,1840
1909,1909,1839
1887,1904,1786
1919,1907,1831
1934,1949,1911
1925,1898,1829
1904,1873,1835
1937,2059,1958
1969,1870,1904
1904,1713,1806
1855,1697,1711
1902,1864,1802
1974,1935,1887
1982,1921,1904
1927,1913,1856
1915,1937,1843
1941,1937,1892
1933,1905,1829
1919,1909,1806
1923,2066,1915
2006,2095,1904
1946,1905,1902
1883,1872,1794
1924,1856,1840
1991,1893,1910
1927,1827,1872
1888,1907,1818
1946,1984,1866
1968,2079,1900
1913,2045,1875
1885,1863,1776
1919,1845,1792
1957,1887,1840
1936,1907,1839
1961,2019,1857
1977,2079,1955
1994,2029,1937
1927,1915,1814
1871,1936,1792
1918,2032,1863
1939,2047,1840
1924,1930,1840
1937,1907,1888
1906,1987,1842
1968,2113,1846
1968,2129,1847
1955,2122,1879
1953,2103,1883
1934,2094,1841
1935,2143,1835
1935,2170,1888
1986,2248,1959
1971,2169,1885
1904,2087,1783
1909,2126,1803
1919,2117,1824
1965,2229,1884
2002,2249,1868
1934,2107,1776
1941,2156,1872
1968,2192,1956
1927,2194,1856
1941,2224,1799
1929,2240,1793
1936,2125,1840
1936,2085,1865
1918,2167,1885
1955,2204,1972
1983,2323,1868
1999,2194,1761
1950,2157,1776
1943,2208,1838
2011,2270,1943
1948,2211,1904
1899,2118,1789
1860,2151,1787
1903,2106,1849
1930,2129,1884
1949,2145,1883
1986,2189,1903
1973,2270,1867
1947,2211,1838
1906,2134,1789
1923,2075,1805
1987,2170,1918
2007,2286,1904
1938,2114,1841
1908,2102,1801
1945,2087,1876
1941,2045,1865
1927,2096,1839
1933,2155,1850
1995,2160,1915
2015,2262,2001
1955,2109,1827
1919,2001,1775
1933,2047,1820
1956,2123,1867
1936,2025,1858
1980,2010,1887
2000,2113,1904
1963,2071,1824
1925,2038,1823
1920,2066,1864
1984,2071,1920
2019,2003,1927
1990,1981,1879
1963,2019,1849
1990,2112,1934
1981,2192,1885
1901,1894,1776
1945,1970,1834
2001,1985,1918
1987,2057,1898
1968,2054,1881
1936,1958,1797
1974,2023,1874
2027,2001,1946
2014,2028,1883
1984,2059,1858
1949,1975,1864
1939,1909,1858
1927,1855,1847
1965,1981,1890
1988,1987,1914
1995,2001,1879
1990,1963,1840
1996,2087,1888
1971,1854,1882
1969,2001,1899
1962,1936,1822
1967,1895,1826
2000,1952,1875
1994,1952,1878
1949,1963,1870
1962,1879,1877
2027,1936,1875
1970,1905,1847
1937,1930,1866
1975,1958,1893
2038,1968,1944
1997,1867,1915
1967,1838,1879
1946,1817,1861
1993,1883,1871
1967,1895,1871
1953,1840,1898
1969,1808,1919
2000,1822,1935
1986,1890,1903
1961,1856,1863
1979,1903,1825
2025,1893,1899
2011,1898,1927
1999,1782,1901
1973,1954,1826
2032,1961,1906
2036,1759,1909
1917,1662,1818
1914,1748,1829
2001,1821,1873
2035,1867,1904
1973,1774,1846
1948,1840,1828
2001,1841,1904
2021,1889,1920
2023,1791,1879
2038,1850,1888
1982,1776,1869
1937,1735,1839
1954,1765,1845
1968,1739,1854
2015,1750,1904
1975,1665,1935
1952,1763,1855
2013,1764,1834
2000,1807,1881
1989,1893,1910
1929,1762,1862
1980,1730,1887
2097,1851,1981
2000,1775,1877
1919,1707,1821
1922,1685,1807
1959,1750,1856
1997,1808,1904
2003,1885,1846
1966,1778,1852
1979,1761,1922
1996,1808,1877
1968,1680,1833
1993,1751,1806
1965,1712,1835
1989,1679,1883
2004,1725,1872
1999,1821,1895
1981,1841,1895
1949,1829,1845
1990,1732,1852
1955,1654,1831
1959,1728,1889
1959,1775,1903
1965,1773,1872
2002,1776,1882
2013,1744,1893
1983,1762,1812
1935,1664,1782
1969,1740,1889
2055,1894,1984
1990,1757,1887
1927,1677,1775
1941,1695,1775
1997,1785,1920
2018,1797,1919
1959,1712,1851
1975,1724,1862
1965,1798,1889
1935,1742,1861
1950,1649,1808
1979,1744,1851
1989,1775,1901
1967,1750,1873
1936,1710,1819
1987,1730,1850
2032,1808,1877
1969,1808,1863
1931,1777,1882
1954,1742,1862
1983,1698,1875
1975,1711,1859
1971,1680,1881
1951,1703,1845
1969,1744,1872
1947,1717,1837
1937,1702,1870
1967,1726,1892
2018,1819,1909
2000,1806,1904
1924,1718,1837
1944,1695,1795
1953,1675,1871
1930,1721,1878
1931,1730,1865
2001,1738,1855
2001,1798,1888
2000,1771,1915
1974,1724,1866
1963,1694,1841
1968,1734,1856
1991,1750,1871
1923,1775,1841
1974,1813,1871
1968,1744,1878
1949,1704,1856
1957,1709,1813
1943,1706,1831
2039,1840,1876
2011,1740,1961
1916,1636,1872
1962,1712,1845
2000,1819,1888
2030,1904,1936
1923,1652,1805
1919,1616,1796
1903,1713,1817
1995,1823,1910
1923,1729,1833
1935,1648,1851
2047,1798,1904
1943,1863,1913
1977,1701,1869
1951,1670,1767
1950,1715,1837
1965,1710,1873
2038,1746,1909
1986,1792,1904
1959,1850,1842
1937,1712,1835
1895,1626,1808
1950,1754,1842
2014,1799,1895
1967,1839,1876
1905,1712,1848
1922,1660,1847
1938,1727,1876
1938,1792,1883
1933,1718,1891
1958,1778,1858
1965,1821,1853
1936,1797,1878
1935,1719,1840
1978,1773,1846
2002,1811,1881
1917,1743,1871
1917,1741,1806
1905,1692,1850
1950,1741,1930
1936,1775,1881
1909,1679,1835
2019,1781,1824
2006,1863,1981
1923,1837,1917
1844,1722,1792
1897,1744,1792
1948,1830,1847
1931,1744,1858
1911,1711,1817
1930,1743,1871
1982,1785,1904
1961,1753,1882
1905,1786,1781
1930,1799,1809
1963,1776,1879
1936,1728,1857
1933,1766,1856
1967,1852,1883
1937,1840,1871
1920,1683,1865
1872,1712,1822
1889,1751,1857
1936,1762,1839
1965,1834,1886
1893,1827,1840
1933,1783,1837
1963,1803,1932
1983,1831,1869
1877,1707,1770
1862,1698,1806
1942,1775,1894
1953,1773,1936
1955,1745,1811
1955,1772,1813
1935,1781,1936
1907,1781,1872
1913,1744,1850
1892,1776,1825
1918,1808,1829
1937,1777,1875
1951,1782,1840
1921,1783,1939
1875,1707,1822
1863,1721,1787
1893,1750,1779
1936,1815,1877
1937,1824,1906
1954,1824,1920
1964,1855,1875
1872,1732,1808
1837,1690,1815
1855,1750,1913
1861,1766,1829
1926,1840,1811
1975,1822,1847
1931,1778,1919
1891,1735,1879
1894,1739,1855
1941,1839,1904
1933,1827,1874
1857,1729,1817
1893,1776,1808
1991,1882,1878
1920,1836,1843
1921,1732,1813
1889,1833,1849
1925,1808,1878
1905,1767,1899
1870,1761,1874
1879,1761,1839
1935,1837,1890
1968,1872,1840
1914,1778,1802
1902,1776,1808
1905,1764,1877
1907,1791,1936
1898,1777,1877
1897,1781,1862
1959,1856,1874
1920,1802,1877
1838,1770,1807
1911,1749,1872
1979,1854,1910
1922,1840,1885
1889,1876,1829
1897,1857,1872
1938,1714,1825
1873,1677,1876
1856,1705,1803
1970,1776,1867
1952,1843,1897
1886,1789,1889
1863,1711,1815
1867,1762,1900
1903,1870,1843
1906,1785,1834
1886,1643,1826
1878,1723,1840
1875,1834,1852
1898,1783,1917
1898,1698,1943
1856,1691,1834
1920,1813,1825
1954,1809,1861
1876,1649,1851
1877,1723,1883
1949,1781,1859
1915,1814,1854
1872,1717,1839
1894,1683,1856
1917,1789,1840
1903,1692,1828
1841,1693,1810
1840,1696,1797
1894,1775,1839
1925,1783,1879
1858,1782,1840
1893,1743,1923
1900,1742,1882
1922,1812,1889
1883,1785,1883
1870,1730,1789
1884,1779,1810
1894,1750,1801
1860,1667,1795
1827,1726,1895
1863,1840,1897
1914,1830,1844
1977,1807,1792
1824,1718,1794
1871,1771,1824
1894,1786,1888
1862,1826,1821
1899,1711,1830
1889,1771,1872
1901,1844,1895
1836,1759,1797
1885,1717,1848
1839,1778,1891
1884,1759,1810
1917,1773,1808
1920,1835,1872
1969,1890,1893
1883,1840,1831
1851,1717,1793
1856,1749,1798
1936,1825,1870
1930,1867,1837
1840,1767,1803
1839,1691,1874
1906,1745,1872
1871,1814,1857
1850,1834,1855
1871,1831,1834
1876,1821,1918
1920,1778,1873
1904,1738,1818
1883,1783,1886
1916,1840,1862
1923,1872,1849
1901,1775,1809
1952,1859,1861
1856,1824,1819
1841,1757,1831
1856,1744,1817
1867,1816,1877
1890,1847,1876
1937,1793,1840
1945,1792,1806
1862,1792,1791
1877,1856,1881
1872,1870,1923
1862,1823,1867
1849,1777,1739
1875,1874,1808
1943,1901,1939
1873,1738,1886
1846,1684,1753
1872,1781,1818
1905,1851,1877
1884,1865,1835
1835,1765,1808
1851,1839,1935
1893,1920,1856
1892,1866,1858
1840,1743,1807
1894,1810,1835
1979,1931,1913
1877,1831,1857
1835,1763,1815
1885,1813,1840
1870,1808,1825
1821,1822,1823
1829,1846,1820
1911,1827,1887
1910,1894,1871
1808,1841,1783
1849,1778,1815
1907,1792,1882
1904,1857,1887
1863,1858,1851
1877,1821,1843
1795,1840,1825
1875,1876,1893
1869,1811,1866
1860,1794,1846
1873,1835,1851
1906,1861,1871
1856,1804,1789
1861,1829,1794
1922,1870,1831
1881,1815,1837
1819,1815,1837
1867,1833,1840
1907,1857,1872
1904,1834,1876
1900,1802,1854
1825,1831,1840
1862,1877,1867
1922,1801,1887
1856,1822,1829
1865,1854,1841
1852,1877,1843
1904,1857,1886
1879,1863,1866
1845,1893,1794
1927,1918,1839
1939,1815,1879
1857,1685,1855
1808,1770,1812
1925,1895,1859
1889,1872,1869
1801,1803,1867
1808,1822,1895
1885,1872,1872
1891,1900,1855
1872,1839,1785
1875,1859,1835
1865,1891,1903
1872,1808,1904
1875,1764,1857
1883,1779,1791
1873,1851,1787
1872,1842,1871
1883,1830,1837
1878,1875,1843
1890,1839,1843
1875,1786,1842
1867,1827,1828
1858,1841,1840
1933,1895,1926
1894,1907,1850
1869,1771,1796
1850,1731,1805
1936,1819,1850
1920,1899,1882
1867,1859,1872
1834,1786,1829
1843,1779,1871
1903,1806,1857
1812,1781,1819
1860,1818,1859
1901,1926,1889
1925,1891,1911
1866,1756,1873
1850,1808,1870
1888,1930,1885
1973,1965,1831
1891,1783,1850
1809,1729,1808
1811,1757,1831
1856,1760,1839
1854,1773,1836
1875,1833,1830
1904,1859,1893
1919,1839,1883
1856,1797,1813
1865,1840,1813
1939,1872,1904
1954,1856,1910
1846,1824,1873
1853,1830,1852
1916,1799,1842
1814,1813,1857
1841,1785,1770
1871,1767,1819
1847,1819,1849
1847,1850,1856
1868,1821,1856
1872,1888,1857
1873,1819,1845
1884,1808,1851
1879,1776,1838
1873,1776,1830
1841,1757,1889
1886,1840,1922
1906,1827,1840
1844,1788,1830
1904,1815,1884
1935,1847,1909
1855,1821,1793
1842,1834,1790
1910,1911,1841
1904,1968,1866
1903,1920,1841
1889,1712,1813
1876,1758,1871
1858,1765,1870
1845,1789,1813
1861,1814,1821
1913,1887,1900
1906,1901,1829
1843,1788,1826
1829,1799,1841
1885,1906,1904
1967,2033,2011
1905,1782,1760
1781,1680,1707
1802,1777,1808
1829,1850,1867
1852,1853,1846
1854,1869,1906
1932,1951,1919
1933,1902,1858
1835,1792,1771
1843,1765,1820
1849,1856,1915
1908,1893,1916
1867,1871,1869
1883,1821,1815
1872,1783,1815
1930,1838,1858
1865,1858,1867
1925,1865,1867
1935,1906,1872
1919,1878,1835
1853,1829,1787
1870,1846,1834
1893,1876,1890
1921,1872,1837
1853,1840,1841
1909,1794,1785
1881,1904,1850
1883,1853,1887
1806,1805,1863
1946,1886,1903
1876,1863,1882
1849,1813,1785
1899,1834,1774
1870,1872,1817
1888,1833,1884
1911,1846,1872
1905,1863,1829
1842,1855,1790
1856,1915,1879
1821,1937,1937
1852,1805,1814
1856,1744,1787
1889,1840,1850
1862,1855,1861
1847,1813,1823
1869,1886,1835
1883,1908,1926
1882,1901,1895
1875,1842,1851
1876,1841,1835
1890,1909,1857
1871,1981,1855
1863,1811,1814
1885,1769,1823
1943,1874,1903
1872,1855,1882
1786,1834,1803
1803,1827,1776
1861,1810,1830
1895,1841,1887
1860,1898,1857
1861,1994,1855
1885,1936,1850
1856,1794,1875
1850,1783,1858
1885,1866,1962
1893,1846,1851
1891,1878,1807
1906,1868,1842
1886,1874,1825
1847,1840,1807
1840,1809,1809
1835,1799,1840
1847,1883,1872
1904,2012,1914
1898,2073,1910
1838,1737,1833
1852,1698,1833
1902,1871,1893
1898,1895,1885
1853,1894,1829
1855,1882,1843
1899,1887,1840
1883,1866,1856
1865,1849,1840
1889,1899,1877
1926,1943,1904
1857,1819,1868
1815,1871,1808
1822,1904,1807
1859,1884,1849
1924,1851,1891
1904,1874,1918
1835,1872,1894
1826,1846,1792
1848,1869,1809
1856,1869,1860
1881,1891,1897
1932,2046,1957
1926,1953,1882
1872,1801,1819
1862,1792,1808
1875,1805,1856
1875,1854,1866
1837,1854,1840
1856,1856,1835
1943,1927,1911
1885,1954,1911
1829,1920,1861
1866,1842,1946
1873,1845,1822
1858,1873,1755
1857,1904,1783
1872,1945,1821
1893,1903,1885
1901,1858,1867
1852,1872,1830
1872,1943,1887
1918,1968,1917
1904,1913,1829
1873,1847,1801
1890,1811,1836
1890,1930,1891
1882,1921,1895
1862,1875,1855
1849,1888,1863
1901,1907,1855
1887,1908,1837
1854,1882,1840
1872,1953,1847
1879,1919,1936
1863,1801,1824
1852,1853,1796
1903,1914,1904
1939,1921,1956
1903,1944,1893
1872,1873,1795
1839,1817,1765
1869,1834,1837
1856,1913,1845
1855,1935,1865
1868,1872,1838
1889,1906,1910
1885,1941,1861
1846,1859,1814
1840,1785,1822
1911,1875,1905
1903,1966,1911
1837,1872,1821
1872,1839,1826
1906,1967,1866
1888,1903,1843
1838,1845,1818
1904,1867,1866
1900,1863,1898
1843,1899,1850
1879,1937,1776
1794,1743,1815
1839,1808,1907
1894,1909,1889
1898,1968,1855
1830,1809,1763
1840,1835,1815
1854,1862,1872
1856,1861,1837
1855,1882,1855
1907,1965,1904
1909,1903,1878
1855,1818,1841
1859,1819,1808
1903,1958,1888
1904,1938,1927
1863,1907,1837
1847,1801,1810
1889,1797,1835
1885,1889,1866
1871,1953,1872
1845,1951,1853
1891,1895,1861
1870,1831,1840
1856,1782,1838
1882,1830,1827
1920,1954,1841
1906,1987,1898
1868,1904,1885
1844,1828,1889
1874,1853,1863
1871,1864,1845
1867,1889,1854
1915,1949,1918
1909,1884,1869
1878,1809,1834
1839,1799,1778
1855,1871,1847
1900,1956,1890
1904,1953,1873
1869,1892,1804
1873,1805,1795
1926,1842,1856
1900,1897,1888
1847,1881,1919
1840,1867,1873
1875,1824,1840
1911,1866,1873
