1849,1856,1837
1882,1858,1863
1888,1879,1878
1856,1879,1823
1856,1855,1808
1910,1914,1904
1895,1894,1903
1866,1852,1839
1858,1855,1805
1887,1891,1869
1899,1892,1879
1869,1855,1853
1846,1844,1810
1866,1843,1831
1891,1902,1866
1875,1877,1891
1863,1883,1830
1920,1931,1867
1899,1908,1872
1845,1859,1805
1817,1834,1776
1901,1881,1907
1931,1903,1936
1913,1887,1845
1813,1863,1759
1840,1869,1815
1895,1904,1909
1874,1908,1870
1857,1860,1797
1888,1861,1844
1916,1904,1875
1891,1872,1866
1879,1872,1861
1861,1889,1827
1883,1927,1858
1875,1893,1856
1861,1856,1833
1885,1885,1850
1914,1917,1891
1890,1920,1902
1895,1889,1838
1905,1893,1891
1885,1908,1865
1855,1890,1799
1866,1881,1826
1887,1903,1898
1907,1953,1886
1870,1883,1825
1845,1829,1814
1881,1906,1874
1962,1965,1991
1860,1878,1801
1798,1841,1783
1856,1904,1842
1922,1943,1901
1872,1882,1840
1847,1857,1819
1885,1904,1865
1923,1931,1878
1907,1919,1835
1867,1875,1787
1867,1921,1879
1904,1938,1897
1871,1873,1809
1884,1871,1847
1880,1888,1882
1904,1925,1885
1882,1917,1831
1849,1876,1810
1879,1892,1857
1875,1913,1897
1856,1891,1830
1847,1840,1808
1903,1887,1870
1929,1925,1904
1878,1887,1829
1875,1900,1840
1914,1904,1843
1904,1913,1851
1867,1867,1835
1845,1858,1831
1894,1902,1876
1881,1915,1859
1858,1884,1824
1841,1856,1814
1913,1924,1879
1910,1922,1906
1866,1884,1883
1847,1873,1808
1902,1909,1840
1917,1911,1894
1875,1867,1878
1842,1859,1801
1885,1920,1835
1920,1937,1876
1904,1889,1857
1853,1853,1808
1882,1904,1856
1926,1947,1881
1896,1887,1831
1891,1854,1811
1904,1877,1842
1885,1919,1881
1860,1889,1847
1875,1895,1850
1901,1907,1856
1908,1898,1874
1883,1893,1869
1875,1875,1882
1873,1892,1845
1903,1918,1862
1875,1872,1837
1853,1855,1839
1904,1915,1883
1918,1941,1894
1895,1917,1854
1889,1879,1837
1904,1913,1888
1936,1956,1917
1872,1927,1851
1861,1900,1837
1899,1935,1843
1882,1921,1861
1873,1904,1838
1872,1913,1844
1909,1927,1894
1920,1943,1868
1858,1910,1827
1840,1901,1859
1879,1936,1920
1905,1981,1904
1872,1950,1849
1871,1938,1840
1894,1945,1866
1908,1959,1857
1895,1910,1846
1872,1936,1833
1874,1959,1877
1890,1931,1862
1874,1915,1803
1875,1925,1841
1910,1962,1856
1906,1936,1888
1867,1900,1887
1869,1927,1821
1882,1947,1810
1930,1977,1938
1898,1968,1894
1837,1914,1814
1859,1911,1834
1878,1923,1856
1891,1955,1860
1882,1923,1861
1889,1914,1837
1889,1920,1837
1855,1921,1792
1858,1915,1831
1899,1933,1867
1936,1941,1907
1878,1932,1808
1829,1893,1842
1863,1913,1831
1917,1980,1866
1892,1934,1841
1872,1887,1808
1889,1917,1860
1901,1931,1861
1892,1915,1879
1876,1878,1843
1881,1936,1837
1903,1971,1870
1863,1922,1809
1867,1872,1821
1887,1899,1918
1922,1953,1909
1886,1939,1824
1835,1895,1856
1891,1922,1842
1907,1946,1858
1861,1897,1783
1850,1903,1881
1875,1904,1872
1914,1939,1903
1922,1940,1895
1889,1897,1850
1895,1906,1863
1875,1951,1933
1841,1922,1881
1845,1876,1826
1882,1899,1875
1918,1941,1885
1878,1937,1823
1827,1873,1773
1872,1915,1862
1914,1942,1914
1886,1903,1823
1876,1893,1855
1866,1911,1808
1872,1931,1846
1854,1941,1859
1861,1903,1838
1940,1951,1872
1916,1920,1855
1841,1877,1813
1835,1884,1825
1903,1947,1940
1950,1962,1897
1873,1875,1787
1826,1863,1774
1865,1904,1840
1910,1946,1984
1891,1920,1904
1871,1871,1795
1870,1889,1772
1898,1938,1844
1860,1917,1813
1854,1887,1819
1902,1909,1839
1939,1919,1936
1919,1933,1898
1822,1855,1775
1839,1883,1805
1886,1915,1858
1879,1895,1866
1877,1872,1843
1895,1907,1958
1932,1967,1904
1877,1875,1872
1855,1847,1834
1902,1891,1859
1902,1929,1872
1861,1875,1808
1867,1868,1795
1932,1918,1872
1941,1930,1909
1885,1863,1863
1870,1842,1840
1875,1878,1843
1894,1917,1840
1934,1927,1853
1904,1879,1943
1835,1846,1807
1861,1889,1853
1882,1878,1854
1897,1844,1840
1914,1904,1920
1901,1926,1853
1862,1840,1842
1856,1808,1801
1903,1872,1846
1946,1908,1932
1897,1872,1893
1855,1852,1883
1857,1848,1776
1906,1890,1868
1962,1904,1891
1857,1866,1839
1834,1847,1805
1886,1869,1834
1890,1856,1862
1889,1869,1862
1876,1872,1856
1884,1904,1865
1872,1871,1819
1876,1855,1867
1881,1881,1930
1883,1888,1837
1863,1865,1850
1871,1854,1830
1911,1892,1887
1920,1903,1840
1887,1903,1812
1893,1904,1911
1895,1903,1921
1877,1856,1803
1862,1795,1838
1842,1812,1825
1899,1871,1917
1911,1902,1840
1892,1872,1886
1864,1851,1843
1873,1905,1857
1883,1904,1855
1865,1868,1887
1857,1840,1812
1876,1871,1881
1929,1927,1838
1910,1915,1939
1853,1819,1852
1858,1853,1860
1894,1883,1878
1872,1878,1847
1841,1865,1837
1879,1877,1882
1910,1897,1882
1867,1878,1819
1859,1869,1825
1872,1882,1901
1917,1921,1922
1872,1872,1853
1863,1833,1811
1868,1846,1831
1895,1898,1863
1862,1877,1829
1838,1834,1823
1889,1855,1889
1910,1901,1909
1909,1904,1847
1863,1857,1812
1872,1879,1872
1896,1904,1882
1873,1856,1857
1894,1850,1849
1916,1878,1874
1904,1919,1919
1859,1891,1829
1821,1815,1778
1875,1858,1843
1906,1919,1889
1872,1875,1845
1858,1846,1838
1877,1886,1894
1978,1919,1905
1920,1884,1930
1853,1848,1847
1883,1861,1795
1905,1893,1818
1904,1856,1839
1877,1840,1851
1933,1903,1897
1926,1915,1883
1808,1877,1831
1825,1863,1815
1915,1889,1855
1898,1923,1888
1879,1895,1872
1889,1874,1859
1873,1875,1833
1895,1899,1878
1888,1883,1874
1878,1842,1826
1877,1857,1858
1898,1899,1874
1883,1914,1854
1872,1868,1808
1920,1894,1863
1926,1906,1931
1911,1871,1858
1882,1871,1829
1882,1888,1839
1891,1894,1873
1884,1859,1854
1843,1856,1824
1883,1877,1839
1893,1910,1893
1886,1902,1846
1863,1853,1820
1895,1855,1866
1904,1902,1904
1852,1879,1831
1863,1879,1822
1936,1881,1872
1919,1900,1874
1847,1842,1831
1845,1840,1841
1958,1907,1891
1908,1920,1917
1899,1862,1851
1838,1849,1794
1887,1881,1840
1951,1911,1874
1908,1859,1842
1851,1840,1845
1889,1889,1857
1895,1914,1888
1901,1879,1873
1885,1844,1831
1920,1862,1857
1894,1888,1900
1876,1897,1873
1858,1866,1813
1887,1881,1853
1918,1898,1894
1891,1875,1874
1869,1855,1827
1911,1872,1873
1911,1905,1878
1835,1877,1856
1803,1854,1829
1899,1871,1887
1936,1919,1899
1871,1851,1821
1814,1835,1802
1897,1891,1897
1957,1918,1917
1860,1887,1879
1808,1840,1847
1871,1856,1834
1920,1904,1858
1936,1885,1867
1903,1840,1818
1811,1840,1806
1872,1887,1871
1885,1854,1843
1815,1847,1827
1879,1881,1861
1923,1899,1887
1899,1872,1856
1891,1823,1791
1845,1867,1849
1903,1915,1877
1884,1888,1824
1795,1853,1823
1800,1868,1862
1927,1899,1878
1897,1883,1859
1875,1854,1840
1892,1889,1887
1898,1893,1890
1856,1858,1795
1842,1840,1789
1874,1879,1851
1882,1909,1874
1872,1873,1829
1846,1878,1870
1919,1889,1907
1872,1889,1851
1842,1859,1798
1870,1842,1795
1902,1867,1855
1991,1889,1872
1872,1874,1843
1773,1867,1839
1899,1865,1870
1890,1874,1842
1872,1871,1810
1811,1842,1810
1845,1881,1890
1898,1907,1904
1885,1876,1845
1822,1830,1782
1847,1857,1833
1904,1902,1906
1872,1875,1845
1871,1867,1827
1847,1923,1904
1903,1890,1872
1883,1828,1815
1855,1835,1822
1882,1871,1837
1981,1901,1868
1856,1849,1841
1901,1823,1839
1877,1869,1871
1895,1893,1871
1847,1854,1825
1842,1839,1810
1871,1872,1872
1825,1898,1895
1883,1863,1840
1807,1847,1831
1906,1869,1877
1919,1883,1895
1879,1849,1845
1826,1846,1834
1847,1874,1872
1877,1890,1891
1909,1867,1855
1954,1839,1843
1919,1869,1876
1930,1895,1891
1891,1872,1858
1761,1851,1836
1942,1874,1887
1917,1904,1907
1886,1869,1863
1853,1848,1836
1909,1885,1872
1935,1902,1898
1904,1879,1857
1887,1857,1830
1922,1886,1887
1949,1910,1893
1906,1874,1849
1891,1863,1840
1927,1891,1883
1965,1915,1899
1929,1887,1871
1915,1872,1851
1953,1898,1883
1968,1910,1904
1931,1881,1862
1923,1867,1852
1976,1895,1895
1999,1915,1915
1973,1884,1875
1955,1859,1852
1993,1886,1885
2038,1911,1922
2003,1875,1869
1987,1867,1844
2026,1891,1904
2064,1910,1936
2039,1882,1893
2027,1858,1870
2066,1878,1899
2099,1894,1918
2086,1845,1881
2071,1837,1869
2105,1891,1900
2128,1909,1938
2105,1856,1914
2082,1838,1879
2125,1867,1907
2154,1909,1932
2114,1869,1885
2106,1829,1869
2147,1883,1904
2163,1900,1913
2137,1863,1878
2126,1840,1872
2160,1863,1903
2176,1881,1927
2153,1859,1903
2135,1841,1868
2178,1865,1899
2208,1907,1949
2165,1909,1903
2143,1831,1866
2162,1840,1895
2195,1881,1926
2177,1889,1910
2160,1905,1894
2180,1854,1904
2192,1875,1915
2160,1874,1886
2151,1854,1879
2194,1823,1922
2219,1853,1936
2165,1846,1890
2147,1830,1882
2193,1857,1942
2202,1900,1937
2160,1877,1882
2133,1853,1870
2178,1859,1904
2206,1889,1941
2165,1856,1904
2140,1847,1873
2160,1879,1904
2178,1893,1915
2154,1854,1887
2131,1840,1872
2160,1867,1901
2170,1904,1921
2128,1828,1885
2112,1805,1859
2142,1840,1895
2169,1884,1917
2115,1855,1872
2098,1822,1866
2131,1887,1916
2148,1909,1936
2098,1821,1875
2082,1818,1861
2118,1863,1902
2142,1904,1927
2110,1914,1887
2064,1777,1856
2102,1790,1885
2122,1840,1922
2097,1787,1899
2078,1815,1893
2087,1829,1903
2096,1857,1900
2074,1859,1882
2055,1808,1866
2082,1827,1897
2105,1882,1926
2070,1893,1887
2045,1808,1859
2075,1808,1902
2093,1835,1922
2055,1864,1878
2038,1890,1872
2068,1826,1893
2076,1763,1900
2038,1776,1869
2034,1807,1872
2074,1841,1903
2074,1830,1904
2036,1751,1863
2029,1757,1845
2074,1823,1894
2096,1936,1951
2036,1805,1894
2014,1731,1854
2053,1770,1874
2078,1846,1904
2062,1919,1895
2036,1865,1899
2047,1770,1887
2073,1777,1903
2032,1668,1873
2003,1750,1843
2038,1833,1872
2056,1782,1884
2032,1776,1869
2019,1776,1879
2064,1741,1907
2097,1813,1942
2025,1835,1840
1982,1691,1813
2027,1747,1889
2085,1917,1952
2032,1678,1867
1988,1612,1840
2013,1731,1887
2047,1931,1933
2041,1773,1916
2021,1655,1878
2042,1703,1917
2054,1718,1904
1989,1711,1833
1999,1699,1870
2059,1745,1924
2096,1851,1945
2026,1722,1875
2000,1613,1873
2064,1774,1954
2096,1686,2000
2018,1695,1872
2001,1692,1866
2069,1792,1950
2105,1712,1991
2075,1701,1971
2069,1647,1982
2112,1684,2077
2107,1799,2092
2062,1733,2027
2060,1649,2065
2115,1743,2147
2107,1713,2143
2033,1578,2075
2044,1553,2107
2130,1700,2187
2126,1811,2154
2034,1605,2065
2037,1599,2091
2106,1699,2149
2129,1679,2214
2082,1639,2165
2047,1587,2138
2111,1681,2223
2109,1680,2106
2053,1616,2110
2032,1580,2167
2079,1600,2202
2093,1725,2205
2115,1872,2209
2032,1674,2101
2005,1425,2103
2032,1466,2175
2042,1587,2177
2034,1599,2171
2061,1646,2186
2068,1737,2177
2033,1643,2134
2002,1628,2091
2021,1535,2147
2063,1602,2193
2031,1619,2155
2014,1718,2139
2017,1627,2132
2020,1564,2119
1987,1555,2071
1989,1582,2064
2022,1629,2111
2032,1669,2149
1991,1606,2100
1971,1566,2054
1995,1631,2096
2016,1681,2127
1988,1670,2091
1964,1591,2055
2007,1535,2055
2035,1600,2026
1972,1631,2064
1935,1649,2070
1988,1618,2128
2013,1654,2134
1983,1630,2073
1994,1584,2030
2061,1673,2115
2032,1663,2125
1904,1571,1991
1869,1527,1965
1943,1615,2022
1974,1600,2056
1943,1565,2021
1920,1579,1991
1961,1555,2033
1974,1635,2061
1921,1602,1987
1910,1535,1981
1936,1447,1993
1952,1485,2000
1914,1565,1968
1909,1488,1966
1947,1614,2005
1936,1535,1982
1888,1488,1920
1880,1505,1916
1926,1583,1939
1946,1571,1949
1879,1607,1918
1840,1535,1911
1881,1455,1937
1940,1647,1986
1940,1671,1970
1914,1665,1935
1980,1648,1953
2005,1664,2013
1835,1511,1872
1730,1465,1776
1767,1520,1761
1827,1565,1840
1909,1607,1903
1909,1701,1909
1846,1648,1882
1841,1616,1861
1761,1520,1774
1744,1574,1742
1819,1616,1817
1872,1659,1856
1966,1686,1917
1989,1744,1975
1973,1694,1981
1856,1705,1878
1652,1575,1683
1557,1474,1603
1698,1617,1701
1776,1726,1757
1809,1674,1744
1759,1691,1749
1754,1732,1785
1872,1795,1936
1825,1762,1861
1731,1714,1664
1679,1699,1623
1639,1728,1616
1629,1613,1730
1648,1740,1790
1680,1775,1675
1702,1862,1709
1664,1790,1654
1675,1793,1614
1743,1916,1731
1709,1819,1715
1597,1817,1598
1591,1803,1570
1670,1866,1669
1702,1951,1767
1659,1915,1741
1643,1919,1662
1674,1955,1598
1726,1962,1664
1680,1893,1770
1618,1733,1872
1622,1857,1559
1652,1923,1456
1626,1935,1553
1629,1953,1572
1665,1911,1633
1733,1946,1731
1648,1915,1678
1607,1904,1609
1661,1969,1631
1681,2013,1619
1658,1959,1598
1680,1975,1695
1662,1968,1759
1680,1998,1677
1647,2029,1535
1588,1978,1489
1591,1947,1558
1646,1998,1666
1654,2020,1667
1691,2015,1687
1686,1993,1714
1644,2020,1653
1639,2113,1619
1692,2066,1671
1691,2014,1687
1647,2000,1690
1617,2063,1586
1654,2022,1585
1724,2096,1697
1749,2171,1712
1654,2054,1669
1577,1950,1607
1626,2012,1634
1675,2054,1711
1686,2064,1858
1666,2067,1726
1701,2086,1605
1718,2098,1643
1657,2074,1686
1645,2041,1649
1683,2071,1687
1711,2142,1721
1711,2171,1723
1667,2015,1664
1720,1998,1737
1703,2078,1734
1648,2062,1682
1671,2058,1725
1728,2091,1717
1733,2105,1741
1680,2057,1715
1675,2086,1698
1720,2128,1665
1728,2079,1712
1710,2037,1762
1705,2075,1791
1698,2092,1665
1729,2062,1789
1715,2054,1797
1665,2092,1626
1663,2074,1648
1711,2047,1747
1674,2038,1715
1668,2031,1699
1711,2046,1773
1714,2085,1734
1689,2099,1701
1680,2058,1689
1741,2099,1766
1741,2089,1791
1680,2002,1755
1693,2034,1791
1778,2124,1847
1797,2176,1776
1664,2031,1662
1616,1928,1664
1719,2035,1779
1774,2102,1775
1708,2054,1703
1675,2011,1685
1675,2033,1756
1743,2087,1797
1767,2158,1775
1735,2118,1792
1693,1979,1759
1717,1997,1770
1723,2022,1774
1687,2023,1712
1712,2033,1738
1756,2033,1819
1722,2038,1750
1718,2117,1755
1776,2127,1774
1781,2069,1817
1771,2103,1871
1691,1963,1761
1718,1968,1787
1751,2039,1791
1737,2037,1712
1724,2043,1730
1776,2032,1811
1776,2054,1795
1732,2032,1791
1683,1982,1707
1751,2047,1753
1818,2055,1858
1744,2007,1793
1748,2027,1819
1783,2064,1839
1765,2087,1789
1718,2045,1744
1726,2006,1758
1776,1969,1815
1823,2026,1831
1808,2081,1814
1739,1989,1766
1755,1987,1789
1790,2032,1838
1770,2000,1809
1702,1986,1706
1739,2022,1781
1790,2054,1872
1779,2047,1881
1759,2070,1779
1782,2032,1785
1795,1973,1804
1767,1955,1779
1731,2001,1798
1809,2101,1908
1840,2042,1845
1790,1923,1781
1744,1945,1765
1777,2001,1853
1791,2032,1789
1758,1990,1778
1741,1974,1765
1774,1991,1840
1793,1970,1894
1754,1941,1808
1755,1951,1783
1811,2019,1880
1827,2033,1835
1787,1990,1759
1767,1965,1775
1807,1963,1839
1801,1951,1899
1778,1984,1840
1792,2014,1815
1791,1999,1775
1800,1962,1839
1774,1918,1858
1743,1907,1794
1797,1965,1817
1826,2013,1889
1804,1935,1807
1802,1904,1792
1834,1966,1915
1850,2045,1871
1806,2000,1780
1792,1878,1763
1786,1881,1821
1811,1946,1879
1779,1946,1809
1765,1919,1793
1789,1909,1815
1841,1953,1890
1829,1930,1819
1794,1936,1856
1813,1979,1799
1841,1997,1880
1811,1943,1884
1794,1921,1846
1838,1932,1850
1875,1983,1936
1833,1935,1872
1763,1851,1802
1792,1862,1830
1884,1971,1850
1857,1971,1823
1822,1936,1798
1808,1920,1805
1796,1930,1878
1782,1904,1809
1792,1895,1796
1840,1885,1842
1877,1930,1872
1824,1895,1840
1807,1872,1782
1840,1932,1856
1881,1955,1904
1901,1954,1899
1856,1930,1833
1811,1903,1803
1795,1905,1843
1808,1894,1793
1838,1881,1806
1860,1933,1908
1852,1962,1874
1795,1895,1778
1788,1821,1778
1889,1904,1904
1983,2016,2046
1855,1954,1926
1725,1792,1725
1806,1853,1747
1883,1919,1856
1846,1937,1838
1825,1826,1841
1869,1879,1910
1890,1951,1847
1831,1881,1840
1808,1845,1798
1838,1872,1855
1865,1905,1879
1827,1891,1840
1820,1858,1888
1860,1872,1890
1914,1927,1925
1920,1946,1869
1821,1893,1860
1807,1859,1831
1833,1835,1840
1808,1840,1821
1821,1865,1813
1872,1903,1856
1925,1936,1958
1866,1891,1840
1813,1808,1775
1841,1851,1922
1872,1885,1955
1855,1870,1933
1839,1843,1840
1902,1904,1862
1907,1925,1876
1895,1921,1895
1786,1797,1810
1792,1813,1807
1855,1895,1839
1872,1904,1897
1861,1901,1827
1845,1856,1767
1854,1854,1809
1849,1838,1843
1840,1842,1863
1853,1914,1861
1902,1891,1840
1862,1840,1852
1872,1837,1861
1921,1907,1986
1834,1863,1865
1799,1836,1856
1835,1838,1807
1873,1865,1971
1887,1902,1865
1853,1858,1812
1840,1819,1805
1858,1872,1921
1879,1865,1936
1846,1872,1856
1859,1904,1947
1934,1952,1982
1898,1870,1863
1803,1796,1725
1783,1822,1782
1824,1866,1835
1871,1887,1882
1863,1869,1901
1871,1851,1907
1867,1841,1895
1904,1927,1911
1903,1911,1869
1855,1805,1829
1874,1833,1808
1889,1851,1896
1839,1897,1776
1823,1867,1808
1868,1877,1861
1899,1914,1851
1853,1836,1818
1797,1770,1824
1835,1857,1884
1904,1904,1982
1884,1876,1938
1847,1845,1806
1875,1841,1873
1871,1888,1776
1852,1899,1825
1835,1797,1872
1869,1801,1897
1883,1839,1930
1851,1829,1867
1834,1837,1769
1899,1904,1927
1965,1958,2027
1862,1869,1935
1796,1767,1828
1855,1802,1841
1890,1898,1859
1857,1855,1830
1834,1829,1823
1883,1835,1858
1895,1837,1841
1872,1829,1861
1858,1838,1924
1875,1879,1919
1914,1887,1940
1871,1839,1873
1850,1863,1926
1904,1873,1890
1934,1873,1874
1888,1867,1863
1866,1889,1858
1875,1795,1860
1874,1818,1939
1870,1840,1872
1840,1840,1844
1866,1844,1843
1875,1827,1952
1867,1831,1871
1859,1817,1837
1885,1878,1872
1910,1882,1900
1891,1870,1915
1866,1853,1853
1886,1859,1894
1908,1863,1895
1881,1824,1871
1856,1795,1827
1857,1845,1831
1897,1866,1875
1878,1871,1867
1863,1824,1861
1895,1814,1906
1913,1851,1907
1872,1849,1840
1872,1862,1807
1923,1905,1904
1917,1887,1919
1877,1872,1858
1884,1856,1861
1920,1828,1871
1897,1831,1875
1880,1833,1833
1842,1804,1809
1888,1863,1849
1925,1917,1905
1904,1885,1909
1868,1891,1878
1882,1866,1881
1879,1865,1882
1858,1782,1820
1865,1819,1842
1907,1860,1913
1962,1885,1879
1882,1854,1839
1835,1840,1806
1851,1866,1878
1939,1917,1903
1850,1889,1863
1844,1815,1831
1840,1815,1886
1890,1866,1874
1935,1890,1881
1855,1853,1872
1903,1840,1909
1859,1812,1847
1831,1840,1806
1861,1826,1825
1931,1859,1889
1873,1910,1915
1900,1872,1846
1869,1873,1811
1886,1806,1857
1930,1872,1936
1914,1904,1902
1866,1808,1856
1878,1945,1874
1921,1851,1859
1917,1807,1837
1856,1765,1847
1915,1885,1854
1887,1899,1840
1855,1853,1820
1855,1812,1819
1882,1844,1863
1935,1872,1906
1922,1921,1874
1848,1904,1849
1922,1872,1893
1940,1871,1927
1877,1850,1827
1843,1816,1813
1899,1806,1846
1939,1847,1868
1897,1857,1872
1918,1856,1885
1888,1904,1851
1890,1926,1797
1854,1859,1813
1819,1785,1826
1918,1785,1869
1934,1861,1920
1902,1871,1885
1904,1865,1811
1927,1865,1870
1945,1884,1965
1957,1886,1875
1856,1777,1770
1906,1790,1776
1909,1879,1886
1875,1930,1876
1814,1843,1805
1845,1830,1825
1920,1851,1904
1875,1840,1840
1842,1852,1819
1897,1876,1886
1905,1885,1961
1881,1879,1873
1857,1831,1790
1911,1840,1810
1920,1865,1878
1858,1802,1885
1829,1814,1803
1917,1895,1842
1996,1927,1913
1926,1872,1904
1882,1825,1848
1878,1839,1829
1929,1900,1830
1819,1821,1791
1873,1801,1831
1910,1859,1861
1954,1947,1904
1883,1846,1819
1831,1805,1813
1875,1867,1872
1931,1900,1908
1923,1856,1863
1821,1844,1849
1941,1877,1918
1935,1899,1931
1887,1863,1797
1856,1837,1790
1885,1853,1839
1957,1913,1885
1898,1904,1868
1851,1886,1813
1910,1851,1827
1904,1843,1851
1907,1872,1873
1870,1841,1823
1898,1867,1839
1950,1929,1863
1911,1866,1853
1855,1823,1804
1877,1917,1837
1867,1942,1870
1873,1901,1853
1933,1821,1837
1871,1846,1861
1935,1936,1895
1843,1911,1791
1842,1861,1783
1904,1893,1877
1877,1911,1888
1951,1907,1857
1845,1887,1889
1956,1907,1824
1914,1890,1847
1918,1845,1789
1919,1845,1814
1904,1887,1842
1942,1887,1901
1888,1879,1856
1899,1889,1863
1920,1895,1820
1921,1921,1823
1867,1867,1825
1862,1870,1872
1911,1912,1883
1932,1941,1845
1867,1894,1821
1855,1806,1803
1885,1830,1867
1929,1906,1892
1870,1888,1811
1899,1907,1789
1895,1927,1858
1917,1891,1883
1906,1891,1905
1890,1878,1870
1968,1859,1815
1909,1915,1846
1894,1904,1872
1879,1866,1822
1887,1849,1802
1915,1927,1877
1920,1914,1872
1841,1863,1823
1936,1891,1890
1920,1887,1862
1849,1867,1835
1855,1872,1844
1887,1922,1872
1933,1929,1915
1908,1936,1891
1957,1871,1776
1854,1877,1837
1959,1954,1907
1907,1933,1904
1841,1885,1840
1867,1894,1810
1902,1941,1840
1892,1937,1827
1879,1917,1871
1937,1982,1898
1945,1995,1901
1872,1909,1842
1855,1802,1808
1913,1950,1874
1953,2031,1904
1931,1962,1898
1885,1905,1872
1886,1925,1836
1920,1954,1888
1873,1887,1842
1853,1930,1786
1908,1959,1852
1936,1930,1955
1895,1954,1850
1863,1930,1782
1919,1963,1845
1938,1963,1904
1906,1925,1872
1921,2011,1872
1893,1990,1903
1900,1898,1867
1869,1887,1792
1890,1919,1792
1941,1967,1855
1931,1989,1897
1866,1950,1859
1879,1923,1866
1904,1968,1877
1919,2020,1823
1894,1990,1845
1863,1950,1855
1918,1954,1897
1927,1963,1904
1911,1968,1882
1909,1958,1868
1883,1953,1840
1895,1991,1837
1906,1983,1824
1904,1908,1840
1927,1941,1935
1920,1971,1909
1881,1946,1855
1872,1936,1821
1915,1943,1873
1954,1971,1901
1904,1943,1836
1867,1967,1831
1886,1999,1845
1936,2019,1901
1925,1973,1858
1899,1921,1811
1903,1922,1833
1947,1982,1921
1895,1951,1874
1893,1927,1849
1898,1922,1873
1927,1968,1840
1888,1909,1827
1856,1886,1815
1915,2003,1888
1945,2011,1888
1904,1930,1853
1884,1913,1894
1904,1923,1872
1936,1994,1884
1913,1969,1846
1884,1910,1808
1898,1895,1847
1917,1917,1875
1901,1904,1858
1910,1927,1887
1930,1991,1903
1945,1989,1915
1902,1882,1846
1874,1873,1829
1881,1919,1841
1912,1946,1860
1893,1916,1842
1885,1925,1871
1938,1937,1910
1934,1931,1919
1899,1936,1846
1889,1977,1791
1905,1879,1815
1920,1874,1878
1909,1891,1870
1870,1915,1834
1889,1936,1895
1911,1955,1918
1873,1933,1842
1886,1904,1807
1940,1918,1887
1936,1936,1935
1872,1904,1840
1863,1887,1823
1895,1904,1847
1921,1918,1894
1915,1886,1866
1886,1905,1827
1918,1920,1835
1931,1948,1903
1889,1938,1876
1886,1917,1879
1914,1906,1911
1924,1913,1847
1922,1915,1852
1879,1901,1855
1873,1910,1873
1902,1913,1883
1871,1855,1807
1843,1911,1774
1894,1901,1851
1938,1904,1904
1910,1922,1890
1889,1879,1861
1904,1936,1865
1891,1936,1861
1878,1914,1839
1911,1920,1871
1923,1941,1942
1904,1957,1929
1870,1840,1814
1845,1827,1781
1882,1882,1823
1920,1921,1857
1884,1907,1866
1867,1846,1835
1895,1856,1855
1906,1890,1888
1872,1935,1847
1859,1905,1870
1895,1923,1898
1915,1917,1876
1874,1877,1825
1888,1874,1854
1907,1854,1878
1925,1860,1904
1877,1899,1916
1855,1858,1857
1874,1930,1842
1898,1891,1850
1872,1839,1818
1854,1874,1818
1904,1934,1883
1930,1943,1935
1887,1851,1894
1867,1828,1819
1904,1943,1855
1903,1881,1874
1887,1830,1839
1869,1874,1856
1910,1955,1878
1927,1893,1911
1920,1909,1911
1814,1845,1794
1859,1856,1846
1897,1910,1887
1883,1897,1823
1857,1866,1817
1872,1855,1811
1920,1904,1863
1886,1972,1857
1856,1863,1861
1875,1883,1888
1899,1931,1871
1872,1936,1871
1875,1862,1872
1911,1840,1894
1961,1891,1887
1879,1895,1781
1811,1833,1791
1840,1877,1840
1897,1905,1911
1901,1895,1817
1890,1840,1809
1896,1874,1850
1906,1951,1943
1891,1904,1858
1842,1834,1800
1875,1857,1825
1917,1882,1858
1886,1872,1847
1859,1843,1814
1895,1890,1870
1927,1922,1924
1925,1907,1872
1841,1811,1829
1855,1896,1841
1872,1918,1845
1872,1844,1834
1875,1904,1834
1895,1881,1871
1917,1922,1875
1888,1873,1857
1854,1920,1855
1858,1870,1869
1890,1905,1827
1886,1917,1851
1843,1778,1789
1889,1840,1866
1949,1911,1926
1888,1897,1789
1853,1840,1779
1854,1872,1872
1876,1847,1889
1870,1837,1835
1904,1872,1872
1922,1889,1920
1904,1877,1921
1837,1804,1783
1845,1849,1763
1882,1862,1871
1902,1887,1914
1871,1873,1807
1853,1851,1792
1845,1883,1872
1856,1918,1895
1850,1900,1872
1838,1770,1818
1867,1791,1824
1882,1867,1869
1866,1823,1872
1863,1827,1835
1905,1863,1914
1887,1935,1895
1835,1863,1781
1840,1830,1823
1864,1876,1852
1872,1936,1904
1867,1887,1817
1872,1844,1840
1847,1791,1831
1871,1866,1833
1854,1873,1840
1839,1823,1819
1856,1898,1870
1874,1881,1931
1829,1867,1840
1840,1872,1869
1875,1877,1858
1894,1889,1854
1870,1859,1851
1850,1810,1875
1856,1826,1899
1857,1900,1838
1840,1856,1815
1814,1815,1809
1879,1846,1872
1938,2000,1926
1871,1887,1833
1792,1841,1794
1818,1795,1840
1894,1914,1889
1871,1851,1929
1834,1815,1808
1840,1754,1777
1857,1878,1838
1831,1856,1824
1819,1845,1829
1870,1839,1872
1905,1918,1919
1878,1882,1887
1850,1871,1855
1822,1857,1835
1856,1842,1885
1859,1879,1856
1834,1803,1855
1868,1837,1861
1873,1890,1825
1839,1839,1826
1839,1851,1835
1906,1913,1933
1900,1910,1921
1871,1861,1846
1828,1765,1799
1847,1798,1826
1882,1872,1854
1840,1846,1808
1818,1841,1827
1859,1865,1872
1904,1927,1931
1861,1856,1840
1813,1775,1791
1857,1840,1870
1887,1902,1913
1879,1936,1872
1843,1856,1837
1840,1797,1840
1872,1877,1884
1850,1879,1817
1840,1828,1822
1866,1877,1868
1906,1903,1876
1823,1743,1751
1840,1840,1811
1900,1843,1901
1897,1893,1901
1835,1901,1849
1835,1854,1851
1871,1888,1921
1897,1876,1939
1848,1822,1809
1862,1821,1802
1938,1967,1965
1904,1927,1910
1777,1775,1733
1769,1732,1734
1853,1831,1847
1888,1873,1904
1893,1856,1874
1863,1791,1861
1877,1843,1877
1889,1906,1895
1879,1884,1872
1866,1856,1826
