1835,1822,1845
1904,1840,1894
1911,1894,1882
1872,1900,1983
1841,1839,1854
1875,1858,1808
1917,1920,1867
1875,1870,1850
1847,1875,1872
1883,1888,1921
1922,1971,1935
1862,1920,1856
1806,1682,1875
1856,1783,1919
1915,1846,1947
1872,1895,1902
1840,1927,1905
1902,1936,1967
1921,1923,1964
1872,1949,1906
1824,1766,1846
1859,1762,1909
1898,1811,1911
1858,1793,1885
1815,1851,1868
1872,1934,1938
1909,1930,1957
1861,1907,1901
1823,1899,1873
1863,1923,1920
1918,1931,1963
1834,1813,1925
1799,1835,1877
1864,1936,1890
1920,1952,1904
1850,1856,1837
1808,1828,1810
1855,1938,1805
1904,1983,1751
1863,1920,1712
1827,1838,1635
1851,1904,1611
1872,1920,1590
1822,1871,1579
1805,1890,1535
1884,1923,1583
1917,1931,1584
1847,1869,1484
1774,1864,1394
1820,1959,1456
1891,1986,1535
1856,1927,1499
1795,1835,1457
1840,1955,1517
1881,2005,1568
1851,1897,1561
1783,1893,1462
1840,2006,1493
1887,2018,1522
1808,1899,1472
1806,1878,1447
1851,1961,1504
1872,1902,1506
1806,1757,1376
1772,1824,1328
1836,1962,1424
1889,2007,1498
1833,1951,1467
1776,1812,1485
1818,1869,1424
1879,1968,1435
1833,1980,1409
1749,1854,1344
1807,1877,1471
1879,1971,1494
1836,1968,1431
1790,1939,1424
1825,2014,1504
1862,1982,1613
1811,1904,1425
1762,1865,1357
1831,1959,1478
1866,2115,1559
1821,1983,1513
1808,1879,1516
1853,1968,1554
1872,2070,1573
1822,2014,1501
1797,1887,1507
1828,1899,1517
1903,2063,1598
1872,2064,1596
1827,2037,1567
1824,2036,1574
1865,2023,1637
1843,1971,1675
1814,1970,1643
1871,2128,1664
1873,2097,1578
1821,1989,1535
1805,1974,1607
1862,2071,1629
1894,2240,1683
1849,1968,1659
1783,1904,1576
1834,1997,1673
1887,2101,1743
1851,2074,1723
1821,1971,1694
1862,2140,1697
1898,2233,1739
1853,2018,1717
1799,1919,1701
1822,1971,1722
1882,2087,1680
1850,2128,1653
1814,1971,1676
1840,2017,1643
1854,2053,1616
1859,2064,1570
1805,2106,1557
1851,2064,1657
1882,2054,1680
1861,1990,1535
1829,1935,1527
1837,2029,1630
1877,2154,1659
1852,2041,1456
1808,1989,1439
1819,2022,1508
1868,2064,1552
1871,2036,1557
1866,2095,1568
1886,1979,1597
1844,1939,1518
1812,2002,1469
1808,2070,1455
1851,2029,1535
1888,2057,1600
1845,1990,1515
1787,1952,1498
1847,2085,1567
1872,1948,1562
1867,1930,1553
1835,1967,1535
1829,2000,1562
1855,2035,1596
1776,1894,1479
1774,1962,1569
1826,2046,1584
1889,2035,1615
1825,2023,1629
1821,1981,1630
1857,1872,1602
1850,1905,1571
1825,2010,1568
1821,1943,1608
1889,2029,1668
1886,2098,1681
1851,2046,1684
1823,1863,1648
1759,1867,1585
1808,1978,1642
1834,1889,1695
1849,1841,1722
1847,2033,1710
1813,1919,1647
1735,1764,1578
1744,1840,1618
1822,1933,1735
1867,1936,1794
1840,1936,1740
1840,1925,1712
1825,1920,1727
1840,1959,1776
1841,1984,1758
1819,1803,1711
1774,1771,1698
1851,1943,1813
1852,1936,1818
1744,1768,1632
1783,1807,1702
1856,1911,1776
1861,1915,1836
1814,1987,1856
1842,2017,1826
1823,1808,1695
1757,1702,1713
1766,1776,1803
1856,1936,1881
1893,1974,1942
1856,1877,1899
1785,1728,1763
1826,1887,1837
1863,1961,1857
1767,1840,1769
1776,1830,1810
1827,1863,1898
1863,1899,1930
1826,1825,1855
1791,1808,1851
1809,1888,1893
1877,1936,1952
1875,1998,1936
1771,1733,1825
1774,1718,1846
1840,1873,1937
1840,1895,1989
1808,1814,1963
1845,1891,1904
1879,1834,1874
1810,1815,1853
1776,1808,1919
1814,1869,1942
1865,1866,1972
1856,1898,1936
1793,1871,1902
1813,1789,1931
1872,1819,2000
1856,1859,1977
1840,1918,2032
1843,1841,1967
1852,1815,1930
1830,1753,1906
1798,1799,1920
1809,1859,1979
1833,1806,2064
1841,1931,1982
1805,1899,1942
1828,1825,1946
1843,1793,2003
1843,1872,2096
1821,1950,1984
1801,1685,1936
1815,1680,1939
1827,1796,1936
1822,1841,2001
1831,1810,2086
1850,1883,2071
1826,1950,1968
1807,1840,1962
1831,1695,2016
1873,1888,2102
1808,1998,1897
1792,1891,1904
1831,1886,2017
1859,1876,2032
1797,1520,1936
1769,1584,1946
1797,1744,1990
1886,1824,2032
1839,1802,2080
1787,1762,1985
1788,1755,1975
1851,1833,2026
1833,1837,2039
1781,1831,1941
1821,1841,2016
1859,1819,2019
1855,1819,2030
1794,1791,1995
1791,1849,2054
1856,1858,2106
1823,1819,2031
1776,1690,1999
1808,1681,1984
1868,1744,1998
1802,1673,1953
1776,1751,1953
1835,1824,2032
1840,1755,2046
1789,1747,1979
1773,1735,1958
1831,1715,2037
1904,1782,2195
1840,1746,2032
1750,1680,1884
1787,1746,1955
1862,1803,2076
1845,1778,2096
1782,1664,1981
1819,1787,1983
1867,1775,2033
1851,1658,2010
1794,1641,1983
1776,1669,1934
1803,1780,2017
1861,1817,2103
1823,1693,2023
1799,1765,2000
1865,1751,2001
1845,1734,2074
1767,1677,1968
1822,1707,1930
1840,1744,2000
1797,1659,2034
1806,1663,1999
1833,1798,2054
1964,1948,2127
1808,1744,1970
1732,1685,1936
1831,1862,2082
1872,1831,2185
1830,1708,1991
1776,1616,1942
1833,1679,2063
1873,1884,1998
1809,1753,1999
1797,1648,1980
1817,1783,2003
1882,1872,2054
1873,1802,2039
1838,1859,2021
1863,1728,2085
1842,1620,2139
1845,1841,2066
1776,1873,1891
1813,1697,1921
1836,1665,2014
1814,1729,2000
1793,1759,1970
1850,1897,2087
1890,1878,2064
1901,1794,2019
1832,1793,2058
1811,1711,2014
1888,1726,2010
1800,1751,2020
1830,1761,1972
1858,1817,2045
1879,1949,2156
1872,1969,2159
1823,1674,1930
1818,1645,1878
1867,1853,1989
1850,1853,2033
1807,1921,2010
1844,1827,2018
1903,1727,2059
1835,1701,2016
1825,1721,1968
1876,1791,1969
1874,1869,2018
1837,1861,2012
1821,1796,1989
1867,1884,2106
1924,2003,2117
1904,1793,2085
1794,1631,1889
1834,1715,1895
1863,1809,1951
1840,1828,1965
1838,1814,1977
1858,1886,2030
1884,1920,2057
1846,1840,2007
1855,1791,1961
1861,1822,2000
1881,1875,2033
1877,1856,2001
1850,1838,1986
1879,1895,2002
1904,1895,2046
1882,1843,2007
1899,1819,1968
1889,1902,2027
1946,1915,2064
1892,1871,2006
1872,1839,1968
1923,1883,2003
1906,1947,2063
1886,1919,2009
1863,1894,1968
1895,1904,2003
1981,1935,2044
1945,1903,1986
1781,1879,1969
1919,1920,2015
1946,1955,2042
1920,1923,1995
1872,1894,1963
1918,1915,1998
1963,1939,1993
1923,1902,1940
1904,1901,1965
1938,1963,2033
1972,1961,2047
1927,1911,1967
1881,1883,1897
1995,1933,1952
1995,2001,2034
1959,1996,2031
1935,1854,1951
1936,1803,1936
1968,1921,1991
1953,1999,1977
1935,1857,1937
2009,1847,1967
1955,1863,1971
1987,1760,1927
1920,1795,1914
1937,1892,1973
1985,1950,1994
1981,1855,1934
1951,1718,1889
1970,1826,1939
2007,1985,2001
1974,1738,1927
1951,1658,1883
1927,1792,1935
1991,1823,1964
1977,1791,1915
1935,1780,1898
1970,1872,1943
2039,1882,1970
1936,1842,1919
1892,1744,1885
1971,1738,1932
1993,1825,1953
1957,1809,1922
1920,1792,1891
1959,1831,1924
1989,1804,1947
1964,1855,1913
1957,1950,1915
2003,1791,1943
1984,1658,1917
1941,1651,1870
1902,1685,1872
1970,1765,1925
1968,1915,1962
1941,1771,1911
1907,1715,1870
1951,1738,1909
2042,1776,1945
1968,1776,1922
1982,1788,1895
1974,1754,1920
2027,1745,1924
1974,1755,1901
1934,1762,1877
1959,1780,1904
1991,1830,1938
1955,1791,1898
1921,1770,1857
1950,1794,1903
1979,1749,1934
1957,1748,1904
1934,1722,1876
1961,1726,1901
1987,1777,1930
1958,1808,1904
1913,1756,1871
1953,1786,1904
1983,1801,1914
1945,1792,1877
1922,1759,1865
1956,1787,1907
2000,1882,1948
1958,1777,1899
1923,1725,1865
1963,1794,1908
1998,1862,1943
1947,1773,1877
1913,1739,1847
1958,1803,1897
1995,1846,1933
1967,1855,1909
1932,1867,1897
1958,1869,1907
1987,1856,1936
1938,1834,1876
1895,1761,1845
1942,1786,1898
1999,1871,1946
1942,1824,1890
1898,1814,1838
1952,1905,1904
1997,1851,1939
1943,1760,1888
1899,1775,1847
1941,1846,1902
1990,1875,1929
1941,1834,1878
1909,1829,1855
1956,1877,1920
2000,1909,1935
1930,1863,1875
1886,1837,1839
1943,1890,1895
1998,1905,1939
1937,1887,1886
1872,1856,1837
1906,1862,1871
1989,1890,1930
1941,1871,1888
1889,1838,1861
1942,1885,1919
1997,2000,1943
1919,1926,1869
1855,1829,1830
1917,1904,1882
1984,1923,1920
1929,1897,1867
1875,1877,1843
1935,1920,1900
1988,2003,1921
1935,1955,1869
1871,1868,1842
1923,1937,1891
1990,2003,1921
1915,1895,1841
1855,1870,1825
1914,1936,1876
1986,2003,1904
1936,1953,1866
1879,1908,1846
1937,1959,1891
2001,2021,1910
1936,1968,1861
1877,1914,1822
1927,1968,1875
2005,2032,1915
1948,1983,1850
1882,1920,1813
1943,1977,1879
2011,2007,1900
1939,1947,1825
1879,1907,1819
1936,1978,1872
2009,2031,1887
1950,1987,1825
1889,1925,1799
1946,2003,1853
2013,2075,1890
1953,1966,1828
1889,1890,1798
1946,1963,1843
2014,2029,1869
1953,1995,1823
1910,1940,1808
1967,1995,1861
2024,2025,1877
1966,1970,1809
1915,1931,1783
1968,1990,1847
2022,2047,1881
1985,1996,1825
1941,1974,1808
1994,1989,1846
2035,1988,1876
1971,1949,1815
1923,1935,1803
1984,1987,1863
2045,2039,1889
1981,1985,1818
1921,1930,1791
1990,1987,1851
2065,2032,1883
1995,1970,1807
1933,1930,1776
1983,1967,1822
2053,2035,1875
1982,1993,1815
1922,2003,1773
1986,2037,1837
2063,2004,1865
2002,1938,1789
1936,1886,1758
1993,1962,1819
2064,2027,1861
1997,1972,1804
1937,1930,1777
2000,1981,1840
2065,2045,1869
1997,1987,1786
1927,1928,1741
1983,1963,1811
2064,2017,1869
1991,1975,1801
1931,1949,1776
1985,1955,1825
2046,2009,1853
1974,1967,1795
1915,1914,1763
1969,1983,1817
2043,2023,1870
1991,1990,1821
1931,1915,1780
1983,1931,1808
2045,1998,1845
1971,1947,1783
1913,1888,1751
1980,1955,1815
2047,2027,1861
1974,1964,1794
1909,1904,1752
1969,1950,1805
2028,2012,1840
1969,1959,1805
1907,1892,1757
1953,1946,1793
2026,1997,1855
1975,1927,1797
1914,1835,1742
1952,1895,1789
2013,1982,1859
1957,1939,1810
1897,1887,1767
1952,1942,1808
2003,1986,1845
1952,1923,1799
1898,1886,1776
1948,1955,1829
2022,1999,1872
1956,1919,1808
1891,1865,1750
1937,1930,1799
2000,1968,1853
1949,1879,1781
1900,1857,1745
1959,1936,1808
2009,2002,1872
1933,1904,1774
1863,1827,1699
1921,1893,1757
2000,1978,1835
1958,1947,1744
1868,1811,1744
1906,1845,1811
1984,1936,1857
1924,1894,1744
1871,1840,1776
1977,1954,1819
2019,1968,1872
1936,1879,1717
1872,1853,1691
1921,1878,1791
1978,1911,1825
1939,1842,1767
1914,1810,1767
1978,1906,1741
2071,2000,1868
1999,1916,1798
1873,1775,1728
1937,1819,1744
1983,1869,1760
1931,1843,1766
1877,1806,1733
1935,1857,1776
1993,1913,1840
1965,1887,1773
1913,1850,1744
1927,1930,1761
2007,1974,1812
2007,1927,1789
1906,1840,1686
1947,1909,1718
1974,1973,1827
1942,1971,1757
1908,1947,1721
1929,1995,1795
1985,2032,1837
1953,2004,1753
2006,2038,1717
1885,2105,1771
1857,2112,1774
1874,2113,1776
1872,2128,1770
1858,2171,1747
1909,2238,1765
1863,2221,1712
1794,2189,1682
1861,2233,1730
1906,2283,1786
1835,2271,1755
1776,2228,1716
1799,2269,1730
1891,2366,1783
1870,2352,1709
1779,2301,1680
1769,2325,1682
1817,2394,1713
1838,2382,1693
1831,2352,1759
1930,2398,1722
1844,2445,1729
1721,2394,1650
1690,2340,1719
1743,2382,1792
1809,2430,1749
1783,2387,1709
1751,2350,1680
1785,2354,1784
1829,2416,1797
1781,2416,1741
1699,2345,1623
1715,2333,1648
1744,2361,1763
1737,2368,1715
1774,2387,1614
1731,2384,1696
1698,2395,1701
1779,2416,1744
1742,2411,1667
1616,2418,1677
1636,2460,1661
1661,2438,1676
1680,2427,1756
1744,2480,1784
1762,2507,1814
1693,2480,1702
1679,2470,1766
1680,2479,1648
1725,2512,1679
1713,2487,1712
1726,2510,1711
1741,2529,1692
1735,2527,1745
1707,2501,1742
1672,2457,1742
1739,2509,1739
1790,2527,1757
1760,2474,1802
1716,2419,1747
1762,2446,1793
1769,2461,1799
1693,2386,1691
1648,2341,1756
1669,2319,1627
1741,2398,1703
1766,2409,1743
1657,2251,1650
1708,2290,1818
1777,2289,1920
1739,2288,1771
1693,2192,1725
1741,2208,1873
1776,2221,1818
1765,2247,1675
1751,2246,1659
1760,2195,1749
1786,2197,1911
1783,2159,1831
1689,2078,1803
1706,2087,1776
1789,2162,1905
1803,2151,1869
1759,2074,1776
1778,2096,1744
1797,2128,1806
1827,2150,1879
1872,2146,2032
1815,2042,1889
1703,2069,1726
1664,2002,1744
1715,1926,1902
1774,1982,1943
1835,2111,1856
1793,1957,1818
1798,1914,1907
1904,2000,1907
1867,2071,1887
1765,1954,1936
1728,1819,1860
1774,1878,1827
1840,1947,1904
1859,1989,1870
1799,1959,1873
1807,1835,1859
1851,1867,2010
1872,1908,1965
1851,1893,1855
1786,1847,1891
1792,1882,1936
1823,1877,1943
1847,1888,1935
1904,1961,1967
1942,1929,1986
1805,1777,1968
1755,1789,2032
1809,1808,2097
1856,1801,1856
1790,1721,1822
1746,1696,1825
1807,1808,1930
1902,1874,1998
1825,1793,1923
1808,1769,1904
1876,1811,1970
1915,1838,2032
1830,1782,1927
1763,1724,1831
1793,1747,1857
1857,1799,2001
1866,1805,2064
1818,1819,1925
1876,1829,2031
1883,1776,2021
1790,1719,1822
1773,1607,1854
1819,1669,1919
1872,1811,1999
1855,1853,1930
1840,1771,1939
1887,1723,1973
1889,1690,2015
1778,1618,1927
1764,1619,1856
1833,1709,1887
1856,1791,1919
1799,1808,1949
1811,1703,1965
1872,1710,1952
1853,1712,1968
1767,1609,1855
1797,1602,1907
1882,1719,2027
1883,1746,1952
1795,1671,1883
1761,1649,1778
1802,1706,1901
1856,1739,1936
1838,1712,1931
1814,1709,1916
1882,1719,1966
1907,1712,2090
1811,1673,1971
1746,1622,1813
1808,1687,1861
1869,1755,1946
1841,1713,1975
1782,1632,1897
1875,1712,1950
1851,1712,1884
1773,1599,1856
1766,1616,1895
1799,1661,1873
1818,1679,1877
1815,1659,1847
1812,1657,1900
1867,1679,1978
1845,1646,1994
1792,1596,1840
1784,1597,1826
1845,1695,1903
1840,1701,1885
1809,1724,1929
1807,1712,1981
1873,1696,1920
1827,1683,1953
1791,1611,1840
1730,1501,1747
1774,1533,1865
1826,1571,1859
1833,1629,1826
1776,1626,1839
1834,1714,1937
1793,1689,1970
1754,1590,1861
1745,1600,1758
1782,1614,1804
1841,1694,1983
1809,1665,1886
1764,1586,1782
1802,1641,1840
1855,1664,1935
1808,1618,1852
1754,1609,1776
1765,1661,1849
1791,1681,1906
1783,1649,1833
1825,1644,1831
1833,1670,1872
1809,1643,1856
1775,1633,1815
1756,1595,1789
1770,1631,1872
1790,1617,1906
1825,1679,1947
1767,1630,1840
1799,1632,1964
1821,1600,1851
1783,1603,1776
1775,1600,1734
1819,1658,1809
1829,1696,1904
1754,1671,1829
1744,1598,1792
1797,1611,1845
1806,1631,1841
1793,1584,1863
1805,1625,1854
1841,1697,1851
1847,1662,1859
1779,1556,1846
1763,1475,1853
1779,1578,1812
1814,1693,1854
1799,1634,1902
1803,1595,1786
1854,1691,1877
1829,1622,1871
1760,1570,1826
1755,1621,1847
1785,1651,1867
1811,1632,1781
1795,1594,1761
1761,1584,1763
1847,1596,1775
1863,1650,1920
1770,1600,1895
1743,1533,1809
1776,1584,1807
1810,1622,1808
1762,1566,1783
1786,1594,1798
1851,1663,1887
1856,1696,1877
1770,1575,1742
1712,1446,1666
1757,1590,1748
1808,1695,1823
1776,1584,1783
1735,1574,1790
1783,1611,1888
1859,1707,1858
1826,1608,1779
1787,1515,1744
1761,1605,1805
1814,1743,1896
1821,1710,1785
1754,1552,1727
1743,1579,1805
1776,1625,1904
1806,1614,1783
1797,1616,1749
1783,1647,1717
1804,1650,1778
1833,1714,1795
1790,1808,1706
1765,1693,1806
1782,1557,1866
1805,1659,1835
1802,1663,1799
1808,1601,1879
1840,1723,1846
1834,1709,1803
1814,1640,1795
1855,1714,1893
1872,1757,1829
1841,1743,1881
1779,1702,1753
1840,1779,1788
1878,1856,1863
1825,1711,1830
1835,1680,1877
1878,1873,1936
1938,1921,1999
1962,1815,1942
1937,1812,1974
1937,1838,2026
1961,1851,1985
1978,1863,2039
1973,1863,2001
2045,1943,2083
2081,1986,2046
1969,1881,1946
1941,1840,1962
2007,1885,1966
2069,1958,2070
2037,1955,2033
2033,1974,1989
2080,2001,2063
2030,2043,2090
2003,1978,2090
2008,1968,2093
2082,1997,2114
2107,2043,2102
2061,2017,2000
2005,1941,1984
2083,2013,2106
2109,2060,2081
2018,2055,1970
2035,2106,2032
2106,1979,2146
2147,1974,2087
2045,1920,2010
1975,1875,1958
2047,1995,2025
2117,2083,2081
2107,2082,2062
2018,1929,2033
2033,1936,2021
2106,2062,2058
2084,2029,2032
2027,1956,1975
2080,2009,2012
2107,2037,2091
2054,1990,2071
2035,2004,1970
2064,2026,1968
2113,2099,2074
2094,2125,2069
2117,2046,2097
2055,1936,1997
2027,1899,1971
2023,1941,1990
2033,1967,1986
2079,1970,1963
2102,2007,2032
2075,2015,2063
2057,1999,1946
2056,2024,1957
2077,1982,1972
2046,1959,2000
2057,1938,1970
2046,1991,2011
2064,2026,2052
2059,2034,2053
2032,1979,1884
2057,2002,1964
2143,2122,2032
2064,1968,1989
1967,1861,1918
2023,1959,1906
2111,2059,1966
2034,1965,1905
1958,1903,1916
1999,1917,1947
2059,1970,1998
2032,1959,1982
2000,1959,1918
2030,1991,1962
2038,1998,1991
2030,1971,1957
2005,1939,1909
2041,1967,1953
2063,2021,1970
2027,2017,1936
2016,1990,1906
2064,1938,1959
2074,1921,1983
2007,1910,1941
1947,1904,1899
2009,1997,1905
2090,2022,1936
2032,2007,1936
1954,1813,1946
1952,1847,1875
2000,1919,1936
1983,1904,1895
1995,1919,1899
2021,1955,1983
2025,1968,1923
1989,1919,1846
1968,1872,1889
2027,1934,1918
2019,1959,1933
1978,1900,1909
1963,1883,1861
2005,1925,1885
2018,1941,1919
1973,1882,1879
1936,1867,1846
1985,1906,1915
2012,1919,1888
1970,1889,1856
1931,1866,1803
1947,1874,1863
1998,1921,1939
1987,1919,1856
1927,1881,1824
1950,1872,1862
1999,1951,1904
1983,1884,1889
1931,1794,1834
1958,1840,1850
1983,1904,1898
1955,1895,1837
1950,1857,1810
1965,1866,1855
1974,1885,1943
1936,1877,1809
1921,1818,1769
1961,1868,1839
2000,1904,1885
1968,1849,1870
1952,1835,1802
1971,1894,1837
1975,1870,1964
1949,1858,1819
1935,1826,1742
1973,1840,1773
2003,1863,1820
1984,1840,1806
1941,1872,1803
1968,1911,1845
2032,1891,1883
2032,1862,1895
1990,1717,1792
2029,1765,1825
2007,1840,1778
1971,1840,1765
1938,1808,1759
1995,1855,1791
1999,1877,1885
1978,1826,1856
1942,1803,1744
1993,1839,1771
2030,1877,1830
1990,1854,1805
1990,1808,1810
2006,1838,1798
2030,1877,1855
1983,1856,1823
1958,1859,1796
2020,1870,1803
1991,1840,1815
1978,1775,1796
1990,1779,1904
2015,1887,1810
2031,1955,1747
1983,1797,1761
1975,1783,1775
2015,1795,1858
2122,1904,1901
2062,1936,1815
1917,1742,1719
1917,1735,1741
1987,1811,1778
1986,1796,1785
2045,1799,1766
1996,1815,1781
2000,1855,1827
1968,1850,1818
2007,1842,1805
2001,1815,1857
2020,1840,1810
1985,1820,1771
1984,1808,1771
2034,1863,1807
2028,1927,1872
2004,1865,1849
1999,1787,1755
2012,1843,1751
2018,1857,1894
2078,1845,1860
1947,1826,1711
1967,1837,1763
1970,1833,1838
1952,1840,1808
1938,1779,1772
1974,1793,1879
2000,1872,1834
1961,1855,1720
1969,1857,1776
2007,1876,1776
2018,1867,1848
2021,1849,1956
1961,1856,1762
1951,1847,1681
1954,1840,1751
1927,1841,1854
1904,1870,1764
1927,1845,1808
1983,1868,1785
1910,1858,1815
1887,1831,1719
1947,1817,1732
1951,1857,1813
1912,1902,1808
1861,1840,1774
1873,1821,1775
1953,1920,1814
2019,1870,1801
1886,1808,1766
1903,1872,1791
1919,1875,1792
1879,1856,1766
1856,1793,1814
1865,1833,1721
2015,1931,1786
1925,1917,1785
1843,1804,1826
1895,1916,1776
1921,1906,1766
1861,1801,1748
1845,1776,1712
1891,1821,1769
1895,1889,1781
1855,1868,1747
1830,1867,1746
1866,1919,1827
1872,1922,1840
1856,1904,1771
1862,1799,1750
1798,1840,1840
1927,1939,1829
1842,1879,1730
1794,1783,1731
1836,1785,1714
1899,1834,1761
1856,1869,1807
1792,1869,1742
1824,1860,1743
1809,1897,1779
1813,1871,1766
1805,1854,1776
1819,1882,1847
1839,1919,1875
1802,1906,1695
1786,1855,1658
1851,1861,1744
1909,1843,1796
1843,1815,1787
1818,1838,1712
1827,1898,1722
1852,1953,1808
1836,1905,1824
1813,1893,1787
1825,1918,1785
1840,1824,1797
1840,1849,1764
1792,1891,1723
1808,1908,1738
1851,1888,1801
1807,1833,1723
1775,1830,1705
1875,1883,1770
1824,1927,1813
1845,1922,1841
1787,1892,1774
1837,1969,1768
1839,1958,1788
1798,1863,1735
1728,1856,1728
1773,1884,1728
1842,1972,1776
1825,1975,1793
1791,1887,1754
1791,1842,1728
1845,1913,1801
1840,1967,1799
1776,1872,1682
1802,1890,1733
1815,1971,1793
1798,1926,1787
1777,1882,1773
1807,1906,1759
1821,1987,1783
1798,1931,1792
1765,1872,1695
1820,1873,1758
1861,1937,1823
1794,1913,1766
1763,1879,1741
1781,1871,1759
1824,1918,1794
1789,1873,1728
1735,1854,1744
1822,1958,1811
1862,1981,1843
1744,1867,1728
1711,1827,1669
1764,1869,1739
1840,2037,1810
1781,1915,1793
1751,1815,1717
1765,1800,1721
1795,1853,1788
1793,1893,1787
1763,1865,1738
1785,1870,1730
1826,1929,1818
1793,1874,1840
1755,1887,1739
1777,1902,1790
1814,1913,1758
1778,1904,1711
1776,1920,1772
1826,1968,1841
1831,1850,1731
1751,1805,1691
1722,1839,1721
1790,1936,1805
1799,1904,1804
1776,1829,1765
1731,1871,1694
1771,1898,1753
1811,1939,1814
1800,1917,1793
1776,1861,1775
1791,1921,1799
1841,2011,1797
1779,1895,1739
1744,1834,1755
1789,1844,1776
1813,1929,1779
1801,1936,1772
1761,1837,1759
1795,1859,1773
1809,1893,1798
1789,1899,1770
1773,1868,1744
1808,1882,1804
1819,1910,1847
1806,1893,1877
1763,1847,1703
1785,1894,1711
1837,1921,1792
1831,1905,1810
1792,1892,1808
1775,1909,1772
1799,1935,1796
1790,1855,1793
1767,1838,1747
1805,1920,1805
1840,2028,1859
1774,1870,1758
1753,1807,1729
1798,1879,1776
1835,1904,1824
1808,1914,1827
1815,1858,1903
1856,1907,1829
1801,1872,1744
1772,1843,1813
1751,1887,1765
1788,1872,1781
1840,1899,1951
1808,1921,1908
1810,1931,1755
1811,1873,1723
1802,1884,1771
1791,1907,1817
1760,1833,1781
1778,1843,1793
1831,1904,1863
1810,1889,1901
1808,1874,1759
1819,1877,1783
1828,1872,1807
1792,1859,1776
1779,1844,1778
1810,1873,1872
1856,1959,1838
1835,1927,1799
1796,1866,1753
1797,1861,1789
1815,1869,1840
1779,1829,1829
1795,1863,1905
1839,1933,1826
1840,1855,1802
1783,1782,1719
1789,1792,1787
1843,1844,1838
1878,1931,1857
1839,1927,1819
1776,1850,1795
1821,1892,1818
1854,1906,1833
1847,1863,1809
1807,1816,1792
1807,1814,1900
1842,1872,1861
1811,1872,1744
1792,1870,1806
1833,1883,1847
1869,1905,1818
1842,1895,1778
1862,1888,1840
1852,1874,1857
1866,1929,1862
1810,1856,1799
1776,1843,1775
1847,1918,1841
1862,1863,1833
1834,1859,1798
1814,1838,1854
1850,1886,1847
1869,1918,1855
1843,1883,1834
1858,1879,1834
1865,1916,1879
1862,1965,1831
1845,1935,1823
1850,1898,1794
1883,1937,1842
1877,1914,1878
1840,1865,1814
1814,1840,1774
1846,1855,1838
1899,1935,1900
1871,1863,1857
1840,1818,1783
1841,1910,1802
1887,1960,1851
1871,1923,1893
1856,1902,1751
1851,1923,1779
1872,1946,1872
1856,1931,1869
1854,1875,1845
1871,1892,1859
1869,1959,1814
1840,1911,1812
1826,1866,1797
1867,1897,1871
1899,1932,1853
1851,1907,1791
1849,1888,1813
1911,2006,1922
1904,1957,1878
1834,1849,1778
1812,1831,1744
1855,1884,1809
1893,1945,1867
1857,1906,1824
1850,1904,1819
1904,1901,1922
1903,1911,1843
1828,1898,1754
1827,1868,1808
1856,1895,1883
1874,1945,1856
1852,1885,1795
1839,1859,1779
1867,1872,1808
1897,1941,1842
1878,1925,1841
1846,1871,1881
1859,1940,1803
1889,1981,1808
1867,1869,1839
1814,1744,1814
1851,1851,1828
1905,1947,1874
1879,1967,1877
1819,1878,1742
1825,1853,1737
1859,1856,1824
1857,1872,1821
1868,1877,1822
1910,1958,1884
1903,1938,1891
1826,1813,1809
1797,1800,1745
1842,1839,1774
1879,1920,1837
1875,1894,1847
1840,1815,1792
1888,1861,1906
1899,1931,1887
1851,1887,1787
1849,1819,1783
1914,1867,1881
1923,1913,1862
1841,1889,1761
1793,1798,1735
1837,1826,1801
1884,1882,1911
1867,1851,1833
1846,1871,1792
1873,1872,1917
1866,1789,1872
1837,1744,1753
1839,1820,1831
1868,1897,1806
1905,1898,1840
1876,1858,1821
1871,1843,1818
1881,1860,1856
1879,1895,1854
1865,1822,1836
1850,1774,1765
1853,1825,1769
1889,1892,1877
1856,1834,1831
1841,1802,1786
1889,1796,1877
1887,1805,1933
1846,1851,1799
1834,1851,1723
1861,1825,1754
1901,1842,1842
1872,1840,1855
1861,1849,1841
1881,1843,1845
1887,1859,1810
1857,1894,1807
1863,1831,1847
1861,1786,1817
1879,1825,1834
1872,1818,1809
1861,1776,1802
1883,1819,1863
1909,1855,1879
1853,1793,1802
1831,1766,1760
1872,1851,1840
1921,2003,1892
1919,1825,1907
1842,1726,1836
1839,1778,1719
1889,1858,1783
1879,1831,1826
1854,1776,1807
1882,1851,1808
1904,1877,1916
1887,1856,1845
1828,1798,1781
1855,1815,1743
1895,1898,1814
1872,1889,1803
1856,1763,1797
1887,1712,1841
1914,1858,1879
1872,1855,1830
1831,1795,1776
1872,1817,1807
1909,1823,1863
1858,1797,1827
1856,1839,1827
1878,1904,1831
1905,1900,1875
1874,1830,1861
1847,1730,1829
1879,1760,1772
1925,1834,1808
1877,1830,1792
1872,1776,1803
1861,1787,1769
1913,1875,1895
1885,1833,1898
1857,1807,1770
1891,1840,1777
1933,1856,1834
1875,1798,1789
1856,1835,1791
1920,1943,1859
1937,1830,1869
1903,1742,1793
1883,1745,1776
1905,1811,1841
1942,1853,1899
1923,1818,1835
1894,1818,1807
1925,1807,1798
1978,1824,1837
1930,1817,1822
1875,1821,1786
1903,1837,1805
1958,1875,1836
1939,1840,1809
1926,1835,1822
1946,1904,1856
1959,1875,1858
1924,1775,1774
1929,1751,1819
1956,1879,1837
1939,1830,1809
1927,1743,1817
1919,1788,1798
1957,1872,1819
1984,1904,1825
1952,1843,1807
1911,1776,1791
1924,1771,1805
1966,1838,1840
1946,1844,1827
1933,1763,1794
1961,1822,1806
2000,1883,1855
1960,1828,1868
1927,1782,1823
1935,1822,1779
1990,1858,1799
1959,1803,1810
1968,1820,1858
1983,1849,1910
1977,1840,1840
1953,1847,1774
1946,1793,1771
1991,1854,1843
2027,1915,1914
1977,1875,1822
1942,1763,1747
1954,1728,1794
2014,1866,1860
1983,1854,1829
1958,1835,1791
1970,1835,1808
1997,1887,1849
2007,1904,1889
1985,1893,1814
1975,1855,1808
2011,1894,1862
1952,1867,1823
1917,1840,1771
