1855,1875,1871
1902,1929,1937
1885,1929,1904
1844,1882,1861
1863,1899,1862
1886,1917,1857
1878,1888,1870
1856,1875,1806
1862,1903,1840
1887,1924,1930
1876,1898,1870
1849,1883,1810
1872,1903,1849
1901,1917,1873
1883,1895,1886
1850,1870,1841
1859,1871,1850
1902,1919,1822
1882,1919,1872
1851,1891,1835
1865,1907,1899
1898,1920,1878
1875,1907,1869
1846,1855,1827
1858,1859,1834
1901,1913,1898
1887,1927,1879
1853,1874,1831
1868,1876,1819
1907,1907,1905
1886,1886,1867
1856,1891,1789
1876,1927,1851
1901,1916,1843
1879,1872,1902
1856,1840,1843
1868,1859,1808
1901,1913,1911
1875,1906,1850
1856,1867,1817
1876,1866,1810
1904,1893,1839
1890,1882,1873
1857,1847,1880
1870,1906,1827
1903,1951,1851
1885,1905,1872
1866,1842,1877
1873,1865,1846
1895,1899,1835
1872,1890,1808
1850,1857,1824
1869,1870,1831
1904,1906,1840
1881,1907,1879
1843,1902,1818
1867,1855,1851
1905,1888,1872
1885,1895,1851
1847,1869,1813
1872,1858,1841
1897,1904,1869
1881,1909,1839
1855,1874,1827
1867,1866,1841
1886,1913,1869
1876,1919,1817
1855,1863,1815
1862,1875,1872
1891,1924,1866
1875,1889,1822
1842,1852,1820
1860,1886,1878
1891,1904,1847
1881,1882,1822
1856,1862,1819
1872,1884,1827
1898,1906,1862
1876,1927,1920
1855,1872,1821
1867,1871,1822
1891,1903,1860
1872,1893,1854
1843,1885,1839
1867,1903,1834
1885,1915,1858
1866,1898,1845
1840,1849,1798
1853,1856,1823
1883,1904,1878
1872,1901,1856
1840,1878,1815
1849,1882,1828
1872,1895,1866
1865,1882,1845
1840,1849,1810
1860,1872,1845
1887,1907,1866
1862,1899,1839
1837,1862,1807
1856,1888,1830
1882,1915,1867
1859,1868,1850
1837,1825,1818
1859,1857,1839
1884,1904,1871
1866,1904,1857
1830,1845,1823
1841,1844,1831
1873,1874,1858
1872,1879,1856
1850,1867,1814
1859,1875,1834
1882,1903,1874
1837,1878,1856
1845,1863,1813
1872,1873,1818
1892,1901,1867
1862,1890,1854
1808,1859,1834
1835,1859,1850
1885,1893,1881
1872,1877,1853
1866,1842,1815
1865,1872,1840
1872,1917,1868
1905,1878,1858
1835,1849,1827
1805,1863,1840
1859,1891,1867
1862,1891,1851
1836,1859,1830
1860,1902,1851
1887,1943,1896
1866,1876,1875
1866,1842,1840
1869,1856,1863
1878,1891,1878
1822,1893,1858
1826,1872,1839
1855,1903,1872
1859,1910,1890
1872,1873,1861
1834,1840,1837
1839,1872,1852
1931,1913,1898
1879,1895,1892
1840,1866,1845
1853,1910,1853
1879,1925,1901
1858,1857,1875
1842,1840,1845
1872,1871,1872
1885,1907,1895
1872,1898,1883
1838,1856,1856
1859,1899,1870
1925,1921,1899
1860,1922,1871
1829,1833,1827
1842,1849,1866
1910,1891,1901
1876,1891,1874
1841,1875,1857
1870,1897,1875
1908,1913,1904
1904,1897,1875
1856,1857,1855
1862,1871,1872
1872,1904,1898
1872,1901,1862
1837,1879,1840
1855,1895,1857
1909,1895,1903
1857,1885,1899
1879,1885,1856
1825,1904,1860
1872,1899,1899
1856,1887,1874
1838,1873,1842
1870,1881,1869
1833,1879,1886
1903,1873,1872
1856,1859,1841
1885,1872,1865
1931,1899,1901
1920,1890,1875
1817,1872,1842
1859,1869,1867
1920,1879,1888
1871,1879,1867
1840,1856,1827
1854,1894,1850
1897,1929,1901
1891,1871,1872
1865,1840,1824
1872,1872,1847
1876,1903,1886
1857,1881,1863
1833,1855,1836
1840,1873,1868
1877,1905,1893
1863,1899,1866
1837,1862,1837
1920,1873,1848
1861,1904,1871
1856,1891,1856
1850,1843,1837
1875,1870,1859
1893,1925,1887
1869,1899,1874
1840,1840,1838
1860,1855,1850
1883,1920,1877
1877,1904,1867
1850,1830,1827
1837,1855,1853
1935,1908,1884
1861,1927,1858
1815,1879,1830
1888,1861,1845
1858,1892,1883
1851,1878,1846
1840,1872,1815
1871,1881,1846
1918,1916,1872
1898,1879,1861
1871,1872,1838
1838,1867,1842
1910,1893,1872
1911,1899,1857
1851,1872,1814
1879,1901,1834
1907,1902,1879
1872,1888,1859
1933,1881,1826
1883,1895,1843
1953,1917,1872
1868,1895,1847
1840,1862,1826
1923,1874,1839
1898,1914,1877
1870,1897,1840
1855,1875,1815
1926,1881,1838
1881,1911,1871
1891,1902,1845
1856,1910,1826
1879,1891,1849
1897,1904,1872
1871,1854,1836
1871,1842,1799
1875,1886,1829
1903,1915,1883
1871,1890,1856
1840,1867,1824
1859,1881,1837
1851,1907,1872
1856,1895,1843
1818,1871,1822
1919,1872,1837
1873,1922,1857
1915,1918,1841
1879,1839,1807
1735,1849,1819
1947,1884,1845
1840,1897,1836
1862,1881,1818
1863,1895,1845
1911,1873,1856
1862,1872,1841
1839,1864,1829
1853,1867,1837
1879,1901,1857
1861,1898,1831
1842,1881,1810
1861,1904,1828
1872,1930,1863
1862,1872,1840
1834,1837,1805
1856,1867,1831
1882,1907,1855
1871,1904,1840
1845,1877,1814
1861,1893,1839
1893,1934,1872
1873,1901,1847
1848,1850,1808
1858,1872,1825
1897,1922,1856
1871,1909,1846
1845,1859,1829
1872,1899,1847
1897,1932,1866
1875,1876,1840
1853,1847,1799
1861,1867,1823
1898,1903,1855
1877,1901,1848
1852,1873,1817
1867,1872,1826
1887,1909,1846
1863,1886,1823
1840,1858,1805
1869,1877,1827
1890,1909,1852
1866,1897,1830
1845,1866,1805
1863,1876,1822
1887,1903,1847
1869,1895,1817
1852,1858,1795
1872,1889,1827
1893,1919,1853
1857,1915,1824
1853,1877,1792
1865,1879,1821
1886,1889,1853
1872,1871,1839
1853,1855,1804
1873,1873,1813
1891,1904,1850
1882,1889,1840
1859,1871,1799
1861,1894,1819
1879,1897,1839
1872,1875,1840
1857,1859,1833
1877,1882,1846
1900,1919,1856
1870,1903,1833
1840,1867,1794
1859,1891,1819
1894,1920,1840
1875,1904,1839
1862,1866,1818
1872,1889,1839
1887,1935,1869
1872,1906,1825
1856,1861,1789
1878,1882,1822
1904,1921,1860
1883,1904,1841
1854,1874,1814
1877,1891,1830
1911,1934,1861
1890,1911,1838
1858,1876,1799
1882,1890,1829
1921,1935,1854
1890,1894,1835
1855,1863,1813
1871,1885,1840
1911,1918,1872
1895,1911,1857
1872,1883,1812
1886,1887,1833
1913,1939,1872
1898,1935,1839
1868,1867,1802
1883,1869,1817
1915,1936,1869
1903,1947,1870
1872,1860,1829
1893,1860,1829
1922,1903,1858
1903,1920,1850
1877,1886,1836
1888,1879,1854
1921,1926,1870
1902,1901,1849
1873,1872,1815
1892,1889,1847
1926,1921,1872
1888,1895,1841
1870,1860,1808
1904,1898,1842
1933,1917,1874
1905,1879,1840
1867,1856,1809
1881,1882,1847
1921,1923,1886
1893,1910,1847
1871,1869,1808
1888,1882,1840
1917,1906,1871
1893,1902,1856
1869,1875,1829
1878,1899,1845
1912,1926,1874
1897,1896,1852
1870,1861,1822
1886,1898,1844
1916,1926,1873
1904,1911,1854
1877,1885,1813
1890,1888,1834
1920,1920,1872
1904,1919,1845
1874,1869,1806
1888,1906,1857
1918,1931,1890
1883,1879,1835
1867,1851,1806
1899,1872,1836
1911,1905,1871
1888,1904,1855
1859,1877,1824
1881,1897,1834
1921,1907,1875
1909,1894,1847
1874,1867,1818
1892,1888,1845
1927,1931,1885
1904,1931,1867
1869,1845,1803
1876,1868,1826
1911,1912,1867
1894,1910,1854
1872,1885,1819
1894,1895,1844
1919,1927,1876
1904,1940,1854
1877,1895,1819
1895,1885,1842
1922,1913,1881
1920,1911,1853
1894,1837,1804
1909,1852,1847
1935,1979,1894
1915,1937,1861
1884,1856,1833
1897,1871,1839
1927,1882,1879
1919,1923,1858
1885,1873,1823
1904,1917,1855
1927,1960,1889
1917,1943,1888
1883,1879,1833
1901,1840,1837
1922,1885,1865
1904,1901,1854
1883,1857,1831
1898,1917,1856
1929,1886,1925
1898,1934,1865
1872,1870,1809
1893,1909,1840
1915,1933,1879
1901,1897,1859
1875,1885,1827
1899,1882,1839
1917,1905,1887
1906,1904,1883
1877,1881,1846
1887,1879,1847
1913,1905,1882
1905,1901,1872
1873,1891,1822
1889,1892,1851
1913,1879,1879
1894,1936,1856
1866,1867,1826
1882,1840,1846
1909,1876,1870
1885,1899,1846
1859,1904,1840
1887,1851,1850
1916,1917,1891
1889,1908,1865
1873,1844,1843
1873,1826,1855
1911,1942,1873
1885,1855,1856
1861,1894,1840
1889,1907,1863
1872,1904,1827
1901,1922,1871
1882,1849,1851
1889,1915,1863
1904,1938,1876
1885,1897,1859
1865,1867,1820
1887,1888,1863
1909,1902,1902
1879,1895,1860
1854,1874,1819
1875,1840,1840
1903,1904,1869
1890,1885,1853
1855,1894,1815
1868,1923,1842
1902,1889,1871
1887,1873,1840
1859,1887,1814
1877,1911,1840
1905,1895,1879
1883,1857,1846
1856,1845,1822
1876,1878,1843
1900,1898,1863
1863,1846,1843
1851,1840,1824
1881,1942,1861
1904,1852,1872
1878,1871,1840
1847,1829,1803
1887,1860,1827
1920,1915,1879
1894,1952,1851
1857,1884,1808
1871,1875,1838
1914,1966,1879
1904,1899,1862
1872,1862,1823
1873,1862,1832
1904,1904,1856
1880,1885,1841
1857,1893,1820
1882,1871,1846
1904,1904,1872
1875,1901,1839
1861,1855,1824
1877,1870,1862
1904,1907,1877
1890,1869,1847
1863,1810,1823
1873,1856,1843
1906,1930,1872
1879,1890,1842
1856,1852,1808
1872,1901,1831
1908,1937,1887
1885,1923,1868
1850,1853,1821
1861,1863,1831
1896,1950,1868
1872,1927,1850
1842,1885,1811
1870,1859,1830
1904,1930,1871
1886,1922,1842
1854,1884,1808
1871,1884,1835
1898,1912,1871
1875,1910,1847
1854,1874,1811
1877,1869,1850
1905,1891,1886
1879,1900,1858
1846,1872,1817
1866,1874,1830
1900,1917,1880
1882,1905,1869
1859,1883,1835
1875,1889,1841
1898,1917,1875
1878,1968,1861
1847,1883,1822
1878,1901,1834
1910,1904,1872
1897,1889,1854
1862,1881,1829
1871,1901,1857
1904,1904,1882
1879,1873,1857
1865,1855,1831
1901,1893,1838
1925,1892,1897
1904,1891,1879
1867,1899,1840
1890,1968,1867
1915,1890,1898
1895,1889,1863
1863,1901,1827
1895,1898,1845
1929,1886,1892
1911,1920,1884
1878,1902,1854
1894,1923,1866
1919,1918,1895
1903,1907,1882
1877,1903,1847
1898,1894,1856
1939,1904,1897
1915,1899,1875
1886,1892,1845
1898,1905,1860
1939,1919,1902
1925,1904,1875
1895,1882,1840
1914,1906,1869
1936,1927,1893
1922,1910,1862
1894,1893,1847
1918,1941,1895
1936,1926,1904
1914,1892,1854
1889,1859,1837
1920,1909,1877
1938,1936,1907
1921,1907,1879
1897,1891,1846
1918,1910,1871
1942,1923,1893
1927,1898,1877
1901,1878,1851
1917,1901,1866
1936,1918,1894
1915,1902,1872
1902,1878,1856
1914,1897,1867
1936,1919,1897
1923,1901,1867
1891,1890,1834
1909,1932,1872
1941,1939,1909
1914,1905,1878
1890,1894,1843
1917,1898,1872
1937,1889,1874
1920,1890,1858
1888,1872,1837
1916,1904,1868
1940,1924,1897
1916,1900,1855
1894,1885,1826
1911,1901,1842
1939,1925,1893
1919,1909,1877
1895,1883,1846
1907,1911,1865
1942,1951,1904
1922,1914,1877
1895,1868,1827
1920,1887,1859
1946,1925,1889
1918,1906,1861
1891,1895,1834
1918,1913,1867
1945,1920,1893
1909,1885,1861
1886,1872,1825
1918,1905,1872
1949,1963,1909
1914,1913,1866
1883,1866,1810
1904,1888,1851
1936,1925,1887
1910,1907,1870
1883,1883,1840
1913,1911,1858
1936,1945,1903
1909,1911,1872
1878,1876,1825
1902,1899,1846
1925,1924,1887
1910,1915,1873
1891,1893,1841
1903,1907,1849
1920,1926,1889
1915,1931,1873
1872,1885,1835
1899,1903,1858
1923,1930,1894
1904,1905,1872
1878,1870,1840
1892,1893,1857
1915,1945,1894
1904,1904,1874
1879,1858,1839
1893,1881,1853
1920,1926,1890
1898,1911,1865
1878,1876,1840
1904,1902,1876
1924,1930,1902
1909,1909,1872
1882,1883,1840
1904,1897,1866
1927,1926,1889
1904,1907,1861
1883,1889,1840
1911,1904,1867
1941,1943,1901
1920,1914,1866
1870,1866,1821
1886,1878,1843
1923,1920,1872
1913,1905,1869
1891,1872,1842
1903,1891,1861
1924,1922,1883
1917,1909,1867
1886,1881,1831
1904,1893,1843
1927,1914,1877
1920,1905,1861
1883,1870,1835
1890,1874,1854
1933,1903,1879
1907,1897,1855
1886,1867,1830
1906,1883,1869
1948,1920,1921
1912,1904,1871
1904,1879,1832
1939,1910,1871
1937,1920,1894
1906,1901,1872
1874,1856,1838
1875,1856,1847
1907,1895,1859
1903,1884,1854
1919,1881,1861
1950,1902,1904
1936,1905,1952
1919,1897,1930
1877,1856,1797
1862,1830,1744
1897,1875,1835
1902,1882,1862
1864,1833,1828
1892,1855,1850
2037,1904,1885
1959,1869,1839
1842,1825,1838
1803,1829,1872
1871,1874,1897
1909,1881,1923
1876,1837,1916
1913,1873,1899
1935,1912,1833
1904,1854,1795
1904,1841,1840
1903,1840,1824
1879,1871,1849
1894,1861,1925
1839,1804,1847
1854,1823,1789
1899,1863,1889
1931,1842,1913
1872,1838,1749
1847,1840,1728
1920,1862,1835
1869,1845,1792
1833,1807,1875
1868,1846,1911
1927,1877,1853
1963,1842,1856
1918,1797,1808
1885,1835,1789
1909,1881,1807
1931,1853,1926
1873,1808,1962
1842,1846,1866
1878,1827,1840
1851,1787,1810
1793,1808,1744
1824,1847,1858
1879,1855,1903
1954,1839,1879
1872,1801,1808
1827,1812,1847
1811,1859,1884
1840,1929,1863
1926,1910,1785
1822,1776,1839
1813,1831,1906
1903,2106,1895
1805,1807,1708
1760,1599,1755
1851,1734,1942
1841,1835,1921
1789,1739,1840
1833,1775,1911
1947,2035,1866
1829,1955,1766
1808,1617,1849
1889,1606,1872
1831,1783,1839
1763,1803,1835
1751,1685,1841
1797,1872,1871
1830,1871,1859
1793,1682,1808
1853,1808,1799
1963,2469,1803
1758,1903,1731
1666,1309,1917
1769,1438,1983
1799,1658,1939
1774,1791,1834
1751,1719,1714
1788,1733,1825
1830,1760,1754
1833,1791,1839
1750,1776,1937
1658,1748,1777
1740,1808,1697
1979,1879,1813
1965,1840,1858
1695,1767,1892
1627,1744,1728
1762,1811,1840
1812,1795,1802
1679,1745,1824
1674,1807,1811
1775,1866,1872
1811,1833,1847
1854,1835,1839
1777,1824,1825
1712,1873,1847
1737,1927,1827
1663,1847,1649
1637,1840,1681
1739,1896,1855
1710,1903,1831
1659,1889,1782
1728,1914,1810
1761,1927,1855
1698,1924,1806
1721,1926,1806
1739,1923,1809
1712,1922,1770
1699,1904,1763
1731,1866,1745
1738,1882,1691
1717,1905,1811
1648,1909,1824
1653,1904,1741
1760,1926,1757
1751,1937,1853
1659,1907,1804
1650,1889,1715
1703,1876,1693
1763,1927,1794
1726,1874,1781
1629,1831,1706
1699,1862,1776
1745,1869,1761
1754,1845,1739
1739,1818,1730
1687,1878,1779
1707,1902,1775
1714,1856,1774
1718,1823,1691
1776,1837,1757
1770,1875,1853
1743,1884,1829
1721,1862,1728
1711,1859,1755
1728,1835,1901
1693,1815,1741
1629,1782,1682
1722,1824,1762
1760,1845,1792
1731,1822,1753
1742,1834,1792
1744,1835,1846
1759,1826,1842
1781,1808,1795
1771,1789,1775
1744,1822,1779
1739,1840,1795
1734,1809,1778
1712,1786,1751
1735,1782,1702
1776,1741,1779
1757,1751,1855
1786,1789,1849
1812,1837,1813
1747,1814,1810
1728,1799,1743
1728,1750,1757
1830,1797,1882
1837,1785,1867
1683,1715,1719
1711,1734,1700
1768,1757,1744
1770,1739,1856
1749,1781,1823
1782,1779,1829
1791,1776,1871
1794,1750,1747
1832,1776,1828
1856,1786,1820
1809,1767,1841
1825,1779,1918
1795,1747,1812
1777,1730,1722
1803,1793,1804
1819,1801,1851
1755,1733,1749
1747,1729,1741
1813,1787,1895
1855,1871,1870
1779,1792,1797
1806,1760,1844
1847,1773,1869
1880,1792,1891
1817,1839,1872
1753,1719,1721
1761,1677,1707
1845,1790,1861
1815,1763,1846
1790,1729,1791
1838,1786,1845
1902,1822,1954
1840,1780,1840
1821,1787,1762
1840,1789,1822
1873,1802,1883
1847,1767,1846
1799,1803,1807
1834,1808,1827
1815,1810,1881
1828,1829,1891
1822,1731,1858
1895,1744,1840
1835,1815,1787
1881,1883,1840
1840,1891,1901
1835,1791,1872
1838,1697,1807
1842,1661,1786
1840,1725,1779
1868,1764,1799
1844,1794,1814
1903,1830,1875
1893,1810,1862
1808,1773,1857
1859,1797,1872
1776,1788,1814
1809,1787,1837
1845,1788,1861
1859,1839,1853
1875,1879,1856
1851,1759,1878
1860,1732,1919
1847,1775,1838
1794,1738,1789
1776,1774,1818
1813,1842,1881
1891,1827,1872
1871,1799,1826
1822,1712,1817
1831,1742,1867
1904,1839,1915
1898,1865,1871
1826,1765,1851
1858,1744,1883
1881,1776,1918
1815,1770,1789
1810,1798,1792
1860,1787,1808
1873,1862,1883
1899,1861,1874
1875,1865,1855
1840,1901,1867
1883,1839,1840
1890,1747,1842
1866,1730,1846
1919,1778,1959
1858,1787,1904
1816,1869,1761
1812,1859,1757
1829,1813,1856
1923,1863,1919
1840,1860,1861
1808,1831,1810
1859,1870,1829
1923,1904,1899
1836,1887,1839
1782,1849,1806
1889,1809,1905
1923,1856,1987
1886,1827,1874
1835,1850,1771
1840,1841,1790
1872,1886,1859
1878,1897,1915
1855,1885,1871
1907,1878,1869
1882,1854,1810
1860,1866,1829
1854,1838,1899
1930,1872,1885
1898,1923,1904
1883,1887,1814
1894,1847,1817
1833,1857,1878
1873,1882,1950
1810,1840,1845
1815,1840,1787
1839,1872,1811
1925,1907,1841
1917,1905,1810
1826,1898,1830
1881,1951,1906
1889,1961,1917
1810,1872,1910
1869,1867,1834
1902,1899,1931
1931,1943,1835
1839,1904,1787
1707,1861,1789
1766,1927,1833
1904,1933,1870
1867,1887,1879
1851,1872,1872
1897,1939,1921
1911,1987,1893
1883,2010,1834
1834,1882,1803
1840,1807,1848
1890,1889,1907
1936,1927,1885
1847,1872,1781
1842,1863,1813
1904,1967,1931
1862,1984,1910
1822,1950,1835
1890,1974,1863
1872,1968,1859
1865,1934,1827
1917,1921,1845
1936,1937,1839
1918,2000,1869
1862,1951,1861
1857,1925,1886
1847,1968,1841
1922,2035,1847
1903,1920,1828
1746,1879,1851
1831,1953,1838
1877,1993,1857
1969,2036,1882
1867,2015,1877
1903,1993,1887
1838,1984,1862
1910,1999,1862
1881,1947,1850
1801,1878,1817
1873,1915,1821
1893,1995,1821
1851,1971,1822
1872,1987,1871
1953,2023,1936
1889,2031,1879
1847,1938,1761
1878,1968,1794
1971,2033,1907
1896,2028,1898
1839,1945,1781
1845,1968,1843
1845,2000,1890
1893,2022,1872
1853,1987,1857
1855,1926,1870
1936,2031,1927
1863,1977,1870
1929,1910,1773
1859,1983,1819
1875,2033,1903
1946,2041,1887
1902,1981,1823
1889,1972,1854
1942,2011,1904
1921,1991,1851
1917,1943,1904
1943,1979,1901
1919,2011,1840
1881,1993,1826
1890,1978,1777
1883,1968,1869
1935,2059,1941
1889,2000,1894
1846,1956,1829
1862,1963,1831
1933,2013,1909
1926,2043,1871
1891,2004,1835
1904,1967,1850
1937,2035,1916
1936,2010,1927
1914,2000,1871
1917,1983,1781
1935,2031,1857
1911,2038,1887
1890,2009,1832
1935,2034,1834
1906,1984,1889
1902,1970,1911
1891,2013,1887
1899,2043,1863
1916,2031,1876
1906,2015,1867
1886,1970,1802
1919,2069,1851
1937,2108,1887
1904,2032,1849
1870,1990,1835
1904,2010,1845
1962,2017,1906
1942,2053,1922
1872,2000,1776
1890,2011,1850
1905,2059,1899
1885,2067,1872
1879,2060,1856
1935,2022,1897
1967,2090,1936
1920,2070,1895
1887,2015,1835
1936,2005,1868
1963,2113,1894
1917,2137,1906
1890,2022,1817
1911,1941,1835
1936,1990,1841
1916,2019,1837
1914,2010,1802
1917,2033,1890
1936,2090,1955
1913,2042,1872
1861,2010,1877
1904,2043,1871
1937,2096,1889
1902,2047,1856
1895,2011,1862
1936,2047,1897
1937,2075,1927
1907,2007,1881
1877,1979,1826
1926,2054,1874
1962,2106,1933
1920,2014,1841
1870,1998,1791
1893,2023,1840
1944,2001,1922
1934,2004,1917
1915,1984,1872
1913,1985,1847
1973,2054,1878
1974,2047,1927
1894,1974,1899
1912,2006,1823
1936,2076,1849
1935,2053,1893
1907,1969,1824
1931,1951,1879
1954,2022,1905
1915,2031,1930
1899,1959,1911
1904,1978,1861
1957,2047,1890
1931,2003,1840
1893,1944,1858
1910,1981,1903
1968,2006,1919
1935,1973,1840
1878,1935,1813
1909,1935,1845
1970,1968,1895
1946,1963,1885
1918,1938,1820
1884,1970,1877
1920,2000,1967
1951,1972,1904
1891,1921,1815
1883,1951,1858
1918,1975,1889
1934,1984,1904
1907,1943,1847
1921,1998,1867
1957,1999,1931
1965,1879,1839
1911,1850,1840
1917,1933,1903
1959,1985,1973
1934,1937,1922
1891,1904,1814
1898,1920,1808
1957,1953,1883
1914,1936,1872
1865,1907,1829
1920,1920,1872
1950,1936,1905
1935,1920,1901
1894,1905,1871
1934,1915,1888
1920,1854,1833
1890,1854,1851
1919,1879,1889
1956,1904,1879
1942,1919,1872
1911,1898,1872
1931,1904,1868
1947,1908,1873
1905,1890,1875
1895,1869,1883
1872,1841,1822
1907,1903,1847
1953,1920,1883
1929,1890,1890
1894,1820,1854
1943,1834,1861
1943,1860,1870
1909,1855,1842
1874,1870,1838
1921,1901,1872
1913,1883,1882
1905,1839,1849
1911,1821,1847
1927,1843,1846
1925,1885,1872
1909,1904,1873
1889,1861,1849
1893,1872,1853
1908,1851,1875
1939,1827,1888
1947,1868,1930
1936,1925,1877
1911,1845,1814
1888,1778,1836
1863,1796,1843
1919,1905,1889
1936,1879,1903
1922,1814,1865
1915,1834,1831
1913,1889,1867
1950,1934,1957
1921,1907,1870
1914,1834,1791
1889,1829,1847
1914,1796,1867
1894,1809,1867
1911,1841,1889
1962,1890,1935
1931,1901,1875
1852,1830,1802
1881,1817,1830
1917,1859,1881
1921,1874,1904
1890,1822,1871
1909,1835,1845
1957,1853,1875
1989,1899,1950
1853,1814,1818
1821,1809,1792
1869,1872,1876
1913,1862,1878
1925,1841,1857
1947,1858,1834
1918,1854,1915
1904,1879,1913
1909,1856,1835
1890,1838,1815
1893,1902,1917
1914,1855,1917
1888,1809,1856
1899,1840,1832
1920,1842,1841
1933,1900,1907
1859,1861,1853
1858,1819,1827
1932,1910,1849
1930,1850,1863
1881,1888,1889
1847,1827,1823
1894,1833,1797
1954,1875,1904
1918,1864,1877
1869,1751,1817
1899,1817,1855
1936,1904,1917
1932,1936,1874
1881,1823,1840
1887,1858,1867
1933,1900,1949
1920,1811,1860
1872,1810,1799
1860,1833,1815
1902,1820,1871
1900,1848,1856
1879,1778,1839
1922,1866,1855
1935,1904,1871
1887,1845,1872
1877,1813,1822
1930,1841,1867
1947,1885,1937
1867,1854,1891
1863,1824,1799
1906,1855,1813
1959,1902,1840
1879,1870,1829
1862,1834,1867
1904,1885,1894
1936,1886,1878
1868,1815,1887
1824,1799,1818
1891,1891,1858
1918,1899,1884
1875,1819,1839
1867,1809,1818
1889,1847,1855
1926,1872,1917
1894,1853,1871
1851,1841,1808
1891,1865,1865
1927,1841,1888
1920,1840,1827
1871,1815,1807
1898,1815,1911
1920,1890,1943
1869,1843,1857
1857,1819,1778
1895,1863,1820
1915,1882,1858
1879,1842,1850
1889,1835,1860
1891,1834,1857
1911,1828,1839
1856,1831,1857
1854,1849,1885
1885,1836,1869
1909,1862,1845
1910,1809,1840
1903,1938,1855
1936,1789,1874
1929,1822,1894
1897,1809,1840
1842,1835,1776
1870,1808,1814
1899,1915,1875
1921,1858,1863
1899,1870,1826
1883,1823,1858
1942,1888,1906
1930,1870,1853
1862,1775,1825
1856,1855,1869
1904,1889,1876
1877,1872,1865
1872,1843,1840
1897,1874,1862
1920,1887,1878
1890,1869,1833
1869,1819,1855
1895,1830,1873
1904,1872,1855
1897,1857,1840
1878,1824,1839
1937,1842,1871
1941,1879,1851
1865,1872,1806
1868,1879,1840
1884,1872,1870
1915,1878,1862
1903,1861,1840
1869,1847,1825
1872,1856,1847
1914,1919,1872
1876,1901,1853
1862,1839,1849
1922,1841,1897
1934,1875,1872
1887,1872,1842
1903,1844,1843
1901,1893,1857
1933,1851,1847
1878,1863,1852
1863,1850,1827
1867,1781,1835
1904,1857,1869
1930,1845,1826
1904,1935,1854
1872,1843,1872
1889,1860,1881
1865,1803,1826
1855,1819,1791
1877,1833,1829
1925,1866,1893
1902,1846,1868
1904,1798,1843
1940,1843,1908
1905,1904,1876
1840,1835,1797
1825,1769,1829
1852,1789,1826
1893,1840,1866
1899,1835,1829
1872,1831,1806
1883,1837,1841
1901,1853,1877
1857,1833,1843
1859,1842,1871
1923,1873,1917
1930,1863,1897
1831,1751,1776
1817,1710,1743
1869,1794,1838
1905,1856,1904
1905,1867,1870
1862,1827,1823
1867,1808,1869
1895,1854,1901
1881,1843,1858
1835,1795,1781
1840,1818,1809
1890,1840,1839
1874,1835,1837
1861,1798,1799
1886,1819,1870
1890,1871,1929
1882,1872,1892
1856,1788,1838
1888,1810,1810
1891,1854,1863
1840,1819,1837
1826,1783,1798
1845,1799,1781
1905,1869,1859
1918,1891,1918
1853,1815,1825
1858,1839,1893
1867,1862,1815
1840,1849,1783
1826,1815,1783
1865,1815,1827
1887,1861,1898
1879,1861,1865
1869,1840,1859
1863,1851,1855
1887,1851,1863
1890,1839,1851
1875,1857,1850
1886,1872,1895
1903,1879,1904
1859,1840,1841
1850,1833,1804
1875,1856,1790
1904,1931,1895
1885,1886,1856
1840,1808,1787
1867,1855,1878
1866,1901,1927
1845,1856,1826
1853,1833,1765
1904,1872,1861
1901,1887,1854
1840,1863,1839
1855,1863,1843
1862,1861,1819
1857,1873,1831
1866,1857,1834
1879,1857,1840
1898,1872,1870
1900,1895,1897
1884,1875,1856
1855,1853,1803
1894,1877,1847
1930,1903,1874
1917,1907,1889
1840,1853,1826
1830,1865,1825
1863,1871,1861
1862,1847,1825
1870,1847,1813
1914,1873,1847
1931,1878,1872
1875,1840,1853
1856,1837,1882
1872,1848,1845
1931,1903,1870
1874,1865,1817
1861,1853,1823
1893,1863,1854
1904,1885,1932
1879,1872,1877
1867,1871,1840
1871,1878,1866
1877,1892,1862
1882,1899,1885
1876,1859,1836
1899,1861,1840
1893,1882,1892
1870,1873,1881
1862,1860,1850
1904,1879,1872
1981,1965,1948
1874,1870,1856
1816,1837,1786
1845,1868,1841
1910,1913,1916
1925,1894,1875
1885,1870,1839
1866,1872,1874
1911,1902,1859
1879,1875,1872
1867,1854,1851
1879,1882,1865
1931,1923,1881
1911,1909,1853
1863,1847,1852
1865,1863,1888
1904,1886,1926
1872,1884,1872
1849,1861,1810
1903,1882,1867
1915,1871,1951
1910,1885,1893
1904,1895,1817
1907,1850,1780
1858,1871,1854
1837,1899,1906
1834,1846,1829
1904,1851,1803
1915,1894,1869
1871,1889,1846
1840,1845,1788
1863,1856,1846
1890,1877,1877
1867,1855,1854
1856,1879,1839
1882,1898,1872
1881,1865,1856
1872,1859,1803
1867,1863,1834
1879,1868,1861
1886,1871,1867
1847,1872,1867
1858,1855,1837
1856,1865,1797
1885,1883,1866
1868,1881,1808
1846,1863,1790
1867,1863,1845
1929,1894,1867
1885,1857,1796
1827,1841,1834
1860,1892,1911
1859,1897,1900
1862,1862,1841
1833,1815,1821
1862,1869,1876
1879,1911,1888
1846,1862,1826
1839,1846,1811
1871,1889,1875
1884,1909,1869
1853,1857,1816
1840,1840,1808
1869,1872,1814
1890,1900,1851
1851,1855,1860
1853,1841,1824
1853,1869,1794
1894,1903,1817
1856,1901,1825
1847,1872,1838
1878,1907,1918
1862,1886,1861
1838,1856,1836
1811,1843,1815
1840,1881,1828
1895,1901,1903
1856,1863,1863
1802,1840,1776
1843,1873,1802
1888,1914,1862
1882,1879,1866
1813,1840,1815
1829,1863,1808
1872,1894,1840
1861,1879,1891
1852,1861,1835
1870,1875,1838
1862,1906,1817
1866,1890,1837
1846,1853,1814
1845,1868,1822
1895,1909,1815
1887,1897,1899
1806,1846,1807
1811,1859,1797
1825,1870,1854
1840,1861,1855
1857,1859,1855
1872,1878,1840
1874,1908,1869
1808,1840,1791
1813,1807,1799
1868,1855,1820
1887,1903,1934
1867,1871,1907
1843,1857,1845
1875,1873,1840
