1846,1854,1793
1867,1855,1843
1855,1899,1840
1872,1925,1862
1881,1953,1840
1856,1851,1823
1889,1925,1919
1876,1882,1825
1834,1846,1746
1859,1827,1829
1915,1922,1929
1898,1926,1845
1891,1914,1776
1864,1897,1776
1897,1888,1912
1882,1827,1889
1857,1893,1819
1877,1906,1840
1886,1884,1856
1870,1851,1843
1867,1841,1799
1904,1898,1852
1904,1883,1834
1871,1906,1808
1856,1867,1825
1862,1872,1876
1891,1986,1865
1903,1967,1856
1877,1927,1833
1872,1898,1871
1896,1818,1843
1889,1875,1841
1860,1889,1837
1858,1925,1811
1918,1945,1871
1875,1877,1809
1891,1840,1840
1870,1843,1854
1865,1922,1862
1882,1925,1847
1869,1895,1814
1889,1909,1861
1879,1888,1872
1878,1887,1862
1861,1869,1855
1872,1863,1853
1910,1902,1863
1904,1902,1843
1863,1874,1792
1859,1927,1807
1872,1905,1834
1903,1876,1839
1882,1877,1834
1878,1922,1840
1905,1877,1883
1889,1951,1887
1873,1873,1856
1865,1901,1824
1899,1917,1838
1916,1933,1876
1861,1843,1845
1854,1895,1922
1888,1895,1840
1875,1839,1802
1875,1867,1799
1897,1948,1873
1899,1899,1856
1863,1867,1807
1872,1858,1814
1857,1782,1806
1893,1915,1861
1907,1909,1907
1872,1883,1843
1878,1875,1840
1885,1843,1842
1893,1867,1872
1878,1869,1874
1894,1943,1904
1894,1920,1839
1867,1889,1775
1870,1904,1808
1902,1909,1862
1861,1843,1829
1840,1844,1835
1841,1885,1819
1859,1873,1824
1895,1897,1888
1893,1874,1904
1856,1904,1821
1865,1861,1831
1882,1873,1856
1885,1891,1880
1853,1878,1782
1854,1872,1851
1881,1893,1879
1874,1903,1869
1866,1970,1787
1872,1913,1817
1917,1936,1867
1840,1820,1803
1839,1870,1813
1858,1858,1899
1858,1856,1815
1875,1881,1792
1869,1893,1792
1843,1872,1821
1870,1887,1863
1879,1907,1897
1870,1918,1901
1875,1901,1842
1872,1843,1776
1857,1856,1824
1855,1876,1824
1893,1942,1858
1903,1894,1887
1840,1843,1825
1838,1842,1807
1853,1883,1821
1891,1951,1911
1883,1915,1857
1856,1856,1789
1862,1856,1798
1872,1857,1847
1863,1855,1885
1843,1859,1853
1888,1888,1878
1874,1891,1801
1874,1894,1836
1867,1907,1837
1874,1918,1829
1887,1913,1835
1887,1875,1845
1878,1881,1837
1869,1872,1840
1872,1847,1840
1870,1849,1857
1878,1872,1833
1865,1904,1829
1877,1902,1846
1886,1901,1872
1877,1887,1857
1872,1855,1845
1889,1875,1858
1873,1890,1840
1868,1899,1839
1883,1872,1890
1897,1856,1886
1906,1886,1865
1875,1891,1792
1872,1875,1791
1877,1856,1836
1873,1858,1864
1875,1878,1872
1883,1856,1872
1887,1843,1865
1877,1873,1863
1872,1905,1846
1904,1887,1879
1901,1904,1882
1861,1895,1859
1840,1863,1822
1879,1918,1889
1920,1909,1929
1884,1854,1825
1858,1827,1783
1847,1821,1815
1903,1847,1871
1865,1840,1825
1857,1861,1843
1882,1877,1845
1911,1910,1904
1899,1904,1889
1847,1872,1822
1872,1903,1872
1909,1902,1872
1905,1883,1876
1851,1840,1845
1839,1841,1808
1902,1863,1856
1904,1858,1878
1886,1872,1872
1850,1911,1821
1871,1889,1854
1867,1840,1840
1856,1822,1840
1889,1875,1936
1893,1939,1890
1877,1869,1823
1862,1875,1828
1857,1840,1845
1891,1894,1884
1887,1856,1901
1855,1837,1827
1879,1861,1840
1897,1884,1903
1895,1874,1865
1872,1892,1813
1901,1906,1855
1882,1865,1872
1869,1841,1891
1851,1824,1867
1856,1874,1863
1883,1904,1917
1886,1879,1919
1883,1840,1872
1850,1845,1824
1873,1872,1871
1899,1907,1879
1870,1863,1857
1860,1819,1837
1883,1888,1878
1875,1920,1847
1858,1866,1808
1877,1870,1890
1920,1873,1927
1862,1825,1811
1856,1866,1809
1870,1906,1853
1903,1873,1917
1888,1821,1889
1872,1874,1823
1859,1883,1827
1899,1917,1882
1897,1860,1888
1873,1808,1872
1862,1847,1799
1871,1883,1839
1871,1847,1866
1865,1809,1834
1858,1858,1820
1913,1931,1936
1895,1859,1879
1829,1781,1776
1867,1855,1794
1910,1907,1865
1904,1813,1851
1891,1799,1808
1883,1840,1850
1909,1870,1926
1891,1903,1898
1820,1891,1810
1840,1827,1821
1870,1843,1878
1872,1842,1884
1868,1889,1813
1873,1913,1840
1873,1842,1891
1868,1787,1895
1855,1814,1797
1885,1904,1812
1877,1857,1861
1872,1822,1888
1872,1911,1871
1869,1846,1839
1875,1837,1853
1878,1857,1845
1839,1825,1863
1863,1845,1824
1915,1900,1886
1875,1872,1792
1853,1824,1808
1863,1834,1862
1895,1885,1887
1894,1888,1845
1872,1837,1867
1863,1857,1861
1887,1894,1875
1874,1842,1863
1839,1813,1790
1882,1890,1919
1897,1906,1863
1872,1861,1844
1840,1813,1840
1849,1820,1840
1881,1893,1872
1898,1904,1882
1854,1873,1837
1840,1883,1829
1871,1839,1840
1873,1831,1842
1833,1838,1835
1843,1871,1872
1875,1893,1898
1874,1891,1875
1845,1887,1817
1854,1868,1809
1876,1873,1858
1873,1874,1869
1861,1877,1886
1854,1850,1865
1860,1899,1840
1863,1872,1889
1831,1840,1829
1857,1870,1830
1872,1871,1840
1841,1859,1796
1839,1855,1803
1867,1855,1849
1872,1869,1904
1879,1963,1899
1853,1902,1811
1824,1837,1827
1841,1831,1885
1866,1845,1889
1853,1911,1857
1859,1902,1844
1851,1907,1845
1861,1861,1904
1865,1847,1914
1866,1906,1833
1861,1888,1881
1850,1838,1851
1840,1845,1776
1855,1877,1817
1877,1910,1890
1873,1918,1872
1845,1857,1839
1863,1840,1827
1884,1885,1855
1882,1922,1873
1845,1873,1818
1840,1875,1852
1872,1885,1914
1860,1872,1861
1854,1872,1876
1855,1899,1842
1862,1952,1852
1890,1951,1850
1861,1879,1842
1846,1854,1808
1884,1902,1913
1872,1937,1866
1843,1930,1776
1855,1870,1862
1878,1847,1899
1853,1848,1835
1842,1894,1787
1859,1898,1845
1882,1875,1907
1873,1894,1853
1855,1901,1810
1872,1891,1836
1876,1857,1846
1863,1904,1856
1855,1913,1828
1869,1874,1887
1901,1904,1920
1889,1937,1842
1841,1903,1817
1829,1833,1836
1856,1870,1878
1872,1875,1863
1870,1910,1866
1854,1941,1852
1861,1922,1859
1863,1840,1794
1840,1792,1765
1859,1894,1862
1905,1947,1922
1883,1904,1872
1841,1856,1809
1854,1889,1808
1875,1922,1862
1881,1872,1936
1843,1856,1776
1873,1926,1914
1912,1948,1968
1888,1886,1905
1854,1863,1753
1837,1867,1742
1879,1905,1885
1893,1926,1914
1867,1860,1802
1879,1872,1840
1907,1919,1936
1926,1907,1920
1856,1860,1862
1832,1856,1782
1865,1887,1915
1888,1918,1886
1877,1915,1853
1856,1861,1825
1886,1895,1859
1881,1878,1866
1841,1839,1851
1861,1879,1836
1905,1934,1888
1908,1921,1890
1840,1840,1799
1827,1841,1776
1883,1907,1900
1893,1917,1888
1869,1870,1808
1872,1851,1872
1875,1890,1899
1877,1904,1835
1861,1904,1780
1889,1899,1801
1872,1855,1819
1872,1851,1841
1873,1870,1849
1875,1889,1830
1887,1895,1831
1903,1899,1876
1875,1890,1819
1869,1850,1821
1872,1831,1890
1903,1872,1857
1872,1902,1774
1863,1917,1854
1894,1936,1851
1899,1890,1862
1879,1869,1839
1895,1890,1846
1890,1866,1874
1904,1899,1889
1841,1866,1818
1859,1881,1861
1867,1894,1859
1875,1873,1815
1858,1849,1805
1903,1952,1893
1888,1879,1872
1863,1845,1815
1836,1840,1789
1855,1869,1804
1899,1895,1869
1891,1921,1887
1881,1953,1853
1893,1882,1868
1877,1853,1851
1894,1898,1863
1861,1856,1837
1841,1840,1831
1879,1893,1872
1904,1919,1936
1882,1900,1859
1872,1869,1808
1904,1863,1855
1873,1837,1822
1863,1850,1808
1866,1879,1877
1904,1922,1887
1887,1893,1840
1845,1863,1826
1842,1891,1834
1920,1904,1869
1866,1879,1888
1856,1892,1847
1904,1856,1817
1862,1859,1863
1886,1863,1879
1915,1872,1831
1903,1904,1833
1906,1909,1926
1909,1863,1904
1815,1855,1772
1867,1881,1790
1883,1936,1888
1885,1882,1847
1871,1847,1810
1877,1875,1840
1902,1919,1890
1872,1872,1887
1872,1872,1841
1872,1853,1821
1885,1872,1867
1887,1907,1879
1865,1900,1814
1901,1904,1891
1913,1845,1887
1861,1841,1825
1842,1832,1808
1870,1853,1808
1899,1905,1874
1936,1904,1895
1842,1893,1851
1850,1854,1808
1879,1888,1858
1894,1890,1866
1877,1849,1870
1894,1870,1900
1909,1869,1856
1890,1867,1853
1869,1851,1765
1861,1870,1863
1879,1877,1904
1839,1895,1851
1863,1904,1808
1877,1910,1854
1904,1874,1902
1904,1854,1872
1845,1834,1789
1872,1882,1872
1886,1881,1903
1879,1870,1879
1871,1863,1840
1849,1882,1807
1935,1897,1875
1983,1935,1921
1857,1877,1807
1876,1861,1817
1851,1840,1843
1856,1845,1851
1862,1898,1839
1870,1935,1821
1883,1872,1877
1872,1846,1857
1829,1843,1811
1818,1853,1825
1913,1873,1886
1936,1927,1899
1879,1894,1843
1826,1867,1814
1840,1898,1872
1914,1895,1877
1856,1843,1835
1850,1885,1847
1885,1878,1873
1915,1835,1841
1919,1847,1827
1826,1867,1831
1847,1883,1840
1850,1890,1893
1902,1861,1828
1877,1864,1850
1900,1882,1926
1930,1899,1872
1878,1903,1792
1968,1905,1853
1791,1836,1823
1872,1872,1850
1879,1914,1872
1910,1840,1817
1917,1855,1840
1879,1861,1837
1853,1883,1823
1879,1901,1879
1903,1920,1919
1889,1899,1886
1870,1863,1841
1881,1862,1808
1879,1851,1806
1885,1853,1849
1872,1913,1842
1859,1846,1836
1905,1879,1871
1904,1875,1872
1899,1871,1851
1904,1904,1826
1870,1962,1895
1943,1861,1887
1879,1825,1842
1907,1844,1811
1854,1903,1884
1879,1920,1868
1907,1882,1824
1872,1876,1857
1879,1869,1846
1910,1866,1840
1833,1813,1795
1821,1901,1886
1936,1907,1904
1848,1875,1820
1859,1837,1839
1872,1890,1895
1904,1901,1875
1907,1878,1861
1902,1900,1821
1875,1857,1824
1933,1872,1899
1927,1891,1902
1828,1878,1789
1861,1902,1823
1904,1888,1916
1918,1910,1905
1890,1919,1861
1834,1855,1819
1858,1866,1815
1897,1915,1889
1867,1915,1842
1872,1858,1846
1889,1893,1931
1941,1904,1870
1855,1872,1818
1873,1904,1838
1902,1858,1808
1873,1850,1847
1924,1934,1861
1890,1890,1904
1910,1876,1902
1933,1904,1847
1872,1903,1807
1847,1933,1821
1876,1875,1901
1895,1823,1867
1877,1808,1791
1808,1878,1829
1932,1936,1878
1904,1900,1891
1855,1833,1836
1843,1855,1833
1872,1890,1876
1884,1890,1866
1874,1903,1841
1869,1900,1840
1904,1904,1913
1867,1808,1936
1835,1799,1777
1843,1808,1792
1911,1883,1867
1911,1915,1877
1856,1877,1792
1851,1879,1830
1871,1905,1872
1901,1910,1915
1888,1825,1873
1856,1803,1797
1860,1838,1782
1856,1904,1822
1853,1888,1808
1856,1821,1823
1904,1883,1901
1883,1894,1891
1853,1887,1814
1849,1870,1815
1917,1904,1889
1902,1913,1859
1860,1850,1840
1872,1819,1828
1881,1853,1867
1874,1872,1837
1856,1855,1802
1849,1845,1757
1860,1890,1818
1871,1863,1875
1872,1882,1857
1901,1895,1877
1902,1870,1887
1877,1882,1821
1867,1873,1842
1874,1864,1856
1913,1918,1875
1861,1871,1811
1865,1897,1789
1865,1905,1852
1889,1901,1877
1903,1874,1886
1846,1840,1850
1839,1838,1800
1882,1859,1854
1894,1856,1874
1859,1875,1841
1883,1929,1865
1897,1903,1836
1902,1840,1831
1842,1843,1823
1847,1891,1843
1872,1927,1841
1872,1917,1870
1853,1865,1818
1869,1859,1813
1904,1872,1872
1898,1920,1904
1879,1903,1863
1859,1872,1834
1859,1841,1853
1885,1902,1851
1872,1869,1818
1858,1792,1842
1872,1827,1883
1920,1936,1874
1851,1919,1783
1846,1919,1808
1890,1860,1874
1901,1840,1898
1872,1890,1834
1866,1885,1783
1889,1877,1863
1886,1879,1876
1856,1887,1812
1866,1871,1845
1903,1893,1905
1905,1899,1897
1856,1892,1802
1854,1868,1776
1891,1913,1825
1901,1913,1867
1855,1809,1843
1854,1865,1835
1905,1904,1872
1902,1877,1838
1877,1893,1826
1888,1937,1842
1936,1938,1923
1903,1903,1902
1865,1879,1861
1889,1904,1851
1887,1882,1820
1905,1954,1871
1874,1929,1869
1863,1841,1823
1872,1845,1808
1888,1875,1861
1871,1882,1821
1867,1889,1814
1904,1918,1872
1927,1964,1931
1893,1920,1877
1857,1871,1831
1862,1889,1838
1890,1911,1848
1881,1872,1872
1888,1911,1866
1915,1942,1854
1887,1869,1840
1901,1876,1853
1890,1904,1875
1902,1919,1886
1872,1901,1877
1885,1938,1874
1883,1955,1837
1872,1880,1840
1883,1856,1862
1895,1905,1869
1889,1890,1881
1904,1913,1856
1887,1904,1835
1856,1905,1822
1867,1902,1857
1903,1947,1906
1902,1917,1877
1881,1935,1879
1876,1894,1867
1913,1895,1909
1899,1878,1910
1878,1883,1831
1873,1875,1843
1901,1905,1867
1921,1925,1856
1851,1863,1808
1850,1903,1823
1887,1936,1877
1893,1917,1877
1874,1893,1883
1875,1904,1897
1909,1939,1897
1897,1887,1888
1856,1855,1817
1871,1861,1850
1902,1910,1882
1934,1963,1931
1883,1872,1889
1872,1904,1792
1915,1915,1831
1904,1865,1870
1877,1894,1831
1887,1927,1877
1898,1840,1867
1904,1915,1872
1890,1891,1857
1898,1872,1913
1904,1865,1903
1893,1901,1830
1906,1904,1842
1895,1855,1843
1891,1893,1834
1869,1866,1878
1869,1871,1840
1903,1911,1846
1902,1910,1849
1889,1890,1844
1859,1894,1817
1886,1887,1867
1899,1946,1909
1893,1894,1917
1863,1806,1860
1859,1823,1801
1890,1879,1831
1889,1863,1833
1871,1884,1833
1872,1899,1867
1899,1915,1939
1872,1923,1859
1847,1837,1792
1855,1875,1831
1903,1911,1862
1903,1904,1884
1865,1802,1852
1861,1855,1848
1923,1930,1919
1881,1881,1842
1856,1875,1854
1866,1905,1867
1883,1903,1873
1902,1866,1888
1875,1925,1919
1900,1873,1837
1891,1849,1814
1879,1901,1891
1859,1871,1870
1872,1895,1866
1905,1905,1859
1883,1910,1824
1857,1843,1808
1865,1891,1841
1904,1904,1902
1902,1968,1929
1873,1898,1886
1847,1813,1815
1874,1841,1859
1872,1874,1878
1858,1895,1793
1868,1911,1824
1900,1905,1919
1917,1969,1904
1900,1887,1823
1859,1817,1802
1890,1838,1875
1897,1890,1856
1872,1914,1841
1904,1984,1901
1906,1927,1879
1884,1855,1824
1850,1846,1847
1872,1842,1936
1889,1949,1834
1909,1991,1851
1881,1903,1823
1857,1872,1808
1891,1887,1861
1893,1851,1889
1875,1833,1843
1882,1894,1841
1920,1922,1936
1890,1936,1874
1872,1826,1805
1878,1887,1824
1897,1904,1893
1878,1808,1921
1855,1774,1803
1872,1872,1818
1900,1916,1886
1872,1895,1855
1857,1886,1838
1873,1884,1846
1905,1904,1888
1893,1959,1885
1862,1904,1850
1878,1854,1869
1881,1894,1834
1872,1855,1850
1879,1847,1904
1859,1847,1840
1904,1924,1849
1889,1850,1830
1859,1747,1840
1887,1808,1866
1910,1913,1886
1907,1902,1926
1869,1851,1871
1855,1899,1836
1877,1893,1835
1886,1877,1840
1871,1837,1840
1874,1876,1857
1918,1901,1911
1898,1879,1869
1856,1877,1805
1866,1856,1819
1914,1975,1934
1905,1920,1914
1847,1838,1776
1852,1823,1795
1899,1920,1856
1919,1933,1925
1902,1921,1891
1869,1921,1810
1895,1920,1839
1913,1889,1856
1907,1876,1858
1855,1879,1794
1885,1861,1874
1917,1911,1930
1871,1909,1835
1850,1872,1825
1869,1859,1843
1875,1872,1840
1871,1872,1841
1882,1875,1842
1905,1937,1904
1888,1895,1874
1867,1901,1842
1878,1868,1854
1878,1829,1851
1877,1885,1851
1888,1908,1858
1887,1920,1853
1870,1857,1847
1882,1881,1866
1886,1872,1862
1863,1918,1909
1861,1910,1899
1882,1855,1792
1886,1891,1808
1889,1833,1839
1904,1905,1881
1897,1886,1905
1874,1877,1904
1879,1905,1856
1905,1872,1888
1904,1884,1870
1899,1905,1846
1871,1915,1812
1885,1914,1905
1901,1900,1931
1875,1835,1808
1873,1840,1821
1897,1872,1861
1883,1893,1870
1870,1883,1857
1877,1898,1872
1905,1936,1911
1890,1857,1872
1854,1844,1824
1871,1892,1855
1903,1874,1910
1875,1873,1895
1872,1861,1825
1863,1883,1814
1905,1921,1877
1898,1901,1885
1861,1868,1872
1871,1858,1903
1881,1857,1838
1889,1883,1821
1851,1871,1808
1856,1853,1825
1873,1879,1878
1909,1929,1967
1871,1926,1859
1887,1883,1838
1886,1916,1872
1857,1887,1837
1849,1822,1817
1887,1838,1841
1866,1843,1862
1878,1868,1897
1884,1858,1852
1879,1919,1824
1899,1907,1857
1891,1859,1856
1872,1857,1888
1875,1881,1865
1894,1919,1847
1890,1904,1842
1867,1839,1835
1840,1838,1811
1879,1856,1872
1865,1872,1886
1855,1871,1837
1840,1850,1785
1856,1873,1831
1850,1867,1840
1853,1872,1825
1859,1831,1840
1887,1867,1879
1874,1882,1902
1870,1890,1919
1874,1886,1827
1881,1841,1797
1879,1854,1840
1855,1886,1839
1871,1886,1851
1875,1886,1872
1877,1881,1879
1856,1840,1819
1847,1861,1825
1877,1914,1854
1899,1889,1887
1847,1839,1814
1839,1870,1798
1888,1936,1840
1881,1856,1891
1855,1815,1873
1873,1872,1814
1904,1934,1823
1872,1865,1820
1850,1842,1842
1865,1855,1879
1904,1910,1903
1872,1925,1849
1846,1865,1810
1867,1851,1857
1890,1890,1883
1890,1872,1868
1872,1851,1826
1890,1902,1859
1898,1887,1910
1915,1888,1919
1863,1904,1811
1866,1879,1794
1876,1867,1870
1869,1857,1897
1857,1872,1841
1855,1875,1799
1886,1873,1819
1904,1858,1856
1870,1856,1841
1865,1861,1856
1877,1887,1879
1888,1898,1875
1877,1890,1867
1872,1877,1830
1895,1915,1920
1904,1923,1900
1856,1882,1856
1886,1849,1808
1899,1856,1822
1875,1909,1857
1879,1891,1840
1851,1823,1818
1859,1856,1861
1872,1851,1875
1857,1857,1835
1865,1875,1831
1894,1904,1904
1904,1898,1927
1904,1904,1810
1866,1899,1758
1858,1842,1813
1888,1839,1879
1865,1834,1892
1881,1845,1833
1895,1918,1835
1902,1933,1865
1879,1872,1840
1855,1808,1787
1870,1857,1841
1891,1916,1898
1883,1903,1856
1856,1865,1831
1882,1886,1862
1886,1870,1858
1872,1882,1869
1875,1892,1845
1891,1879,1877
1889,1831,1873
1845,1813,1819
1824,1846,1760
1862,1875,1802
1879,1867,1847
1857,1870,1840
1861,1931,1859
1904,1926,1893
1882,1887,1879
1861,1808,1830
1850,1856,1851
1893,1926,1855
1899,1872,1847
1853,1817,1850
1851,1844,1808
1882,1887,1871
1893,1914,1918
1904,1939,1884
1847,1879,1833
1859,1843,1808
1872,1837,1857
1871,1873,1871
1854,1863,1807
1878,1949,1887
1889,1885,1899
1861,1862,1803
1870,1869,1868
1895,1827,1902
1875,1821,1872
1882,1886,1840
1876,1890,1853
1892,1877,1898
1892,1862,1901
1861,1895,1833
1851,1891,1792
1883,1940,1835
1869,1887,1827
1856,1767,1835
1863,1803,1834
1885,1862,1842
1904,1881,1968
1883,1907,1874
1872,1936,1774
1900,1913,1882
1856,1826,1835
1842,1824,1798
1857,1838,1806
1890,1889,1926
1875,1873,1860
1871,1900,1824
1889,1920,1862
1872,1879,1841
1879,1848,1892
1872,1816,1851
1874,1879,1859
1881,1920,1862
1868,1902,1811
1855,1840,1811
1861,1856,1844
1906,1901,1920
1893,1915,1868
1861,1867,1793
1877,1862,1840
1910,1919,1918
1895,1920,1914
1859,1872,1818
1862,1884,1850
1872,1860,1839
1901,1872,1905
1859,1867,1809
1869,1879,1855
1882,1899,1868
1899,1897,1883
1872,1883,1771
1870,1890,1785
1891,1921,1872
1881,1872,1886
1863,1901,1865
1854,1929,1849
1913,1942,1893
1872,1841,1884
1855,1834,1776
1856,1845,1826
1899,1872,1918
1887,1904,1855
1879,1887,1858
1889,1934,1863
1870,1879,1798
1863,1901,1789
1848,1875,1845
1846,1840,1811
1877,1856,1872
1882,1869,1875
1857,1859,1840
1846,1897,1821
1882,1911,1854
1872,1869,1859
1869,1843,1831
1853,1887,1777
1879,1904,1886
1887,1853,1878
1872,1847,1792
1855,1900,1840
1872,1867,1862
1891,1901,1904
1861,1909,1830
1846,1867,1856
1872,1859,1855
1872,1893,1939
1835,1857,1853
1842,1882,1827
1858,1891,1809
1859,1868,1841
1844,1862,1871
1845,1867,1858
1870,1895,1815
1883,1915,1885
1861,1904,1895
1884,1915,1936
1874,1871,1855
1859,1869,1823
1840,1879,1824
1851,1906,1880
1876,1904,1847
1868,1862,1861
1838,1862,1861
1859,1893,1872
1870,1893,1930
1878,1939,1889
1849,1871,1805
1850,1863,1794
1869,1854,1843
1861,1872,1899
1849,1873,1835
1893,1898,1872
1891,1914,1875
1885,1911,1874
1833,1852,1819
1815,1891,1773
1853,1858,1782
1859,1840,1811
1863,1843,1840
1856,1920,1805
1881,1907,1843
1890,1881,1831
1840,1811,1808
1835,1851,1806
1872,1911,1856
1879,1899,1910
1856,1854,1824
1854,1887,1851
1902,1904,1875
1862,1895,1845
1838,1862,1811
1861,1888,1840
1878,1872,1856
1862,1835,1858
1847,1829,1778
1854,1872,1805
1871,1931,1872
1887,1906,1936
1853,1870,1859
1872,1887,1844
1895,1890,1907
1877,1886,1801
1874,1889,1862
1851,1856,1713
1883,1885,1840
1905,1907,1875
1875,1890,1813
1850,1869,1821
1850,1851,1825
1882,1894,1885
1877,1923,1844
1872,1961,1839
1887,1872,1868
1886,1818,1846
1885,1838,1843
1874,1871,1872
1879,1904,1859
1890,1904,1857
1873,1874,1831
1887,1882,1883
1926,1923,1906
1907,1920,1907
1854,1851,1819
1849,1853,1810
1867,1885,1849
1888,1924,1868
1868,1856,1809
1856,1853,1827
1890,1906,1904
1899,1906,1930
1872,1885,1839
1892,1874,1857
1919,1895,1874
1871,1881,1824
1840,1871,1813
1877,1888,1887
1893,1906,1902
1879,1882,1856
1884,1903,1843
1871,1949,1868
1845,1911,1851
1889,1889,1831
1888,1901,1855
1826,1843,1858
1867,1842,1888
1871,1880,1873
1885,1857,1805
1872,1871,1849
1874,1898,1883
1889,1921,1885
1885,1926,1845
1873,1859,1841
1859,1884,1866
1899,1904,1863
1824,1873,1835
1811,1904,1851
1904,1879,1936
1904,1873,1874
1885,1872,1792
1836,1844,1808
1878,1874,1876
1890,1897,1833
1853,1878,1785
1843,1872,1817
1871,1903,1869
1874,1897,1890
1842,1862,1821
1878,1878,1826
1879,1904,1889
1891,1903,1873
1865,1878,1850
1934,1886,1897
1868,1871,1873
1867,1887,1810
1870,1841,1823
1888,1862,1881
1921,1907,1902
1915,1920,1855
1893,1894,1818
1850,1856,1827
1920,1885,1883
1914,1866,1906
1895,1871,1854
1829,1861,1810
1857,1898,1865
1904,1925,1889
1882,1896,1895
1897,1891,1909
1861,1872,1871
1831,1847,1813
1847,1863,1808
1854,1909,1872
1891,1898,1876
1856,1864,1860
1867,1903,1831
1898,1902,1884
1897,1892,1872
1854,1847,1862
1872,1840,1856
1854,1859,1840
1815,1874,1875
1897,1887,1852
1862,1861,1811
1856,1874,1837
1885,1891,1869
1907,1885,1875
1921,1889,1879
1855,1879,1863
1898,1888,1829
1921,1919,1873
1808,1869,1808
1808,1884,1840
1891,1904,1891
1859,1889,1891
1880,1895,1859
1907,1905,1881
1887,1943,1886
1878,1923,1872
1875,1855,1862
1825,1844,1846
1899,1881,1857
1867,1915,1866
1809,1904,1819
1950,1893,1849
1850,1886,1910
1919,1885,1897
1904,1883,1840
1885,1869,1851
1915,1915,1919
1908,1909,1916
1816,1877,1850
1903,1856,1808
1888,1893,1861
1906,1936,1872
1873,1877,1856
1846,1848,1831
1869,1878,1867
1908,1922,1871
1879,1891,1828
1883,1898,1856
1895,1872,1879
1872,1887,1865
1884,1919,1862
1882,1872,1885
1879,1871,1872
1858,1857,1831
1907,1870,1808
1877,1883,1847
1910,1908,1863
1915,1896,1873
1919,1853,1835
1866,1849,1833
1888,1854,1905
1894,1903,1874
1955,1924,1850
1839,1890,1820
1876,1886,1862
1906,1887,1875
1884,1858,1850
1906,1845,1808
1865,1871,1865
1871,1888,1903
1871,1883,1847
1863,1881,1826
1903,1904,1877
1895,1906,1903
1847,1882,1861
1901,1886,1897
1919,1917,1906
1891,1891,1868
1805,1863,1745
1856,1890,1808
1911,1921,1883
1892,1885,1857
1861,1881,1821
1867,1893,1830
1885,1843,1888
1901,1851,1870
1855,1861,1835
1819,1883,1827
1889,1887,1878
1881,1904,1877
1873,1867,1851
1920,1858,1805
1865,1867,1843
1865,1876,1882
1872,1867,1834
1856,1861,1868
1905,1876,1879
1883,1874,1837
1846,1867,1805
1919,1888,1840
1903,1898,1914
1859,1875,1882
1792,1901,1792
1847,1852,1828
1881,1869,1901
1902,1886,1910
1871,1868,1808
1865,1847,1786
1879,1851,1872
1885,1872,1898
1876,1905,1826
1875,1853,1836
1886,1859,1899
1878,1850,1897
1846,1857,1818
1861,1873,1815
1904,1920,1876
1871,1872,1874
1839,1805,1831
1859,1862,1821
1882,1899,1862
1878,1855,1873
1856,1838,1841
1873,1879,1826
1875,1863,1827
1872,1840,1868
1856,1838,1831
1853,1866,1813
1883,1877,1888
1899,1893,1883
1848,1852,1795
1843,1858,1806
1873,1853,1854
1856,1839,1844
1856,1847,1818
1871,1863,1830
1886,1886,1898
1872,1878,1872
1852,1879,1827
1853,1882,1806
1884,1858,1853
1889,1853,1873
1857,1856,1849
1849,1851,1814
1870,1845,1843
1872,1856,1872
1856,1856,1856
1856,1856,1857
1885,1886,1878
1863,1855,1827
1834,1839,1785
1857,1872,1853
1872,1853,1883
1866,1847,1811
1837,1856,1776
1847,1889,1815
1871,1856,1835
1883,1845,1840
1856,1867,1847
1870,1856,1877
1863,1839,1825
1857,1840,1808
1854,1870,1837
1872,1869,1859
1890,1876,1841
1856,1885,1804
1847,1879,1791
1838,1808,1822
1858,1846,1900
1894,1867,1863
1856,1840,1791
1841,1872,1766
1866,1882,1836
1872,1863,1873
1872,1846,1826
1882,1892,1808
1878,1872,1843
1858,1845,1830
1853,1858,1826
1856,1872,1853
1869,1881,1859
1881,1867,1861
1833,1838,1799
1835,1857,1794
1862,1874,1840
1883,1882,1872
1865,1870,1825
1856,1862,1824
1856,1842,1849
1859,1850,1849
1849,1859,1831
1853,1854,1854
1858,1855,1856
1856,1852,1850
1856,1872,1821
1851,1887,1831
1867,1864,1894
1898,1874,1910
1865,1867,1776
1801,1831,1727
1851,1851,1815
1849,1840,1863
1849,1857,1855
1856,1877,1817
1872,1881,1861
1866,1871,1844
1855,1851,1808
1853,1885,1807
1878,1872,1867
1843,1830,1836
1840,1840,1828
1856,1878,1845
1865,1854,1879
1874,1826,1819
1837,1805,1799
1835,1853,1771
1868,1895,1830
1861,1904,1870
1843,1838,1831
1875,1861,1857
1867,1843,1866
1828,1819,1792
1829,1840,1778
1856,1842,1808
1871,1879,1861
1875,1904,1855
1862,1846,1826
1877,1870,1857
1895,1922,1877
1869,1851,1847
1815,1791,1769
1829,1827,1848
1886,1875,1856
1889,1885,1811
1846,1871,1791
1846,1862,1808
1866,1853,1853
1892,1879,1877
1852,1881,1860
1840,1854,1817
1865,1862,1812
1871,1861,1814
1856,1846,1838
1862,1874,1869
1906,1883,1881
1893,1855,1840
1845,1846,1801
1861,1841,1866
1873,1854,1865
1856,1865,1813
1853,1867,1796
1859,1873,1806
1895,1904,1881
1883,1896,1865
1846,1852,1809
1889,1878,1841
1900,1870,1878
1857,1846,1868
1845,1885,1806
1877,1862,1840
1909,1893,1885
1859,1834,1872
1838,1826,1863
1869,1935,1862
1871,1898,1814
1862,1845,1800
1841,1903,1848
1856,1889,1846
1893,1897,1866
1904,1852,1868
1874,1838,1828
1869,1847,1837
1878,1904,1882
1888,1917,1866
1856,1873,1826
1847,1871,1837
1886,1897,1862
1911,1914,1887
1849,1865,1810
1829,1895,1795
1872,1875,1851
1889,1881,1887
1871,1875,1840
1869,1856,1820
1877,1872,1848
1874,1913,1868
1870,1935,1854
1870,1913,1829
1909,1867,1893
1883,1879,1872
1856,1845,1838
1862,1862,1811
1902,1914,1873
1911,1927,1945
1857,1866,1824
1856,1863,1822
1903,1894,1918
1881,1878,1885
1875,1857,1801
