1890,1907,1868
1891,1906,1865
1826,1865,1840
1873,1850,1850
1879,1840,1847
1872,1874,1833
1853,1882,1815
1937,1875,1856
1917,1883,1872
1844,1867,1808
1851,1880,1812
1892,1888,1895
1887,1910,1909
1894,1885,1828
1842,1838,1769
1877,1856,1841
1904,1905,1897
1872,1873,1850
1843,1853,1818
1855,1856,1823
1872,1858,1857
1869,1862,1861
1872,1919,1878
1903,1891,1872
1893,1872,1863
1856,1875,1808
1869,1904,1835
1872,1862,1840
1879,1823,1872
1871,1846,1894
1871,1877,1831
1897,1898,1837
1904,1894,1874
1911,1918,1907
1874,1915,1852
1853,1858,1837
1865,1835,1830
1857,1838,1805
1869,1887,1854
1895,1874,1872
1904,1853,1850
1850,1859,1782
1887,1905,1851
1893,1885,1897
1878,1904,1874
1872,1906,1835
1857,1858,1826
1872,1872,1872
1889,1904,1929
1873,1872,1814
1883,1895,1809
1897,1883,1856
1883,1856,1874
1847,1853,1840
1847,1849,1802
1876,1872,1839
1879,1897,1855
1868,1882,1845
1876,1898,1856
1894,1893,1890
1870,1854,1856
1845,1847,1823
1858,1910,1810
1897,1927,1888
1899,1862,1919
1843,1851,1808
1854,1861,1805
1883,1869,1870
1898,1885,1903
1882,1872,1843
1903,1907,1883
1865,1887,1840
1855,1889,1833
1853,1856,1808
1855,1899,1834
1889,1878,1886
1904,1877,1918
1886,1895,1884
1869,1914,1821
1872,1885,1846
1882,1850,1875
1871,1859,1854
1871,1878,1811
1899,1890,1868
1888,1866,1900
1861,1869,1793
1902,1927,1817
1904,1923,1874
1891,1878,1879
1825,1822,1796
1856,1887,1853
1887,1921,1875
1889,1865,1841
1888,1833,1835
1881,1890,1853
1881,1906,1885
1863,1862,1855
1834,1823,1778
1859,1872,1834
1899,1936,1917
1880,1934,1889
1866,1917,1808
1853,1872,1801
1850,1821,1791
1891,1877,1872
1855,1883,1863
1831,1861,1846
1868,1886,1823
1869,1890,1840
1861,1909,1814
1875,1909,1844
1861,1870,1854
1862,1872,1856
1840,1856,1792
1856,1876,1814
1883,1894,1895
1895,1916,1915
1847,1855,1807
1849,1819,1789
1853,1881,1808
1889,1901,1855
1854,1873,1836
1865,1911,1869
1870,1920,1884
1882,1866,1837
1855,1840,1792
1857,1871,1826
1893,1919,1899
1901,1936,1897
1873,1897,1863
1840,1836,1833
1874,1885,1831
1872,1866,1857
1865,1872,1856
1845,1859,1821
1882,1907,1844
1903,1936,1856
1861,1853,1817
1859,1852,1840
1872,1872,1856
1882,1902,1843
1852,1902,1813
1870,1905,1840
1883,1862,1863
1891,1867,1888
1860,1873,1849
1866,1885,1837
1920,1909,1872
1877,1865,1821
1834,1856,1794
1853,1894,1808
1895,1888,1877
1878,1861,1894
1855,1869,1808
1883,1893,1820
1868,1878,1827
1856,1895,1856
1840,1868,1837
1861,1858,1847
1888,1877,1877
1898,1917,1889
1869,1872,1855
1849,1858,1824
1872,1883,1856
1876,1871,1860
1847,1858,1821
1845,1904,1818
1872,1939,1840
1898,1965,1871
1855,1905,1819
1872,1895,1854
1887,1929,1890
1874,1905,1843
1842,1872,1809
1869,1861,1872
1908,1926,1905
1875,1859,1850
1819,1891,1765
1846,1846,1798
1920,1926,1919
1889,1929,1917
1841,1867,1837
1857,1904,1852
1892,1920,1849
1866,1881,1817
1857,1890,1842
1873,1925,1869
1904,1867,1862
1902,1936,1872
1894,1920,1907
1872,1918,1849
1869,1861,1808
1861,1904,1802
1873,1923,1843
1890,1955,1874
1877,1921,1877
1895,1909,1856
1865,1904,1808
1872,1863,1840
1883,1923,1897
1872,1872,1858
1856,1878,1831
1872,1872,1855
1904,1915,1943
1894,1931,1903
1858,1936,1776
1867,1878,1809
1899,1929,1893
1919,1955,1919
1855,1923,1803
1882,1953,1854
1899,1964,1887
1888,1904,1894
1892,1908,1817
1898,1878,1822
1925,1943,1910
1872,1929,1839
1844,1936,1829
1902,1984,1860
1917,1974,1915
1904,1913,1878
1885,1966,1829
1917,1956,1845
1909,1889,1895
1926,1926,1904
1904,1944,1890
1893,2005,1873
1900,1920,1855
1889,1906,1872
1882,1936,1854
1909,1931,1872
1927,1894,1900
1870,1914,1856
1874,1891,1872
1911,1984,1906
1947,2012,1905
1919,2002,1870
1862,1877,1837
1883,1939,1851
1902,2002,1863
1889,1905,1845
1901,1968,1851
1902,1962,1883
1919,1927,1931
1918,1958,1910
1876,1921,1839
1885,1890,1840
1920,2003,1909
1917,1999,1904
1879,1952,1856
1890,1933,1867
1914,1823,1904
1899,1862,1850
1920,1942,1857
1899,1947,1856
1898,1957,1844
1888,1898,1853
1874,1906,1895
1875,1920,1843
1918,1924,1866
1904,1903,1874
1888,1948,1867
1903,1984,1865
1895,1873,1898
1899,1873,1873
1888,1884,1829
1920,1946,1861
1906,1943,1867
1917,1985,1883
1904,1933,1882
1871,1870,1872
1883,1886,1872
1895,1949,1840
1901,1939,1892
1903,2000,1908
1930,1984,1884
1892,1840,1826
1855,1905,1781
1897,1878,1829
1933,1923,1871
1902,1863,1920
1888,1917,1867
1920,1970,1873
1898,1887,1872
1897,1820,1867
1890,1871,1837
1904,1913,1863
1930,1943,1904
1906,1899,1890
1881,1890,1817
1882,1905,1817
1908,1910,1904
1931,1867,1949
1917,1920,1877
1872,1875,1795
1849,1797,1805
1885,1843,1858
1907,1898,1929
1899,1889,1857
1907,1918,1874
1898,1891,1841
1879,1829,1856
1903,1887,1878
1924,1899,1888
1921,1894,1886
1859,1843,1854
1870,1809,1843
1904,1842,1827
1919,1851,1859
1860,1889,1810
1887,1939,1897
1906,1916,1879
1891,1874,1842
1870,1890,1850
1884,1970,1835
1902,1868,1854
1888,1849,1854
1872,1867,1836
1907,1889,1910
1920,1840,1875
1915,1875,1871
1872,1847,1807
1881,1879,1808
1914,1909,1857
1909,1904,1872
1885,1920,1845
1923,1904,1906
1905,1837,1867
1859,1838,1813
1866,1847,1827
1887,1869,1857
1894,1869,1838
1917,1873,1866
1902,1882,1878
1898,1897,1891
1917,1926,1856
1891,1860,1805
1850,1837,1793
1865,1862,1842
1897,1872,1894
1903,1893,1905
1892,1889,1847
1872,1857,1823
1890,1869,1863
1904,1899,1894
1935,1920,1918
1875,1853,1788
1855,1840,1804
1872,1849,1815
1873,1852,1818
1881,1869,1840
1905,1878,1878
1909,1874,1878
1890,1874,1851
1889,1891,1900
1890,1875,1870
1872,1831,1853
1867,1845,1822
1867,1849,1833
1889,1881,1866
1894,1879,1870
1872,1881,1840
1878,1898,1849
1904,1894,1887
1903,1902,1875
1857,1847,1825
1872,1842,1840
1915,1885,1906
1919,1893,1918
1834,1829,1794
1849,1842,1808
1896,1875,1873
1903,1871,1881
1875,1849,1830
1886,1863,1853
1904,1895,1897
1903,1887,1901
1881,1869,1845
1882,1875,1843
1904,1900,1878
1913,1897,1891
1886,1856,1851
1887,1869,1857
1907,1875,1888
1887,1860,1869
1883,1874,1847
1899,1911,1859
1887,1869,1866
1901,1840,1870
1885,1846,1847
1871,1864,1843
1895,1902,1887
1918,1950,1899
1919,2063,1877
1878,1808,1829
1885,1772,1845
1902,1933,1879
1872,1767,1827
1872,1766,1833
1924,1984,1915
1939,2145,1922
1869,1819,1813
1849,1594,1794
1867,1679,1840
1872,1774,1861
1893,1930,1872
1893,2065,1868
1871,1807,1840
1856,1660,1813
1834,1712,1776
1867,1854,1829
1893,1901,1872
1873,1792,1842
1856,1770,1814
1854,1854,1836
1889,1840,1884
1906,1814,1894
1872,1794,1847
1857,1811,1877
1891,1870,1887
1890,1828,1841
1849,1731,1798
1855,1753,1807
1873,1790,1855
1890,1805,1885
1866,1809,1840
1883,1814,1850
1910,1842,1897
1872,1840,1858
1853,1757,1815
1866,1799,1833
1888,1782,1862
1882,1757,1861
1859,1759,1825
1866,1798,1831
1900,1872,1889
1887,1863,1874
1872,1758,1840
1907,1779,1881
1871,1744,1855
1847,1750,1826
1849,1830,1818
1870,1865,1833
1889,1792,1871
1879,1722,1857
1863,1729,1826
1853,1746,1823
1878,1898,1880
1872,1801,1863
1850,1708,1801
1841,1726,1804
1869,1754,1856
1877,1799,1872
1863,1843,1840
1891,1854,1860
1944,1855,1917
1842,1746,1819
1814,1713,1797
1826,1726,1792
1881,1884,1858
1901,1858,1886
1872,1838,1865
1879,1751,1847
1867,1618,1814
1858,1635,1817
1849,1745,1840
1835,1808,1820
1842,1793,1821
1897,1789,1875
1886,1823,1879
1830,1789,1799
1861,1792,1811
1857,1782,1849
1847,1761,1870
1861,1818,1826
1904,1823,1840
1919,1833,1927
1865,1785,1870
1820,1743,1798
1849,1776,1862
1887,1767,1925
1875,1865,1855
1870,1836,1867
1872,1786,1872
1859,1747,1847
1895,1744,1862
1879,1843,1861
1829,1777,1814
1834,1776,1840
1860,1774,1883
1881,1792,1852
1906,1814,1891
1915,1689,1894
1869,1785,1788
1840,1810,1794
1858,1807,1881
1879,1831,1909
1875,1777,1882
1904,1751,1859
1920,1825,1893
1901,1870,1885
1885,1982,1824
1895,1766,1850
1821,1572,1830
1842,1658,1879
1927,1769,1882
1943,1823,1887
1946,1868,2000
2082,1984,2064
1902,1808,1898
1834,1778,1815
1889,1738,1858
1921,1764,1847
1803,1712,1818
1697,1648,1701
1795,1746,1822
1934,1839,1906
1882,1793,1847
1799,1758,1821
1812,1722,1831
1808,1785,1792
1758,1741,1738
1808,1728,1788
1890,1756,1840
1840,1757,1775
2002,1839,1826
2125,1840,1866
1798,1683,1742
1797,1713,1734
2091,1790,1776
2166,1813,1870
1861,1776,1792
1595,1779,1735
1718,1801,1782
1712,1841,1780
1682,1872,1797
1755,1893,1814
1673,1871,1766
1674,1954,1831
1762,1937,1812
1773,1871,1840
1771,1893,1813
1725,1925,1778
1759,1971,1770
1770,1971,1774
1722,1933,1664
1767,1971,1724
1787,1981,1831
1744,1953,1808
1778,1968,1806
1756,1939,1750
1706,1910,1749
1755,1920,1803
1726,1929,1715
1722,1980,1618
1746,2010,1716
1750,1982,1847
1749,1958,1732
1744,1919,1654
1755,1931,1757
1773,1952,1803
1760,1952,1766
1756,1933,1762
1743,1903,1825
1779,1921,1705
1805,1943,1683
1749,1915,1714
1711,1888,1733
1770,1936,1792
1776,1942,1697
1835,1913,1702
1867,1910,1738
1714,1890,1791
1717,1899,1829
1761,1904,1791
1786,1931,1775
1810,1917,1783
1833,1939,1720
1840,1954,1808
1840,2029,1843
1733,1817,1744
1698,1754,1725
1746,1846,1744
1795,1922,1776
1806,1969,1790
1809,1951,1770
1840,1841,1867
1981,1887,1908
1994,1913,1807
1808,1861,1639
1623,1806,1618
1669,1833,1776
1771,1909,1853
1770,1906,1751
1751,1854,1759
1857,2010,1899
1881,1978,1888
1802,1761,1744
1787,1793,1791
1821,1836,1858
1831,1852,1891
1791,1857,1829
1770,1814,1828
1775,1873,1737
1808,1839,1806
1803,1808,1823
1788,1839,1830
1865,1995,1801
1874,1791,1765
1744,1600,1665
1712,1769,1774
1757,1874,1813
1718,1719,1773
1714,1680,1825
1712,1641,1683
1715,1630,1699
1639,1690,1734
1634,1690,1680
1659,1665,1728
1675,1681,1716
1665,1777,1753
1813,1715,1779
1600,1487,1671
1579,1532,1648
1601,1607,1705
1584,1635,1647
1584,1599,1674
1595,1563,1701
1582,1535,1589
1562,1487,1535
1495,1438,1510
1523,1470,1567
1515,1552,1600
1416,1383,1552
1430,1458,1534
1502,1371,1476
1384,1278,1389
1339,1273,1458
1386,1438,1440
1412,1480,1438
1476,1348,1392
1251,1107,1392
1200,1154,1327
1299,1205,1392
1379,1222,1407
1244,1261,1311
1287,1209,1354
1358,1164,1328
1260,1190,1338
1196,1226,1298
1213,1209,1286
1295,1177,1324
1309,1187,1410
1287,1167,1364
1200,1171,1277
1235,1319,1410
1231,1168,1341
1245,1040,1201
1235,1063,1194
1241,1090,1198
1229,1317,1088
1185,1296,1187
1153,1114,1308
1257,1070,1362
1349,982,1263
1250,967,1235
1206,1111,1188
1011,1341,1188
991,944,1045
948,767,1072
1023,842,1139
1120,960,1091
1023,874,960
881,815,954
816,944,1054
964,1006,1101
1053,899,916
917,759,910
738,765,950
749,845,906
830,880,929
857,890,923
858,944,963
922,896,939
845,867,882
880,802,861
750,822,960
825,909,1067
881,976,1040
880,818,970
991,795,982
940,976,1056
846,919,1008
787,828,901
866,835,946
947,901,1093
944,959,1136
883,998,999
917,992,991
969,1053,1088
956,1049,1175
858,966,1147
849,991,1040
998,1146,1094
1195,1230,1088
1159,957,1011
763,905,1184
812,1040,1234
978,1153,1238
1004,1177,1190
1019,1190,1243
971,1127,1255
1006,1142,1267
989,1193,1202
1053,1301,1239
1195,1406,1311
1104,1217,1360
939,1062,1306
1071,1174,1350
1202,1335,1399
1191,1371,1323
1088,1379,1331
1133,1345,1392
1215,1364,1455
1143,1389,1495
1076,1408,1394
1124,1471,1456
1095,1359,1412
1168,1376,1438
1174,1431,1454
1185,1483,1498
1335,1535,1527
1352,1533,1511
1156,1471,1465
1089,1413,1610
1210,1525,1619
1271,1568,1600
1179,1509,1608
1269,1555,1692
1269,1618,1662
1343,1776,1643
1281,1677,1521
1211,1472,1517
1255,1535,1693
1328,1632,1729
1234,1676,1648
1344,1680,1653
1415,1744,1839
1398,1745,1793
1335,1722,1745
1378,1723,1719
1407,1735,1808
1431,1808,1813
1401,1813,1726
1327,1744,1776
1366,1715,1841
1424,1801,1840
1411,1759,1822
1482,1746,1875
1566,1808,1841
1575,1863,1911
1421,1813,1872
1367,1855,1840
1610,1843,1886
1475,1827,1904
1379,1802,1875
1589,1821,1895
1501,1908,2003
1444,1936,1969
1471,1859,1871
1500,1829,1879
1520,1872,1924
1564,1889,1975
1517,1936,1968
1593,1934,1922
1642,1961,2000
1620,1936,2073
1563,1894,1980
1408,1934,1959
1597,2026,1938
1657,1880,1928
1532,1807,2009
1667,1923,1991
1671,1936,2001
1621,1937,2115
1503,1936,2064
1645,1947,2026
1695,2007,2007
1793,2171,2000
1617,1950,1986
1535,1806,2018
1674,1943,2093
1674,2021,2073
1649,1962,2000
1687,2043,2041
1723,2021,2090
1704,1918,2093
1705,1913,2145
1723,1890,2010
1758,1978,1994
1761,2015,2125
1680,1965,2064
1697,1931,2000
1766,1975,2082
1812,2012,2132
1798,2011,2078
1724,2076,2044
1751,2081,2157
1808,1917,2113
1754,1895,2066
1819,1922,2027
1877,1962,2090
1862,2002,2096
1735,1969,2101
1731,1941,2128
1837,1951,2106
1878,2003,2101
1799,2027,2071
1787,1983,2119
1847,2025,2156
1872,2004,2145
1833,1920,2047
1809,1955,2097
1869,2017,2172
1883,2034,2128
1865,1978,2099
1867,2034,2074
1901,1987,2192
1904,1945,2171
1888,2037,2067
1857,1994,2043
1947,1970,2102
1945,2015,2085
1860,2015,2066
1858,1901,2078
1904,1968,2157
1955,2057,2229
1905,1995,2149
1872,1900,2038
1949,1986,2097
1968,2023,2128
1929,1963,2112
1919,1995,2130
1971,2032,2149
1993,2018,2084
1963,1999,2053
1971,1987,2082
1984,1995,2123
1987,2001,2144
1966,2016,2119
1991,1952,2097
2017,2014,2170
2031,2060,2181
2000,2039,2128
1984,1983,2081
2022,1965,2118
2031,2021,2134
2002,2015,2098
1999,1959,2160
2071,2002,2183
2073,2037,2132
2017,2013,2073
2027,1976,2082
2098,2031,2167
2111,2064,2139
2035,1946,2053
2031,1940,2059
2135,2062,2160
2152,1989,2160
2018,1925,2058
2042,2031,2135
2116,2032,2107
2102,1959,2111
2061,1936,2105
2074,2000,2149
2114,2041,2143
2149,2000,2127
2086,1995,2069
2106,2103,2125
2109,2002,2105
2092,1887,2064
2077,1894,2059
2090,1937,2091
2146,2021,2113
2175,2086,2142
2161,2032,2102
2122,2005,2038
2132,2034,2160
2115,1946,2128
2092,1903,2033
2074,1930,2030
2172,2033,2182
2185,2064,2119
2128,2006,2064
2107,1995,2061
2147,2004,2104
2187,2015,2096
2133,1944,2019
2126,1971,2069
2150,1986,2105
2185,2010,2129
2142,2017,2093
2139,1998,2046
2160,1971,2062
2155,1971,2123
2128,1969,2031
2128,1950,1959
2205,1969,2014
2229,2022,2098
2150,1984,2044
2148,2017,2045
2256,2000,2112
2175,1939,2113
2109,1910,2026
2145,1915,2053
2156,1974,2031
2161,1990,2026
2112,1958,1968
2158,1999,2033
2211,2037,2079
2238,2032,2113
2130,1945,2000
2132,1911,2000
2206,2000,2053
2193,2001,2090
2135,1921,2010
2153,1939,1995
2192,2009,2069
2183,2000,2015
2141,1957,2005
2125,1897,2032
2185,1933,2047
2256,1984,2114
2194,1971,2063
2127,1956,1941
2173,2015,1979
2219,2014,2096
2163,1953,2009
2128,1925,1935
2171,1952,2028
2210,2014,2112
2172,1939,1981
2128,1874,1962
2177,1936,2009
2237,2023,2047
2165,1959,2006
2153,1933,1994
2220,2037,2073
2192,1989,1983
2115,1914,1879
2132,1922,1921
2199,1953,1969
2211,1936,1979
2158,1884,1855
2125,1959,1884
2196,2061,1965
2215,1979,1957
2146,1867,1873
2128,1893,1954
2176,1932,1857
2203,1967,1884
2155,1914,1823
2153,1874,1829
2209,1960,1868
2183,1995,1853
2111,1887,1817
2106,1904,1830
2199,1966,1901
2213,1933,1885
2135,1861,1834
2118,1862,1840
2182,1936,1952
2177,1954,1838
2139,1873,1794
2124,1873,1808
2207,1990,1840
2233,1998,1818
2178,1967,1823
2139,1893,1794
2157,1877,1798
2171,1936,1838
2137,1909,1821
2115,1871,1803
2207,1954,1891
2175,1907,1827
2103,1853,1795
2093,1886,1778
2143,1966,1873
2176,1979,1891
2133,1913,1850
2101,1817,1785
2157,1938,1856
2160,1921,1871
2123,1808,1837
2096,1835,1869
2176,1895,1871
2203,1882,1853
2160,1874,1840
2113,1851,1821
2160,1859,1838
2181,1965,1831
2135,1933,1846
2128,1851,1797
2166,1867,1859
2155,1891,1882
2123,1882,1875
2144,1891,1889
2166,1879,1860
2183,1862,1859
2111,1839,1795
2101,1875,1830
2163,1906,1852
2181,1931,1869
2121,1869,1810
2110,1844,1818
2157,1941,1887
2191,1928,1913
2125,1840,1809
2097,1858,1812
2158,1923,1885
2205,1926,1887
2093,1808,1838
2070,1833,1798
2128,1900,1845
2157,1959,1830
2096,1849,1873
2091,1820,1872
2145,1929,1822
2153,1856,1840
2074,1850,1787
2071,1861,1794
2138,1901,1872
2144,1889,1861
2071,1858,1801
2058,1813,1806
2123,1855,1885
2149,1874,1890
2066,1833,1811
2071,1752,1813
2096,1823,1843
2135,1856,1887
2087,1871,1901
2071,1838,1801
2078,1791,1774
2099,1922,1891
2064,1819,1889
2055,1809,1859
2095,1801,1847
2097,1879,1823
2039,1783,1813
2035,1775,1861
2109,1849,1901
2118,1882,1869
2055,1777,1847
2032,1749,1863
2099,1859,1895
2096,1863,1850
2031,1744,1798
2033,1806,1847
2093,1904,1917
2110,1856,1893
2032,1808,1821
2032,1847,1825
2090,1895,1833
2087,1883,1847
2025,1763,1872
2010,1793,1878
2096,1856,1902
2076,1843,1858
2018,1797,1814
1989,1776,1847
2058,1851,1887
2074,1890,1871
2010,1808,1855
1990,1841,1839
2066,1888,1891
2087,1803,1879
2006,1822,1829
1984,1759,1818
2061,1910,1878
2090,1875,1936
2006,1815,1892
2026,1814,1898
2007,1840,1843
2000,1867,1818
1986,1899,1851
1994,1822,1799
2031,1778,1851
2025,1889,1888
1975,1847,1868
1971,1808,1794
2011,1816,1873
2031,1835,1923
1983,1842,1895
1955,1818,1786
2000,1875,1856
2033,1873,1900
1969,1857,1849
1958,1743,1841
1996,1834,1863
2039,1899,1852
1959,1825,1811
1978,1818,1843
1998,1840,1963
2000,1850,1895
1930,1799,1792
1950,1815,1846
2009,1873,1936
2017,1873,1885
1974,1831,1802
1953,1799,1813
1969,1895,1898
1983,1846,1911
1929,1893,1847
1904,1803,1823
1968,1938,1908
2019,1870,1877
1937,1823,1812
1911,1808,1856
1969,1873,1895
1998,1840,1911
1920,1834,1811
1904,1797,1814
1969,1831,1903
2000,1868,1856
1919,1856,1755
1879,1792,1837
1959,1849,1936
2009,1876,1962
1936,1841,1901
1904,1814,1851
1941,1854,1837
1970,1877,1834
1949,1851,1840
1889,1818,1805
1920,1850,1890
1969,1887,1945
1947,1923,1859
1904,1798,1840
1922,1791,1840
1948,1829,1921
1886,1799,1853
1876,1839,1814
1981,1923,1911
1993,1906,1936
1895,1853,1823
1866,1776,1781
1937,1822,1856
1952,1857,1915
1906,1839,1869
1882,1840,1843
1937,1861,1873
1923,1856,1861
1882,1846,1813
1875,1867,1846
1936,1904,1947
1930,1851,1900
1850,1772,1824
1855,1783,1829
1917,1856,1827
1935,1885,1869
1902,1856,1848
1873,1808,1835
1925,1855,1901
1951,1895,1887
1862,1823,1821
1835,1806,1802
1911,1859,1904
1934,1904,1872
1874,1856,1808
1846,1829,1840
1941,1848,1931
1941,1851,1908
1870,1818,1806
1851,1827,1776
1924,1911,1888
1919,1905,1878
1885,1823,1808
1841,1767,1781
1877,1874,1863
1916,1916,1955
1840,1822,1792
1840,1791,1872
1929,1905,1882
1945,1886,1812
1871,1808,1751
1809,1808,1777
1886,1898,1904
1922,1922,1918
1866,1844,1822
1851,1824,1822
1920,1893,1922
1927,1875,1840
1846,1801,1793
1840,1807,1869
1899,1862,1920
1904,1870,1902
1857,1841,1792
1851,1849,1793
1904,1882,1888
1919,1884,1829
1855,1837,1805
1840,1869,1837
1901,1901,1846
1895,1904,1857
1831,1839,1834
1828,1839,1829
1883,1834,1854
1902,1868,1869
1852,1847,1850
1843,1858,1839
1913,1898,1883
1890,1901,1873
1834,1840,1927
1850,1826,1783
1923,1919,1814
1888,1872,1840
1827,1817,1805
1821,1856,1870
1877,1907,1879
1919,1923,1883
1858,1793,1808
1799,1783,1783
1881,1922,1870
1918,1926,1914
1843,1841,1881
1808,1781,1808
1881,1860,1886
1914,1923,1911
1853,1877,1919
1813,1845,1802
1872,1871,1805
1915,1866,1934
1811,1839,1823
1792,1874,1834
1883,1883,1904
1903,1885,1874
1840,1842,1813
1840,1872,1810
1854,1887,1870
1878,1904,1893
1808,1819,1787
1790,1829,1782
1864,1879,1941
1902,1894,1918
1840,1857,1749
1808,1869,1778
1872,1935,1903
1904,1887,1903
1833,1827,1840
1811,1825,1840
1885,1910,1888
1904,1951,1828
1808,1782,1776
1796,1789,1826
1866,1904,1914
1894,1927,1904
1822,1879,1792
1835,1888,1825
1888,1894,1831
1856,1872,1873
1772,1847,1822
1764,1828,1811
1878,1875,1920
1925,1914,1956
1809,1859,1825
1762,1827,1750
1842,1859,1853
1897,1871,1868
1823,1850,1798
1797,1867,1875
1878,1919,1872
1873,1952,1833
1829,1822,1835
1797,1787,1850
1872,1906,1873
1870,1900,1859
1809,1827,1799
1830,1854,1783
1890,1933,1830
1858,1937,1879
1790,1854,1799
1779,1807,1840
1872,1914,1872
1891,1874,1895
1833,1791,1744
1824,1811,1791
1871,1887,1871
1878,1871,1898
1805,1839,1821
1796,1867,1841
1863,1925,1869
1893,1906,1872
1822,1839,1787
1807,1810,1831
1849,1915,1919
1874,1911,1830
1837,1821,1812
1819,1842,1859
1891,1899,1897
1853,1895,1886
1789,1859,1747
1798,1827,1733
1873,1893,1863
1858,1882,1863
1794,1882,1834
1791,1872,1825
1872,1917,1855
1897,1899,1866
1814,1857,1823
1813,1846,1747
1867,1855,1847
1894,1888,1925
1822,1892,1808
1811,1887,1815
1857,1854,1840
1864,1858,1932
1808,1819,1840
1791,1846,1831
1859,1925,1925
1888,1888,1879
1821,1872,1739
1808,1879,1815
1863,1898,1887
1887,1879,1859
1813,1840,1765
1776,1818,1776
1870,1869,1871
1901,1886,1904
1803,1857,1845
1759,1838,1811
1840,1911,1898
1872,1920,1846
1828,1870,1854
1814,1867,1897
1885,1926,1907
1904,1893,1845
1823,1789,1830
1790,1773,1840
1855,1872,1846
1871,1936,1808
1823,1883,1790
1803,1824,1739
1887,1921,1878
1907,1936,1974
1824,1872,1843
1814,1827,1827
1866,1873,1856
1857,1934,1866
1814,1865,1795
1810,1865,1849
1877,1905,1906
1877,1891,1888
1806,1819,1793
1793,1797,1776
1887,1935,1868
1901,1909,1857
1819,1840,1791
1803,1870,1808
1859,1915,1904
1922,1890,1881
1853,1820,1895
1776,1834,1770
1846,1893,1847
1891,1953,1858
1824,1870,1792
1819,1831,1792
1872,1883,1840
1884,1911,1884
1814,1907,1835
1822,1849,1824
1878,1849,1840
1888,1893,1840
1796,1860,1758
1781,1859,1831
1865,1883,1929
1904,1904,1915
1853,1853,1805
1850,1846,1837
1881,1872,1856
1893,1923,1866
1851,1902,1770
1823,1856,1794
1888,1875,1865
1884,1872,1857
1817,1889,1808
1829,1920,1883
1904,1958,1904
1901,1934,1872
1840,1783,1883
1812,1850,1857
1906,2041,1934
1930,2006,1871
1863,1832,1862
1831,1856,1835
1895,1883,1830
1904,1785,1827
1791,1710,1725
1805,1792,1846
1890,1887,1927
1905,1890,1885
1857,1839,1793
1802,1846,1808
1874,1989,1942
1922,1958,2005
1834,1802,1807
1830,1885,1742
1854,1879,1840
1871,1943,1830
1828,1904,1763
1817,1897,1819
1872,1985,1897
1910,2032,1899
1827,1985,1694
1812,1943,1791
1853,1936,1939
1881,1987,1898
1819,2089,1838
1777,2033,1783
1871,2096,1875
1904,2117,1974
1808,2043,1827
1794,1997,1705
1845,2073,1826
1866,2096,1788
1802,2045,1793
1781,2019,1841
1856,2131,1906
1874,2180,1812
1804,2105,1757
1795,2075,1881
1823,2079,1883
1838,2164,1873
1776,2126,1810
1792,2064,1781
1869,2119,1855
1872,2161,1855
1799,2173,1801
1785,2139,1782
1858,2175,1895
1823,2091,1895
1773,2047,1774
1749,2034,1716
1833,2115,1814
1863,2242,1922
1794,2131,1808
1763,2037,1758
1822,2123,1829
1829,2170,1840
1797,2123,1835
1774,2133,1803
1835,2146,1839
1822,2138,1841
1782,2091,1838
1778,2098,1843
1834,2077,1808
1806,2096,1758
1757,2039,1776
1786,2063,1843
1897,2194,1920
1855,2157,1828
1776,1983,1749
1759,2025,1842
1815,2097,1834
1823,2133,1813
1779,2112,1789
1797,2091,1857
1826,2047,1867
1867,2159,1870
1817,2199,1808
1774,2084,1761
1847,2042,1830
1823,2053,1889
1775,1999,1821
1747,1966,1770
1849,2075,1872
1856,2128,1869
1776,2069,1843
1783,2068,1796
1862,2146,1858
1840,2150,1840
1750,1999,1766
1811,1970,1838
1840,2045,1893
1877,2099,1851
1777,2016,1787
1759,2011,1821
1887,2032,1950
1872,2035,1851
1740,2071,1788
1808,2095,1808
1851,1973,1853
1863,1995,1879
1803,1975,1850
1769,1968,1828
1860,2046,1841
1877,2077,1835
1805,1923,1840
1797,1938,1853
1876,2062,1872
1898,2079,1849
1808,1980,1763
1791,1907,1840
1885,1978,1939
1885,1975,1937
1776,1978,1795
1807,1995,1836
1886,2009,1952
1867,2017,1889
1777,1943,1766
1795,1856,1786
1842,1935,1855
1883,2006,1902
1831,1967,1841
1806,1931,1781
1844,1968,1881
1862,1964,1906
1829,1888,1872
1817,1937,1817
1835,1991,1868
1920,1969,1893
1875,1872,1898
1744,1881,1851
1824,1970,1856
1846,1999,1873
1808,1841,1824
1779,1913,1840
1860,2030,1934
1905,1971,1878
1820,1853,1837
1805,1843,1844
1891,1919,1843
1952,1977,1877
1872,1963,1878
1798,1904,1857
1874,1985,1934
1872,1922,1904
1747,1840,1793
1866,1910,1790
1867,1936,1872
1889,1933,1877
1831,1931,1829
1859,1989,1851
1869,1964,1929
1893,1834,1895
1849,1775,1799
1809,1847,1836
1931,2037,1872
1930,1962,1930
1896,1885,1927
1823,2001,1845
1938,1899,1840
1878,1786,1811
1862,1903,1843
1841,1886,1903
1866,1940,1937
1915,2022,1904
1893,1877,1765
1884,1732,1829
1894,1825,1901
1898,1853,1909
1844,1856,1840
1842,1889,1813
1909,1890,1840
1958,1913,1895
1875,1909,1891
1838,1882,1897
1919,1946,1968
1950,1985,1969
1844,1925,1782
1835,1857,1776
1889,1879,1858
1929,1808,1911
1868,1794,1861
1808,1840,1902
1879,1941,1907
1951,2081,1871
1883,2000,1850
1745,1820,1822
1871,1783,1901
1937,1843,1921
1887,1909,1840
1872,1906,1856
1909,1919,1879
1901,1938,1910
1873,1854,1856
1839,1852,1840
1931,2021,1881
1936,1978,1886
1817,1783,1793
1823,1799,1827
1962,1949,1917
1920,1931,1925
1835,1886,1904
1879,1947,1923
1942,1921,1906
1930,1922,1859
1837,1923,1829
1807,1895,1810
1909,1883,1898
1935,1958,1907
