1921,1975,1807
1938,1925,1734
1838,1801,1602
1822,1828,1684
1911,1855,1738
1968,1885,1807
1904,1879,1745
1840,1855,1673
1879,1875,1715
1935,1924,1783
1883,1904,1733
1840,1807,1664
1914,1849,1815
1962,1936,1809
1888,1845,1663
1854,1831,1683
1933,1950,1803
1949,1968,1787
1871,1815,1696
1840,1732,1727
1924,1830,1830
1956,1955,1802
1878,1962,1690
1861,1809,1730
1957,1861,1747
1909,1815,1727
1843,1802,1667
1853,1872,1738
1937,2005,1850
1989,1993,1845
1879,1822,1703
1824,1698,1669
1871,1790,1739
1936,1907,1728
1902,1872,1783
1872,2000,1616
1921,1923,1839
1918,1782,1872
1869,1795,1772
1898,1904,1786
1968,1966,1785
1909,1875,1779
1835,1807,1737
1835,1833,1743
1920,1887,1840
1967,1931,1840
1878,1918,1744
1851,1840,1719
1945,1882,1808
1966,1996,1825
1891,1822,1776
1840,1823,1826
1920,1951,1863
1947,1935,1770
1857,1846,1718
1843,1824,1744
1930,1951,1821
1979,1994,1872
1894,1882,1776
1869,1794,1793
1904,1838,1808
1918,1949,1813
1865,1903,1768
1872,1850,1779
1950,1887,1903
1941,1919,1873
1879,1886,1769
1829,1850,1726
1904,1960,1826
1959,2014,1859
1887,1917,1779
1837,1780,1777
1920,1840,1869
1921,1968,1872
1872,1856,1763
1868,1841,1776
1979,1895,1861
1965,1946,1871
1868,1983,1904
1823,1840,1766
1909,1821,1763
1905,1904,1814
1847,1862,1807
1889,1917,1856
1941,1987,1878
1910,1969,1840
1847,1840,1805
1851,1791,1789
1931,1887,1865
1938,1904,1865
1888,1871,1814
1878,1902,1840
1927,1982,1904
1984,1963,1893
1899,1883,1802
1870,1822,1759
1921,1907,1840
1929,1985,1888
1825,1835,1857
1846,1856,1819
1899,1883,1854
1936,1902,1862
1910,1975,1845
1869,1851,1811
1923,1893,1866
1942,1903,1897
1872,1847,1840
1866,1821,1791
1984,1950,1882
1999,1985,1971
1927,1905,1813
1854,1890,1825
1914,1904,1851
1919,1911,1844
1841,1855,1840
1862,1840,1850
1936,1911,1895
2007,1942,1882
1888,1860,1833
1824,1797,1859
1887,1905,1910
1919,1987,1909
1852,1893,1794
1903,1857,1799
1977,1963,1865
1963,1970,1914
1905,1841,1821
1853,1854,1847
1905,1990,1919
1949,1893,1957
1894,1821,1837
1866,1802,1747
1930,1902,1853
1944,1972,1947
1897,1966,1927
1885,1884,1824
1913,1909,1870
1956,1925,1892
1890,1839,1779
1887,1820,1808
1872,1907,1891
1999,1932,1947
1872,1852,1857
1916,1908,1826
1942,1952,1855
1950,1889,1933
1879,1829,1846
1810,1855,1849
1926,1937,1923
1904,1936,1916
1822,1865,1869
1872,1901,1833
1935,1933,1889
1931,1951,1872
1850,1910,1851
1887,1856,1839
1859,1827,1847
1945,1886,1894
1906,1888,1847
1925,1920,1823
1907,1955,2000
1840,1874,1936
1842,1806,1759
1887,1858,1799
1949,1954,1909
1961,1968,1936
1871,1863,1849
1859,1897,1861
1936,1921,1953
1947,1921,1879
1881,1874,1840
1870,1955,1873
1899,1963,1918
1947,1869,1902
1881,1808,1872
1767,1791,1814
1875,1888,1854
1981,1946,1893
1920,1893,1851
1853,1877,1862
1942,1941,1979
1891,1925,1904
1849,1886,1808
1870,1889,1824
1901,1934,1958
1968,1943,1964
1858,1881,1872
1894,1890,1815
1919,1936,1851
1968,1936,1877
1905,1915,1877
1843,1904,1853
1936,1990,1890
1910,1911,1863
1852,1798,1811
1873,1841,1864
1879,1938,1936
1969,1951,1896
1886,1865,1818
1873,1861,1845
1933,1936,1930
1982,1965,1947
1967,1955,1968
1922,1967,1887
1922,1967,1837
1925,1910,1836
1888,1787,1793
1879,1817,1833
1965,1923,1910
2002,2036,1961
1969,1958,1853
1872,1816,1821
1953,1874,1877
1952,1917,1932
1894,1877,1841
1875,1878,1836
1951,1930,1919
1978,1965,1936
1908,1907,1857
1901,1884,1850
1973,1938,1906
2010,1948,1914
1942,1885,1840
1943,1859,1812
2054,1889,1819
2039,1923,1802
1957,1922,1862
1901,1921,1898
1991,1931,1897
2091,1840,1744
1941,1891,1754
1897,1910,1906
1999,1915,1915
2064,1857,1862
1995,1827,1822
1899,1838,1774
1952,1871,1837
2025,1871,1872
1965,1787,1798
1925,1754,1776
2000,1808,1858
2027,1811,1870
1954,1739,1775
1936,1698,1756
2006,1742,1815
2011,1743,1811
1946,1664,1730
1936,1639,1727
1999,1690,1810
2013,1701,1835
1941,1621,1766
1910,1563,1738
1985,1649,1806
2014,1679,1815
1947,1637,1747
1923,1575,1723
1981,1589,1767
2006,1585,1775
1946,1565,1730
1904,1488,1717
1968,1511,1751
2000,1600,1726
1937,1490,1692
1921,1502,1721
1994,1606,1772
2015,1587,1744
1933,1455,1683
1909,1458,1671
1971,1505,1724
2000,1535,1732
1946,1477,1712
1920,1470,1707
1999,1615,1778
2000,1519,1727
1919,1408,1626
1890,1438,1637
2004,1581,1804
2029,1604,1809
1963,1535,1701
1923,1418,1685
1978,1426,1741
1994,1497,1751
1936,1484,1681
1947,1502,1738
2019,1740,1792
2031,1564,1776
1979,1319,1690
1981,1419,1712
2035,1535,1767
2074,1615,1803
2018,1535,1748
2128,1565,1756
2096,1776,1713
2000,1535,1760
1966,1462,1755
1982,1438,1745
2075,1481,1805
2178,1663,1898
2021,1648,1642
1907,1606,1649
2007,1652,1813
2149,1717,1890
2082,1643,1707
1937,1601,1733
1990,1686,1826
2061,1675,1859
2026,1713,1790
2017,1635,1749
2083,1694,1862
2097,1699,1889
2001,1737,1776
2000,1680,1753
2071,1691,1850
2077,1731,1840
2037,1661,1807
2015,1644,1776
2086,1714,1866
2126,1791,1868
1978,1723,1732
2010,1721,1767
2093,1799,1859
2097,1904,1933
2000,1760,1847
1989,1647,1837
2086,1725,1872
2155,1839,1894
2073,1885,1861
2031,1766,1854
2053,1709,1872
2087,1775,1904
2014,1702,1841
2019,1720,1847
2106,1821,1909
2127,1854,1937
2064,1822,1865
2043,1755,1790
2099,1809,1872
2109,1857,1966
2035,1821,1920
2017,1831,1905
2083,1927,1952
2118,1925,1948
2032,1773,1862
1997,1769,1862
2080,1843,1936
2117,1872,1945
2035,1812,1870
2009,1794,1868
2081,1854,1933
2110,1866,1938
2037,1827,1894
2036,1787,1902
2128,1911,1909
2141,2012,1901
1983,1823,1819
1941,1670,1851
2064,1736,1950
2217,1856,1983
2275,1864,1929
1894,1678,1707
1903,1697,2000
2027,1851,2107
2229,2092,2176
2079,1916,1802
1998,1422,1857
2045,1557,2111
2128,1986,2085
2160,2101,2032
2261,2336,2017
1983,1888,1840
1975,1662,2031
2077,1808,2023
2115,2011,2257
2015,1954,2288
2064,1922,2211
2102,1895,2240
2027,1935,2192
2039,1762,2351
1993,1747,2243
1978,1744,2334
2032,1790,2409
2096,1904,2407
2079,2156,2368
2074,2051,2302
2041,1855,2215
2006,1713,2351
1982,1807,2361
2009,2013,2353
2192,2267,2490
2063,2028,2183
1920,1808,2147
1940,1909,2279
2064,1936,2429
2310,2343,2683
2198,2483,2102
1809,1922,2041
1856,1735,2355
2006,1954,2427
2115,2030,2411
2135,2223,2254
1929,1951,2077
1945,2006,2283
1953,2022,2321
1971,1964,2267
2007,2017,2247
2028,2146,2247
1982,1969,2187
1957,1936,2155
2003,2033,2201
2023,2066,2207
1987,2023,2195
1961,2045,2143
2000,2091,2117
2054,1923,2142
2016,1871,2127
1973,1973,2335
1963,2047,2305
1967,2079,2098
1946,1966,1991
2030,1906,1935
2146,1975,2108
2115,2150,2384
1920,2003,2449
1814,1904,2153
1884,1923,1973
1964,1919,2012
1982,1815,1991
1997,1870,1969
2047,1981,2142
2176,2007,2251
2167,1914,2179
1936,1783,2053
1867,1805,2035
1857,1763,2032
1931,1725,2000
2107,1822,2122
2102,1878,2192
1872,1602,2064
1771,1604,1900
1828,1577,1889
1933,1621,1979
1944,1645,2029
1871,1566,1947
1861,1589,1911
1943,1535,1987
1975,1581,1973
1927,1492,1918
1895,1507,1904
1937,1535,1934
1954,1562,1935
1907,1520,1883
1904,1479,1883
1956,1535,1923
1978,1598,1940
1965,1587,1930
1873,1490,1781
1909,1507,1863
1923,1535,1872
1953,1673,1846
2004,1459,1787
1961,1786,1842
1827,1373,1877
1749,934,1794
1794,1258,1744
1894,1535,1811
1947,1793,1871
1871,1562,1792
1822,1456,1697
1888,1362,1789
1938,1438,1873
1866,1450,1745
1839,1455,1735
1897,1566,1794
1918,1569,1813
1878,1472,1765
1865,1474,1744
1924,1535,1808
1947,1575,1811
1890,1587,1763
1872,1559,1786
1919,1605,1822
1931,1618,1819
1888,1594,1768
1885,1599,1776
1931,1659,1820
1938,1710,1823
1886,1594,1769
1875,1698,1769
1905,1663,1793
1917,1618,1800
1877,1635,1762
1872,1631,1758
1935,1673,1808
1963,1691,1836
1936,1729,1811
1929,1680,1788
1952,1761,1808
1915,1689,1805
1883,1696,1791
1947,1745,1839
1919,1709,1797
1860,1715,1741
1834,1723,1701
1831,1778,1744
1874,1654,1799
1893,1713,1794
1854,1705,1737
1840,1739,1731
1889,1803,1785
1910,1775,1792
1904,1801,1763
1948,1978,1793
1946,1863,1834
1840,1728,1759
1778,1703,1697
1833,1790,1747
1949,1909,1839
1997,1954,1869
1887,1869,1763
1939,1906,1798
2291,2239,1985
2003,1919,1803
1578,1646,1598
1665,1790,1659
1861,1913,1808
1875,2019,1753
1796,1813,1682
1775,1798,1683
1948,1961,1783
1795,1869,1696
1758,1855,1658
1779,1953,1662
1861,1907,1737
2128,2151,1936
2020,2032,1754
1535,1703,1463
1554,1801,1535
1695,1923,1589
1745,1979,1598
1934,2011,1670
1963,2082,1647
1840,2074,1572
1627,2033,1475
1518,1994,1606
1615,2037,1670
1755,2143,1647
1844,2133,1601
1701,2074,1625
1702,2135,1681
1791,2194,1796
1744,2153,1584
1661,2128,1366
1693,2176,1587
1733,2171,1663
1712,2163,1594
1701,2176,1595
1734,2210,1645
1677,2157,1554
1655,2145,1509
1664,2194,1535
1727,2192,1658
1737,2181,1629
1630,2106,1607
1635,2173,1557
1665,2181,1535
1639,2107,1535
1631,2179,1535
1650,2187,1613
1685,2153,1747
1667,2084,1622
1570,2042,1412
1571,2068,1485
1655,2166,1621
1707,2223,1680
1631,2186,1598
1609,2156,1600
1680,2303,1615
1703,2103,1653
1644,1987,1681
1643,2141,1600
1601,2096,1610
1621,2099,1637
1601,2103,1658
1623,2177,1614
1670,2256,1629
1680,2087,1658
1594,1996,1619
1591,2135,1616
1712,2224,1667
1699,2153,1765
1681,2085,1673
1580,2081,1584
1520,2101,1680
1569,2057,1839
1563,2055,1572
1579,2142,1582
1671,2194,1777
1711,2142,1782
1637,2082,1644
1581,2157,1571
1662,2171,1675
1678,2092,1727
1617,2047,1732
1597,2026,1715
1669,2149,1718
1667,2153,1695
1597,2037,1662
1627,2064,1739
1774,2192,1931
1711,2143,1788
1561,2053,1619
1604,2073,1562
1681,2143,1675
1682,2169,1776
1643,2069,1738
1703,2067,1686
1803,2128,1759
1778,2203,1822
1580,2110,1712
1520,2100,1729
1632,2032,1786
1724,2105,1842
1647,2091,1735
1580,2032,1698
1670,2091,1795
1743,2083,1773
1763,2071,1747
1775,2085,1712
1715,2087,1781
1648,2128,1858
1634,2093,1745
1597,2017,1747
1727,2082,1810
1712,2109,1813
1638,2160,1765
1616,2134,1717
1626,1984,1757
1687,2021,1809
1662,2057,1764
1645,2045,1754
1707,2073,1826
1742,2138,1841
1691,2062,1787
1712,2032,1774
1717,2039,1771
1745,2096,1849
1669,1995,1787
1616,1981,1776
1712,2062,1812
1791,2082,1875
1799,2062,1774
1685,2078,1811
1671,2046,1922
1718,2033,1783
1696,2023,1935
1651,1997,1904
1685,2025,1678
1754,2023,1701
1749,1974,1872
1694,1937,1707
1739,2079,1813
1772,2059,1843
1695,1919,1759
1711,1904,1765
1744,1971,1777
1763,2027,1872
1701,1993,1824
1744,1986,1818
1751,2069,1847
1785,2033,1827
1718,1927,1779
1725,1969,1851
1770,1989,1936
1793,1943,1869
1668,1863,1664
1683,1934,1717
1739,1968,1827
1759,1927,1936
1726,1869,1872
1717,1893,1762
1772,1999,1847
1831,2081,1907
1811,1922,1842
1702,1838,1791
1742,1886,1843
1808,1940,1898
1763,1902,1853
1746,1897,1746
1799,1978,1858
1847,1980,1911
1820,1923,1828
1735,1881,1841
1764,1935,1810
1840,1978,1845
1801,1951,1799
1808,1868,1883
1773,1840,1912
1755,1855,1871
1747,1875,1841
1754,1872,1873
1843,1959,1930
1841,2003,1853
1761,1886,1818
1762,1825,1777
1797,1855,1890
1808,1881,1910
1766,1839,1842
1769,1858,1834
1941,1919,1880
1895,1983,2022
1697,1899,1903
1679,1810,1812
1808,1856,1899
1885,1917,1910
1811,1937,1843
1728,1811,1785
1791,1851,1877
1854,1910,1930
1846,1936,1945
1834,2000,1803
1803,1907,1853
1818,1792,1874
1804,1803,1887
1783,1858,1947
1860,1935,1921
1884,1970,1879
1793,1766,1828
1743,1747,1854
1788,1838,1910
1867,1949,1886
1895,1968,1917
1797,1773,1827
1829,1749,1955
1873,1859,1959
1778,1866,1801
1776,1831,1808
1886,1990,1904
1818,1861,1903
1776,1797,1874
1780,1860,1902
1835,1839,1857
1888,1856,1938
1855,1936,2017
1789,1808,1794
1847,1825,1862
1939,1939,1925
1795,1861,1798
1767,1808,1820
1853,1843,1937
1911,1921,1978
1808,1810,1796
1755,1729,1772
1838,1902,1901
1901,2001,2021
1834,1838,1869
1837,1791,1827
1856,1798,1917
1910,1904,2059
1861,1870,1856
1840,1879,1877
1859,1882,1913
1846,1858,1911
1794,1767,1904
1793,1821,1845
1883,1917,1883
1881,1886,1882
1811,1818,1840
1793,1824,1882
1907,1943,1938
2000,1918,1981
1834,1791,1814
1776,1747,1859
1893,1828,1953
1904,1920,1898
1823,1876,1869
1791,1849,1857
1857,1894,1927
1877,1851,1851
1879,1741,1847
1874,1801,1900
1871,1867,1937
1875,1872,1959
1826,1866,1849
1829,1873,1814
1955,1821,1902
1904,1801,1862
1808,1806,1849
1841,1867,1934
1903,1831,1924
1947,1899,1904
1873,1865,1871
1847,1808,1919
1894,1879,1961
1893,1855,1831
1835,1767,1810
1835,1801,1792
1917,1859,1856
1950,1919,1984
1875,1872,1934
1809,1790,1872
1851,1809,1882
1911,1921,1869
1886,1899,1873
1851,1776,1859
1915,1801,1904
1979,1847,1865
1861,1787,1840
1815,1799,1933
1909,1958,1950
1939,2046,1876
1860,1826,1879
1811,1708,1879
1879,1840,1883
1919,1922,1908
1858,1808,1857
1840,1736,1815
1947,1866,1971
1936,1872,1967
1858,1840,1776
1827,1807,1769
1883,1883,1915
1951,1923,1989
1902,1884,1920
1877,1903,1809
1883,1874,1929
1891,1847,1931
1872,1853,1867
1866,1890,1875
1905,1821,1943
1921,1787,1937
1878,1850,1835
1857,1829,1887
1905,1813,1872
1905,1843,1861
1840,1840,1811
1853,1823,1835
1917,1887,1985
1997,2012,1986
1894,1838,1905
1840,1796,1858
1895,1863,1868
1908,1807,1948
1899,1840,1896
1872,1829,1824
1892,1887,1857
1947,1894,1935
1887,1823,1843
1855,1821,1856
1911,1821,1911
1929,1910,1913
1902,1984,1939
1878,1826,1895
1967,1813,1906
1950,1876,1936
1850,1906,1909
1838,1870,1861
1936,1815,1888
1968,1791,1879
1874,1859,1834
1835,1808,1815
1903,1828,1894
1968,1907,1946
1872,1840,1883
1873,1879,1909
1935,1982,1974
1943,1920,1876
1871,1776,1813
1898,1856,1905
1941,1842,1936
1934,1821,1949
1845,1806,1810
1866,1904,1807
2010,1985,1933
1975,1925,1922
1885,1925,1894
1904,1914,1943
1869,1765,1904
1882,1799,1890
1845,1798,1802
1807,1825,1795
1887,1905,1921
1901,1937,1941
1907,1998,1889
1841,1753,1817
1937,1808,1871
2000,1927,1920
1850,1918,1907
1840,1918,1862
1889,1939,1845
1983,2020,1953
1943,1990,1899
1814,1690,1714
1814,1744,1815
1907,1827,1952
1889,1890,1936
1878,1910,1909
1903,1886,1862
1947,1932,1841
1899,1959,1838
1890,1943,1939
1918,1918,1906
1942,1890,1851
1858,1828,1795
1904,1843,1845
2004,1947,1963
2023,1837,1955
1882,1846,1855
1817,1869,1813
1895,1939,1934
1922,1968,1949
1903,1870,1817
1845,1818,1782
1942,1878,1909
1936,1860,1889
1846,1895,1815
1838,1857,1830
1929,1922,1952
1958,1996,1973
1835,1891,1853
1859,1871,1830
1914,1968,1867
1947,1907,1855
1847,1834,1845
1842,1849,1856
1968,2011,1895
1953,1904,1917
1884,1872,1809
1828,1850,1757
1877,1835,1909
1952,1899,1949
1903,1981,1931
1858,1920,1854
1840,1863,1851
1916,1897,1873
1873,1867,1840
1894,1893,1844
1887,1968,1871
1895,1903,1861
1831,2000,1859
1872,1991,1855
1925,1888,1886
1936,1846,1915
1840,1815,1854
1828,1851,1875
1931,1936,1922
1947,2003,1895
1872,1907,1825
1821,1898,1835
1883,1878,1889
1932,1911,1881
1837,1879,1855
1823,1887,1856
1884,1950,1934
1899,2019,1936
1872,1911,1904
1827,1869,1840
1872,1917,1901
1872,1904,1902
1813,1863,1838
1853,1957,1800
1933,2055,1869
1938,1985,1889
1882,1891,1862
1778,1797,1840
1911,1872,1931
1947,1965,1984
1904,1857,1838
1858,1875,1823
1899,1961,1883
1911,1946,1839
1872,1948,1853
1855,1933,1858
1878,1975,1942
1884,1909,1905
1872,1846,1817
1867,1953,1820
1907,1951,1893
1895,1885,1857
1856,1789,1830
1828,1853,1840
1893,2032,1883
1871,2026,1941
1757,1863,1858
1782,1889,1832
1941,1946,1871
2000,2026,1949
1834,1853,1819
1787,1829,1814
1873,1970,1923
1931,2025,1884
1847,1936,1810
1816,1953,1818
1904,1921,1863
1840,1901,1936
1869,1798,1872
1857,1826,1807
1901,2029,1869
1904,2227,1853
1907,1961,1872
1853,1710,1867
1941,1937,1845
1956,1947,1854
1808,2027,1871
1776,2129,1896
1826,1885,1923
1885,1802,1933
1814,1968,1808
1790,1804,1747
1890,1938,1841
1887,1883,1936
1774,1783,1870
1839,1891,1883
1859,2055,1903
1853,1937,1886
1777,1819,1783
1758,1918,1781
1873,2003,1892
1869,1973,1919
1840,1917,1840
1776,1997,1911
1856,1947,1918
1840,1877,1842
1815,1975,1877
1807,1882,1867
1843,1894,1905
1854,1936,1834
1776,1923,1829
1770,1865,1818
1833,1892,1909
1838,1875,1915
1775,1971,1820
1796,1974,1838
1811,1905,1903
1840,1886,1924
1761,1819,1817
1733,1803,1797
1833,1984,1945
1886,2005,1904
1794,1921,1785
1728,1776,1791
1811,1881,1914
1821,1902,1895
1846,1857,1850
1815,1840,1865
1809,1917,1905
1814,2000,1901
1799,2032,1873
1749,1875,1858
1814,1826,1916
1894,1907,1968
1776,1832,1834
1754,1806,1857
1842,1925,1915
1903,2009,1917
1767,1920,1849
1730,1882,1847
1839,1977,1984
1851,1797,1955
1776,1785,1828
1769,1890,1835
1856,1962,1886
1891,2034,1963
1869,1995,1895
1827,1808,1790
1774,1827,1917
1795,1904,1994
1781,1909,1855
1851,1950,1831
1939,2153,1907
1820,1873,1920
1643,1612,1837
1671,1741,1855
1809,1879,1911
1862,1969,1980
1808,1999,1885
1759,1925,1856
1817,1904,1859
1847,1898,1945
1785,1922,1844
1770,1897,1863
1846,1981,1904
1863,2128,2003
1779,1808,1901
1755,1856,1829
1780,1891,1811
1856,1915,1893
1800,1866,1891
1744,1833,1905
1838,1915,1921
1949,2109,2002
1713,1929,1764
1665,1729,1829
1781,1817,1906
2023,1947,1870
1841,1947,1975
1744,1957,2044
1744,1869,1905
1872,1904,1861
1792,1904,1833
1715,1899,1839
1801,1971,1936
1933,1968,1917
1776,1902,1871
1663,1938,1773
1744,1931,1831
1815,1935,1929
1845,1856,1903
1849,1840,1882
1703,1866,1824
1691,1923,1930
1715,1951,1894
1739,1820,1837
1798,1843,1852
1871,2001,1904
1767,1975,1901
1792,1968,1891
1728,1870,1853
1721,1841,1925
1759,1839,1940
1818,1950,1877
1824,1857,1843
1715,1919,1807
1734,1847,1828
1730,1833,1891
1703,1987,1925
1742,1987,1911
1733,1904,1898
1765,1712,1918
1795,1817,1879
1742,1893,1855
1701,1963,1872
1676,1962,1840
1748,1963,1818
1718,1851,1846
1647,1793,1840
1655,1894,1866
1763,2034,1890
1811,1979,1948
1720,1740,1851
1609,1715,1835
1686,1847,1954
1747,1950,1895
1735,1956,1815
1707,1967,1861
1757,1984,1915
1756,1808,1906
1698,1785,1805
1698,1853,1845
1766,1902,1851
1735,2042,1904
1693,1998,1933
1648,1747,1874
1680,1813,1911
1724,1957,1928
1666,1842,1873
1665,1728,1790
1751,1855,1857
1759,2000,1889
1700,1947,1822
1695,1865,1850
1706,1804,1882
1782,1875,1969
1701,1917,1872
1657,1849,1802
1744,1982,1989
1827,1911,2030
1769,1822,1791
1730,1759,1786
1733,1923,1993
1730,1867,1932
1658,1808,1834
1722,1873,1807
1769,1995,1854
1730,1862,1941
1681,1870,1917
1679,1881,1914
1730,1797,1984
1785,1875,2032
1738,1931,1790
1710,1872,1776
1759,1851,1943
1817,1883,1979
1743,1954,1947
1680,1885,1891
1745,1775,1937
1786,1920,1866
1732,1980,1806
1671,1824,1821
1751,1840,1933
1791,1877,1942
1696,1840,1917
1694,1693,1857
1746,1840,1835
1811,1870,1943
1734,1968,1899
1687,1859,1888
1731,1719,1950
1791,1808,1981
1749,2010,1940
1683,1884,1879
1724,1744,1878
1835,2000,1954
1774,1847,1898
1645,1623,1856
1707,1791,1956
1761,1923,1957
1757,1932,1952
1698,1846,1871
1713,1808,1844
1748,1777,1919
1728,1802,1894
1735,1839,1931
1761,1866,1920
1808,1923,1906
1763,1822,1893
1679,1819,1959
1718,1969,1982
1776,2019,1905
1731,1730,1834
1776,1747,1859
1763,1870,1972
1721,1825,2097
1680,1857,1855
1693,1852,1812
1780,1965,1927
1791,1970,1953
1726,1814,1919
1699,1728,1889
1773,1872,1953
1793,1879,1968
1732,1814,1933
1730,1757,1885
1808,1814,1898
1751,1797,1937
1661,1823,1890
1712,1922,1901
1767,1918,1953
1793,1885,1965
1715,1808,1882
1709,1840,1938
1776,1879,1983
1809,1840,1962
1744,1899,1904
1747,1679,1916
1779,1774,2046
1817,1938,2078
1732,1839,1846
1715,1760,1785
1744,1776,1905
1798,1853,2101
1722,1854,1875
1702,1829,1801
1762,1883,1887
1802,1925,1953
1741,1874,1903
1696,1740,1890
1755,1810,1968
1783,1904,2000
1744,1834,1911
1719,1794,1902
1797,1872,2009
1841,2000,2057
1790,1903,1841
1727,1586,1750
1721,1650,1910
1761,1835,1979
1749,1877,1953
1727,1750,1865
1821,1762,1947
1865,1872,2197
1744,1836,1855
1671,1855,1755
1735,1805,1893
1788,1779,1936
1748,1764,1921
1776,1776,1859
1781,1856,1913
1753,1817,1952
1694,1771,1923
1693,1729,1917
1783,1885,1953
1810,1911,1947
1749,1755,1904
1713,1719,1904
1824,1805,1998
1826,1840,1934
1744,1813,1871
1719,1804,1939
1761,1805,2027
1793,1774,1971
1728,1722,1856
1712,1762,1854
1809,1841,1934
1827,1984,2064
1808,1840,2084
1695,1753,1815
1703,1779,1846
1772,1812,1967
1781,1754,2065
1725,1771,1836
1765,1825,1865
1787,1853,1906
1763,1779,1898
1716,1600,1809
1776,1735,1878
1797,1809,1941
1753,1789,1940
1733,1837,1915
1823,1923,1990
1875,1851,1953
1779,1725,1889
1697,1707,1877
1821,1776,1971
1805,1770,1970
1735,1695,1868
1728,1712,1882
1787,1915,1926
1840,1907,2035
1727,1697,1979
1707,1836,1840
1759,1778,1879
1786,1633,1915
1774,1623,1866
1755,1749,1925
1799,1828,1937
1844,1808,1965
1753,1729,1918
1733,1771,1882
1836,1891,2002
1855,1801,2087
1782,1715,1839
1719,1723,1879
1776,1807,1997
1823,1787,1971
1755,1776,1874
1745,1697,1892
1798,1688,1936
1823,1760,1986
1792,1817,1956
1723,1742,1905
1787,1763,1965
1845,1725,2016
1794,1815,1933
1778,1732,1904
1839,1733,1957
1820,1737,2003
1750,1763,1931
1739,1659,1873
1815,1677,1905
1845,1761,1955
1763,1809,1887
1716,1712,1893
1809,1664,1988
1841,1650,1943
1759,1731,1904
1731,1731,1935
1793,1747,1977
1855,1775,1975
1783,1718,1920
1744,1615,1936
1808,1719,1969
1862,1776,1955
1798,1778,1913
1716,1637,1878
1774,1690,1951
1877,1819,1939
1763,1744,1904
1692,1535,1898
1771,1623,1954
1841,1735,1974
1805,1770,1966
1789,1829,1956
1827,1771,1977
1815,1677,1952
1755,1582,1867
1739,1595,1893
1795,1687,1968
1808,1747,1953
1763,1744,1890
1743,1606,1898
1834,1702,1996
1915,1803,2015
1776,1648,1969
1662,1653,1987
1747,1751,1883
1819,1664,1875
1787,1667,1886
1735,1633,1872
1785,1670,1952
1835,1732,2026
1774,1679,1875
1740,1652,1858
1799,1737,1943
1856,1696,1999
1781,1692,1901
1751,1623,1868
1794,1657,1919
1793,1713,2003
1790,1634,1917
1773,1661,1883
1797,1710,1907
1822,1723,1936
1776,1681,1946
1754,1676,1941
1808,1726,1929
1861,1667,1985
1806,1662,1875
1776,1775,1923
1791,1714,1967
1782,1600,1914
1755,1563,1875
1765,1601,1906
1818,1676,1923
1837,1747,1936
1782,1748,1904
1744,1689,1923
1830,1644,1980
1875,1739,1955
1795,1707,1965
1729,1674,1920
1781,1637,1920
1834,1642,1963
1794,1591,1885
1741,1609,1802
1824,1725,1937
1887,1775,1984
1777,1622,1883
1734,1638,1855
1799,1814,1955
1840,1701,2011
1789,1588,1955
1793,1652,1915
1855,1658,1936
1801,1629,1867
1744,1587,1882
1749,1609,1910
1861,1801,1975
1898,1821,1953
1763,1636,1863
1700,1514,1881
1788,1600,1949
1851,1755,2057
1790,1677,1936
1744,1593,1895
1809,1713,1872
1847,1749,1918
1776,1641,1885
1753,1573,1842
1831,1615,1953
1876,1667,2000
1777,1631,1894
1748,1665,1872
1843,1768,1973
1859,1694,1966
1755,1630,1887
1759,1701,1863
1805,1765,1921
1815,1666,1994
1764,1557,1911
1767,1634,1881
1845,1746,1955
1860,1661,1949
1815,1584,1890
1794,1609,1847
1792,1674,1966
1850,1789,1966
1783,1648,1862
1776,1617,1935
1808,1683,1916
1851,1697,1915
1833,1664,1897
1779,1632,1909
1803,1680,1936
1824,1712,1965
1793,1651,1885
1788,1613,1995
1842,1717,1919
1840,1712,1861
1774,1684,1833
1754,1595,1863
1839,1648,1965
1839,1741,1947
1777,1705,1904
1784,1586,1886
1837,1648,1957
1870,1728,2021
1788,1729,1901
1733,1655,1809
1803,1713,1904
1882,1745,1984
1757,1635,1792
1750,1610,1855
1807,1665,1929
1857,1769,1956
1807,1622,1926
1749,1513,1895
1802,1623,1909
1869,1721,1962
1802,1728,1961
1784,1823,1893
1827,1702,1875
1846,1646,1919
1792,1620,1904
1744,1614,1795
1810,1659,1904
1822,1655,1899
1756,1662,1863
1739,1632,1872
1827,1813,1935
1887,1857,1977
1766,1617,1858
1719,1513,1815
1831,1578,1952
1898,1693,1982
1765,1700,1863
1724,1674,1865
1811,1705,1914
1846,1669,1946
1776,1643,1872
1753,1712,1850
1829,1719,1909
1860,1712,1901
1734,1682,1853
1722,1573,1904
1804,1643,1915
1839,1734,1873
1815,1710,1881
1778,1700,1967
1797,1718,1889
1879,1731,1855
1815,1635,1811
1705,1552,1829
1748,1626,1919
1820,1712,1957
1777,1718,1872
1781,1778,1871
1834,1856,1907
1807,1579,1877
1742,1473,1849
1723,1578,1861
1819,1713,1968
1862,1771,1919
1775,1791,1847
1725,1650,1836
1808,1651,1869
1840,1738,1890
1792,1705,1857
1750,1685,1872
1801,1765,1933
1811,1668,1887
1776,1680,1807
1755,1661,1890
1875,1695,2002
1858,1735,1871
1744,1696,1811
1731,1635,1848
1795,1712,1883
1843,1866,1875
1771,1707,1894
1732,1631,1819
1804,1659,1871
1831,1681,1868
1838,1710,1929
1767,1711,1861
1787,1750,1904
1808,1721,1973
1773,1728,1857
1784,1791,1719
1825,1740,1823
1818,1682,1921
1760,1739,1904
1725,1721,1849
1809,1725,1903
1839,1699,1950
1791,1707,1785
1750,1719,1759
1792,1728,1878
1842,1845,1936
1807,1822,1902
1775,1728,1877
1802,1706,1853
1803,1643,1814
1769,1682,1840
1761,1773,1878
1832,1825,1893
1857,1809,1921
1828,1758,1878
1840,1817,1867
1794,1712,1990
1792,1664,1879
1747,1654,1766
1733,1678,1781
1781,1726,1865
1825,1830,1888
1803,1931,1897
1761,1788,1835
1794,1652,1855
1840,1702,1887
1792,1715,1867
1770,1803,1847
1838,1815,1908
