1825,1947,1769
1776,1925,1731
1808,1911,1725
1860,1930,1734
1807,1927,1733
1792,1904,1712
1792,1893,1728
1808,1905,1747
1863,1899,1735
1769,1877,1711
1808,1881,1723
1791,1898,1745
1789,1886,1720
1769,1856,1696
1822,1859,1735
1802,1872,1766
1783,1859,1758
1840,1841,1727
1773,1840,1737
1799,1851,1759
1787,1846,1755
1777,1827,1728
1775,1828,1744
1796,1840,1771
1785,1826,1765
1770,1806,1739
1776,1807,1750
1790,1822,1774
1779,1810,1772
1753,1783,1751
1756,1776,1758
1774,1789,1777
1776,1779,1776
1759,1751,1763
1760,1750,1779
1761,1754,1787
1729,1741,1763
1735,1731,1770
1760,1738,1799
1767,1744,1808
1741,1738,1787
1712,1712,1746
1707,1711,1761
1732,1722,1805
1726,1714,1789
1705,1689,1750
1708,1683,1645
1723,1694,1520
1706,1680,1529
1680,1655,1699
1683,1648,1790
1696,1659,1296
1759,1719,0
1995,1918,0
2138,2035,0
2188,2126,0
2206,2177,0
2222,2216,0
2251,2232,0
2231,2192,0
2185,2142,0
2176,2117,0
2274,2150,0
2363,2209,0
2350,2192,0
2288,2115,0
2279,2066,976
2295,2033,1934
2297,2000,2043
2288,1962,1879
2305,1926,1792
2298,1895,1791
2218,1835,1808
2125,1770,1826
2093,1744,1822
2069,1726,1822
2017,1701,1821
1978,1662,1821
1968,1648,1827
1960,1648,1823
1920,1629,1825
1889,1600,1825
1890,1590,1828
1878,1600,1826
1850,1593,1827
1808,1554,1834
1799,1521,1831
1836,1558,1827
1840,1573,1825
1804,1535,1826
1797,1533,1827
1811,1535,1826
1786,1534,1826
1761,1502,1826
1764,1488,1827
1776,1514,1825
1754,1504,1819
1739,1485,1781
1746,1494,1810
1765,1526,1845
1755,1524,1840
1743,1509,1814
1746,1513,1808
1765,1523,1821
1758,1517,1834
1744,1503,1813
1762,1511,1828
1783,1523,1851
1765,1520,1853
1749,1514,1840
1764,1509,1872
1803,1523,1884
1776,1516,1867
1754,1509,1847
1790,1533,1300
1840,1581,1575
1856,1605,901
1950,1686,550
2131,1837,1712
2271,1968,2815
2288,2021,2657
2225,1987,1997
2294,1993,1872
2352,1993,1808
2358,1972,1813
2339,1936,1826
2310,1904,1830
2285,1894,1833
2245,1877,1829
2222,1854,1829
2222,1845,1829
2223,1868,1830
2201,1863,1829
2186,1847,1830
2193,1846,1829
2203,1863,1831
2197,1856,1829
2179,1843,1829
2198,1850,1829
2212,1879,1830
2197,1890,1831
2192,1887,1828
2207,1895,1831
2222,1913,1828
2227,1920,1830
2224,1923,1830
2234,1938,1835
2254,1954,1832
2239,1966,1828
2246,1968,1839
2282,2000,1904
2319,2022,1973
2306,2029,1995
2298,2019,1997
2311,2018,2020
2338,2040,2063
2321,2059,2076
2327,2054,2100
2352,2064,2138
2373,2084,2170
2353,2075,2166
2339,2064,2161
2352,2075,2199
2372,2095,2240
2365,2089,2245
2352,2074,2227
2367,2083,2256
2404,2096,2304
2403,2096,2305
2384,2090,2291
2410,2110,2338
2455,2129,2404
2461,2131,2418
2433,2086,2401
2448,2114,2428
2461,2206,2453
2446,2161,2459
2419,2181,2455
2429,2197,2489
2448,2151,2539
2447,2231,2538
2427,2150,2531
2431,2221,2558
2464,2239,2609
2466,2218,2620
2445,2239,2602
2448,2231,2626
2479,2242,2672
2480,2262,2672
2478,2231,2663
2474,2235,2656
2478,2219,2665
2448,2199,2649
2421,2173,2618
2425,2125,2624
2417,2133,2613
2381,2096,2555
2320,2055,2511
2320,2002,2512
2343,2016,2538
2339,2020,2538
2362,2047,2559
2450,2095,2673
2556,2215,2791
2601,2271,2835
2621,2292,2845
2643,2278,2896
2672,2349,2951
2665,2347,2935
2647,2327,2900
2666,2335,2919
2706,2323,2962
2700,2352,2943
2681,2318,2929
2720,2391,2958
2767,2400,3014
2758,2411,3024
2736,2406,3007
2757,2414,3027
2785,2423,3056
2739,2381,3006
2704,2377,2949
2717,2370,2969
2736,2338,2992
2699,2318,2960
2658,2294,2902
2640,2301,2900
2641,2251,2919
2625,2259,2895
2593,2235,2850
2580,2184,2827
2559,2192,2837
2541,2177,2813
2513,2141,2779
2527,2125,2803
2558,2215,2821
2539,2142,2800
2498,2097,2773
2512,2100,2788
2533,2095,2806
2499,2112,2757
2461,2019,2730
2480,2111,2752
2502,2080,2774
2487,2095,2763
2469,2055,2735
2487,2079,2746
2512,2119,2758
2505,2141,2758
2486,2153,2740
2487,2171,2738
2497,2122,2736
2482,2122,2730
2467,2124,2710
2487,2142,2733
2510,2106,2750
2497,2137,2733
2483,2177,2706
2490,2130,2715
2510,2147,2724
2512,2141,2734
2512,2149,2722
2541,2177,2746
2580,2189,2768
2589,2179,2766
2559,2177,2751
2595,2183,2773
2630,2224,2818
2645,2224,2812
2633,2197,2790
2641,2221,2800
2672,2239,2825
2663,2240,2811
2640,2210,2768
2652,2247,2778
2672,2195,2800
2654,2192,2797
2649,2196,2768
2671,2173,2781
2694,2241,2791
2687,2176,2776
2676,2240,2773
2695,2235,2787
2722,2226,2789
2706,2221,2768
2688,2191,2768
2714,2222,2798
2750,2208,2813
2726,2281,2789
2718,2176,2761
2735,2235,2779
2755,2239,2805
2747,2241,2779
2739,2229,2754
2759,2193,2779
2787,2329,2802
2789,2295,2800
2775,2287,2771
2790,2253,2768
2816,2331,2800
2821,2281,2801
2809,2256,2777
2827,2267,2783
2845,2297,2800
2830,2282,2787
2807,2240,2764
2827,2271,2773
2860,2279,2784
2857,2256,2773
2832,2256,2765
2858,2270,2781
2878,2277,2786
2864,2278,2763
2843,2247,2729
2863,2253,2750
2884,2249,2773
2866,2271,2744
2849,2217,2721
2865,2266,2739
2887,2239,2751
2873,2271,2725
2859,2250,2701
2880,2263,2709
2896,2289,2707
2887,2287,2671
2852,2247,2672
2871,2245,2697
2881,2276,2704
2872,2313,2686
2851,2287,2646
2855,2257,2647
2878,2266,2663
2878,2259,2647
2839,2233,2615
2855,2230,2623
2871,2246,2619
2863,2234,2611
2847,2215,2603
2862,2219,2604
2879,2219,2611
2862,2192,2591
2835,2179,2559
2848,2187,2559
2874,2192,2587
2864,2176,2559
2845,2142,2531
2857,2138,2537
2867,2129,2551
2855,2121,2529
2837,2096,2495
2845,2102,2502
2861,2113,2527
2850,2105,2514
2829,2082,2480
2845,2081,2478
2871,2083,2491
2861,2061,2479
2811,2035,2447
2821,2042,2455
2850,2054,2470
2837,2026,2445
2807,1999,2427
2817,1991,2433
2837,1999,2448
2823,1990,2427
2800,1967,2391
2811,1955,2384
2821,1964,2399
2796,1946,2386
2773,1918,2368
2788,1917,2369
2798,1911,2378
2774,1891,2352
2751,1878,2321
2758,1877,2331
2778,1877,2343
2753,1858,2322
2735,1834,2305
2749,1816,2304
2763,1823,2311
2742,1806,2295
2723,1775,2284
2731,1763,2288
2751,1765,2302
2729,1747,2281
2704,1716,2247
2726,1708,2258
2742,1705,2274
2733,1686,2266
2710,1674,2240
2708,1665,2256
2730,1665,2263
2718,1637,2235
2688,1601,2215
2677,1583,2210
2682,1598,2228
2680,1584,2226
2672,1557,2207
2674,1563,2199
2672,1569,2196
2647,1535,2176
2637,1532,2176
2666,1535,2202
2689,1530,2209
2654,1520,2161
2622,1482,2137
2621,1481,2154
2658,1498,2192
2652,1475,2177
2631,1431,2123
2593,1409,2119
2605,1424,2148
2622,1427,2160
2611,1403,2138
2603,1392,2127
2583,1379,2111
2541,1359,2068
2555,1345,2074
2631,1360,2151
2634,1377,2159
2559,1331,2085
2492,1267,2006
2480,1264,2009
2559,1313,2122
2602,1310,2130
2550,1261,2081
2532,1235,2061
2529,1229,2055
2503,1212,2031
2479,1179,2000
2485,1173,2023
2499,1178,2035
2480,1147,2000
2454,1104,1965
2450,1101,1984
2468,1109,2011
2450,1090,1987
2427,1050,1955
2426,1034,1955
2422,1034,1966
2405,1012,1950
2393,979,1928
2391,967,1925
2384,953,1920
2365,929,1893
2373,917,1901
2405,915,1936
2411,918,1955
2381,897,1919
2335,855,1879
2335,865,1891
2354,879,1904
2335,850,1885
2295,817,1855
2282,800,1847
2304,816,1861
2321,816,1889
2317,793,1871
2305,784,1866
2288,783,1851
2235,745,1797
2208,717,1753
2286,763,1850
2345,802,1924
2298,769,1871
2242,731,1811
2220,725,1803
2235,728,1807
2237,741,1802
2239,731,1808
2237,725,1822
2241,729,1803
2207,703,1775
2157,657,1728
2158,669,1748
2202,701,1802
2223,705,1811
2192,687,1739
2179,682,1778
2174,693,1764
2157,688,1757
2129,677,1726
2151,679,1707
2156,695,1789
2133,683,1684
2099,666,1679
2131,703,1762
2187,749,1863
2157,731,1777
2110,702,1747
2112,701,1710
2121,719,1756
2106,715,1712
2096,720,1695
2096,725,1715
2107,752,1729
2108,751,1779
2090,727,1707
2083,739,1743
2093,753,1733
2083,778,1751
2081,766,1728
2086,779,1719
2064,794,1702
2029,797,1693
2027,788,1718
2064,816,1694
2076,846,1746
2066,857,1728
2069,866,1743
2070,877,1744
2061,895,1731
2032,897,1725
2001,881,1653
2011,891,1698
2074,947,1765
2058,960,1757
2023,944,1731
2029,960,1712
2037,993,1743
2017,1009,1718
1975,989,1728
1989,1008,1662
2000,1062,1738
1986,1071,1680
1984,1073,1726
2002,1103,1724
2031,1136,1798
2007,1151,1744
1979,1147,1712
1968,1163,1710
1978,1200,1712
1985,1229,1702
1995,1229,1756
2023,1256,1788
2020,1281,1794
1984,1280,1695
1954,1291,1750
1987,1344,1747
2032,1391,1835
2006,1357,1777
1975,1344,1767
1981,1371,1733
1992,1423,1795
1986,1428,1775
1983,1429,1764
2006,1478,1785
2011,1505,1771
1985,1511,1767
1984,1522,1827
2003,1535,1827
2017,1584,1808
1994,1609,1792
1978,1611,1771
2002,1639,1794
2029,1655,1821
2019,1654,1876
1995,1654,1810
2000,1678,1809
2026,1712,1835
2027,1725,1833
2000,1735,1778
2003,1751,1850
2007,1786,1824
1989,1789,1793
1977,1780,1824
1990,1803,1861
2006,1843,1847
2003,1842,1858
1987,1831,1837
1981,1835,1821
1978,1861,1825
1965,1874,1829
1953,1875,1899
1974,1936,1829
1982,1937,1839
1954,1919,1807
1923,1904,1775
1930,1920,1793
1965,1968,1851
1951,1998,1822
1895,1931,1814
1887,1973,1762
1902,2023,1784
1843,1894,1712
1776,1795,1648
1770,1847,1648
1744,1872,1648
1694,1831,1627
1466,1648,4095
314,525,2815
0,0,1043
0,141,1818
0,0,3971
0,0,2611
0,0,77
0,0,0
0,0,1470
0,0,2112
0,0,4095
0,0,1249
0,0,827
0,0,1514
0,0,1926
0,0,1933
0,0,1884
0,0,1786
0,0,1780
0,0,1818
0,0,1827
0,0,1760
0,0,1871
0,0,1823
0,0,1830
0,172,1809
0,124,1855
0,221,1826
0,262,1826
0,240,1829
0,405,1835
0,651,1823
0,699,1827
0,864,1839
0,704,1852
0,786,1856
0,1041,1935
34,932,1983
155,1118,1981
125,1008,4095
0,0,4095
0,0,4095
0,0,4095
0,0,4095
0,0,4017
0,0,2371
0,0,1658
0,0,1629
0,0,1789
0,0,1867
0,0,1877
0,106,2436
0,654,2118
0,919,1439
0,982,1359
0,1014,1712
0,1213,1887
0,1535,1966
38,1787,1766
430,1778,1767
773,1913,1815
674,1776,1840
643,1884,1837
730,2125,1826
816,2167,1828
985,2625,1830
985,2417,1830
974,2160,1829
1007,2366,1831
1119,2607,1829
1223,2886,1831
1183,2737,2000
1179,2559,1808
1166,2704,1775
1225,2976,1718
1283,3101,2095
1278,2882,3295
1268,2775,2361
1340,2903,1722
1395,3123,1663
1315,3133,1789
1501,3120,1849
1653,3161,1846
1374,3305,1837
1342,3125,1829
1463,3353,1831
1639,3394,1828
1451,3233,1829
1328,3121,1834
1473,3376,1839
1507,3664,1834
1574,3755,1834
1535,3563,1831
1601,3425,1838
1686,3750,1834
1557,3558,1836
1502,3506,1833
1561,3635,1834
1664,3895,1835
1716,4091,1829
1678,3759,1834
1569,3675,1835
1588,3760,1840
1680,4091,1831
1669,3943,1834
1737,3789,1834
1712,4095,1831
1644,3953,1834
1674,3936,1834
1664,3885,1838
1730,3889,1920
1687,3760,1853
1732,4011,1837
1719,3920,1825
1691,4095,1905
1712,3916,1818
1709,3987,1754
1773,4060,1790
1827,4095,1912
1872,4095,1757
1731,3970,1715
1738,4045,1788
1730,4095,1840
1758,4095,1886
1902,4095,1706
1853,3946,1745
1771,3952,1776
1711,4095,1812
1734,4007,1759
1806,3989,1779
1859,4095,1807
1909,3978,1605
1873,4095,1661
1876,3869,1776
1791,3761,1765
1824,3766,1776
1999,3770,1690
1874,3856,1726
1918,3852,1823
1919,3929,1757
2112,4095,1677
2163,3836,1633
2014,3639,1557
1913,3530,1745
1940,3552,1759
2032,3701,1708
2080,3728,1712
2140,3583,1646
2128,3887,1658
2160,3750,1706
2158,3535,1682
2128,3529,1630
2169,3620,1631
2224,3664,1622
2262,3583,1624
2191,3648,1694
2295,3386,1712
2195,3558,1639
2271,3359,1611
2349,3479,1626
2480,3616,1584
2349,3438,1535
2135,3238,1746
2171,3306,1791
2243,3282,1721
2234,3397,1615
2274,3337,1653
2275,3279,1670
2201,3313,1649
2205,3184,1600
2269,3130,1619
2260,3190,1653
2273,3280,1664
2293,3263,1641
2326,3057,1535
2335,2998,1585
2286,3030,1717
2305,3037,1743
2359,3052,1729
2370,3113,1648
2358,3057,1622
2388,2978,1686
2467,3015,1639
2442,2957,1611
2356,2781,1687
2353,2825,1648
2464,2891,1696
2462,2849,1728
2499,2869,1688
2445,2839,1735
2538,2771,1724
2553,2762,1670
2495,2693,1600
2501,2690,1665
2559,2746,1744
2612,2718,1664
2455,2710,1597
2413,2605,1665
2511,2590,1776
2615,2610,1746
2607,2580,1607
2543,2559,1667
2542,2539,1745
2512,2526,1696
2517,2559,1668
2559,2559,1725
2641,2481,1731
2499,2383,1680
2462,2397,1631
2507,2359,1742
2618,2502,1798
2524,2475,1726
2481,2391,1621
2525,2411,1722
2592,2353,1776
2539,2263,1725
2554,2274,1692
2530,2381,1700
2498,2263,1776
2493,2371,1763
2493,2314,1719
2494,2255,1770
2480,2229,1767
2461,2158,1723
2533,2190,1723
2414,2285,1755
2437,2320,1745
2526,2221,1743
2541,2162,1776
2481,2113,1754
2492,2146,1791
2365,2318,1804
2529,2095,1746
2559,2080,1750
2423,2143,1743
2425,2022,1785
2522,2059,1701
2419,2087,1794
2416,2097,1920
2421,2194,1815
2403,1940,1696
2439,2170,1839
2416,1923,1849
2437,1922,1809
2438,1970,1744
2391,2095,1778
2413,2027,1811
2370,2010,1797
2412,1999,1782
2557,2102,1821
2442,1955,1823
2365,1877,1819
2374,1936,1731
2448,1933,1805
2351,1963,1829
2351,1851,1895
2270,1842,1856
2333,1858,1793
2364,1969,1803
2288,2038,1878
2288,1835,1903
2337,1788,1851
2301,1825,1771
2257,1827,1824
2364,2147,1826
2257,1729,1751
2265,1722,1811
2337,1842,1852
2175,1737,1808
2235,1744,1806
2255,1959,1859
2176,1681,1840
2240,1731,1808
2288,1744,1791
2161,1786,1869
2139,1883,1840
2127,1797,1744
2231,2017,1762
2189,1777,1886
2133,1603,1904
2103,1680,1824
2076,1830,1740
2106,1804,1808
2081,1664,1827
2080,1856,1823
2112,1921,1811
2138,1826,1805
2078,1648,1761
2054,1734,1822
2159,1746,1789
2110,1778,1745
2005,1821,1776
2070,1803,1791
2044,1817,1869
1945,1744,1835
1945,1751,1754
2027,1858,1809
1981,1713,1761
1997,1775,1831
1969,1787,1805
1969,1683,1762
1974,1774,1795
2062,1818,1839
2073,1925,1803
1936,1776,1778
1907,1727,1809
2003,1708,1829
1975,1609,1701
1938,1614,1738
2014,1780,1855
2078,1903,1744
1907,1810,1778
1870,1729,1808
1963,1722,1808
1998,1655,1878
1932,1697,1750
1858,1744,1730
1886,1855,1790
1936,1719,1825
1911,1776,1757
2032,1743,1734
1905,1669,1791
1866,1695,1873
1840,1710,1803
1853,1663,1733
1920,1717,1793
1975,1924,1846
1875,1731,1780
1790,1576,1690
1843,1621,1779
1904,1680,1815
1897,1752,1744
1889,1872,1739
1841,1795,1753
1899,1598,1761
1859,1723,1826
2019,1777,1791
1878,1639,1681
1826,1685,1812
1789,1718,1888
1783,1801,1823
1813,1735,1788
1830,1663,1779
1814,1727,1699
1836,1717,1753
1835,1657,1831
1809,1830,1819
1814,1711,1779
1894,1616,1697
1871,1621,1712
1810,1729,1819
1760,1719,1849
1797,1792,1824
1776,1648,1779
1792,1651,1783
1811,1763,1790
1750,1636,1795
1743,1639,1756
1817,1725,1830
1775,1888,1811
1738,1648,1749
1835,1559,1620
1825,1712,1842
1808,1670,1863
1642,1725,1786
1646,1725,1758
1728,1822,1751
1767,1715,1723
1673,1472,1746
1693,1684,1846
1808,1797,1835
1724,1644,1714
1686,1576,1740
1669,1877,1861
1660,1794,1805
1618,1573,1731
1657,1579,1747
1619,1718,1756
1591,1630,1840
1584,1663,1812
1589,1697,1712
1601,1699,1715
1591,1639,1757
1570,1732,1745
1553,1713,1766
1584,1643,1765
1504,1625,1802
1463,1591,1807
1482,1684,1747
1565,1648,1749
1525,1751,1818
1499,1648,1744
1565,1661,1698
1477,1757,1695
1360,1616,1854
1359,1451,1818
1436,1616,1776
1454,1699,1728
1445,1695,1777
1409,1651,1731
1431,1603,1739
1455,1759,1808
1450,1638,1805
1507,1570,1700
1427,1636,1716
1441,1783,1829
1424,1706,1788
1405,1581,1702
1418,1634,1706
1427,1815,1769
1472,1664,1808
1515,1664,1773
1431,1595,1635
1287,1642,1781
1325,1671,1862
1388,1690,1802
1489,1763,1755
1408,1791,1744
1310,1558,1735
1301,1675,1744
1402,1640,1675
1386,1655,1790
1376,1674,1842
1438,1774,1823
1381,1647,1713
1363,1587,1712
1419,1737,1779
1379,1762,1770
1362,1623,1725
1429,1590,1723
1378,1703,1774
1381,1589,1792
1414,1642,1784
1379,1648,1776
1417,1738,1733
1382,1673,1680
1323,1603,1723
1419,1817,1803
1445,1730,1817
1377,1530,1776
1385,1599,1712
1407,1680,1771
1414,1978,1771
1409,1645,1744
1456,1554,1771
1373,1631,1845
1423,1676,1799
1406,1641,1749
1392,1663,1766
1434,1693,1805
1412,1753,1776
1424,1765,1767
1443,1649,1729
1381,1582,1757
1387,1601,1799
1459,1745,1791
1427,1691,1741
1388,1525,1776
1392,1711,1813
1407,1600,1777
1391,1630,1726
1405,1726,1695
1444,1720,1773
1485,1845,1791
1471,1582,1712
1535,1662,1744
1426,1575,1814
1392,1725,1841
1363,1629,1773
1498,1804,1822
1510,1710,1785
1419,1600,1743
1413,1643,1774
1473,1701,1805
1504,1796,1808
1470,1569,1726
1472,1580,1735
1515,1712,1808
1509,1698,1818
1494,1684,1744
1573,1769,1822
1587,1692,1776
1499,1681,1748
1521,1535,1717
1555,1730,1776
1510,1673,1806
1502,1626,1799
1591,1693,1767
1579,1792,1781
1501,1772,1778
1512,1665,1818
1533,1666,1759
1535,1743,1739
1571,1629,1771
1535,1647,1791
1535,1782,1792
1660,1791,1830
1648,1662,1744
1581,1606,1813
1535,1637,1787
1569,1703,1712
1617,1648,1792
1680,1663,1767
1629,1937,1821
1600,1722,1775
1602,1560,1802
1575,1581,1767
1580,1629,1749
1607,1686,1755
1639,1639,1802
1648,1674,1810
1638,1710,1769
1675,1857,1809
1680,1596,1776
1604,1559,1727
1572,1717,1743
1606,1671,1776
1670,1583,1819
1699,1734,1831
1699,1667,1732
1674,1872,1790
1703,1709,1725
1584,1515,1750
1557,1585,1776
1611,1573,1731
1647,1630,1723
1709,1810,1840
1690,1734,1787
1645,1472,1667
1648,1520,1708
1712,1771,1776
1655,1705,1771
1626,1594,1714
1735,1558,1761
1807,1605,1737
1689,1645,1712
1646,1626,1711
1671,1745,1697
1641,1535,1712
1654,1596,1781
1694,1591,1754
1698,1523,1695
1722,1602,1698
1707,1681,1682
1648,1611,1689
1668,1431,1735
1715,1619,1737
1691,1635,1703
1743,1521,1681
1835,1474,1748
1797,1642,1699
1659,1757,1639
1590,1600,1695
1689,1535,1786
1759,1600,1808
1721,1514,1683
1676,1535,1616
1725,1675,1713
1771,1675,1779
1738,1621,1677
1687,1553,1686
1732,1587,1753
1783,1744,1768
1739,1677,1679
1696,1531,1671
1743,1652,1758
1775,1714,1779
1746,1602,1744
1755,1531,1713
1753,1861,1738
1687,1765,1763
1663,1488,1712
1679,1593,1700
1775,1771,1760
1775,1751,1776
1719,1565,1731
1718,1641,1723
1730,1769,1710
1759,1728,1732
1719,1722,1769
1721,1774,1776
1727,1711,1742
1744,1726,1759
1751,1686,1751
1775,1723,1762
1808,1725,1754
1728,1746,1721
1682,1771,1730
1651,1649,1725
1733,1744,1793
1774,1862,1830
1708,1712,1789
1713,1663,1729
1751,1718,1760
1736,1857,1809
1680,1799,1765
1714,1710,1718
1714,1760,1756
1713,1840,1792
1744,1858,1807
1775,1744,1712
1691,1678,1746
1707,1801,1825
1721,1874,1805
1712,1744,1755
1725,1744,1785
1740,1817,1767
1711,1843,1776
1729,1927,1793
1691,1685,1771
1719,1701,1829
1753,1842,1827
1758,1822,1802
1727,1773,1808
1731,1792,1818
1741,1820,1791
1790,1908,1824
1835,1889,1792
1776,1743,1766
1705,1783,1807
1763,1814,1799
1726,1875,1787
1717,1818,1838
1738,1822,1857
1767,1869,1817
1823,1807,1787
1788,1883,1811
1724,1845,1808
1749,1822,1805
1887,1958,1823
1776,1832,1822
1719,1820,1832
1728,1826,1786
1787,1815,1855
1784,1794,1849
1729,1808,1795
1742,1819,1823
1831,1935,1884
1849,1985,1847
1767,1856,1809
1738,1763,1786
1771,1897,1829
1846,1877,1840
1773,1853,1776
1744,1795,1790
1798,1843,1839
1859,1876,1858
1776,2074,1872
1707,1862,1792
1740,1802,1814
1787,1855,1860
1837,1887,1855
1819,1775,1815
1774,1883,1819
1767,1927,1825
1767,1884,1840
1777,2017,1806
1870,1797,1790
1869,1904,1898
1861,1991,1904
1808,1775,1794
1776,1904,1839
1786,1886,1877
1821,1886,1867
1787,1839,1803
1819,1964,1861
1836,1953,1874
1789,1793,1813
1773,1776,1802
1827,1877,1837
1831,1884,1823
1793,1921,1836
1799,1878,1826
1851,1868,1844
1856,1989,1872
1831,1967,1806
1744,1713,1765
1767,1786,1828
1840,1890,1856
1840,1911,1840
1770,1740,1809
1754,1922,1840
1840,2019,1895
1829,2016,1856
1790,1829,1798
1771,1766,1847
1797,1825,1840
1807,1901,1811
1795,1872,1819
1845,1873,1793
1811,1936,1850
1780,1969,1872
1803,1761,1744
1841,1791,1813
1829,1884,1860
1744,1963,1840
1751,1880,1826
1818,1870,1745
1840,1893,1890
1830,1906,1840
1790,1973,1841
1775,1825,1807
1776,1840,1777
1744,1840,1781
1799,1773,1814
1808,1883,1847
1788,1935,1867
1775,1930,1859
1825,1987,1941
1838,1827,1863
1865,1793,1808
1789,1855,1826
1725,1910,1847
1834,1964,1885
1794,1921,1872
1778,1785,1771
1733,1855,1777
1745,1894,1866
1792,1881,1919
1780,1899,1842
1749,1819,1809
1785,1815,1859
1840,1965,1925
1795,1985,1777
1831,1999,1869
1810,1862,1838
1744,1739,1856
1741,1789,1841
1821,1893,1839
1826,1930,1894
1808,1904,1901
1737,1840,1867
1740,1915,1790
1801,1979,1825
1818,1840,1874
1787,1791,1823
1767,1857,1809
1822,1919,1855
1886,1906,1867
1794,1892,1836
1743,1840,1815
1787,1936,1845
1819,1923,1856
1802,1872,1905
1802,1806,1864
1765,1851,1855
1789,1943,1881
1808,1917,1872
1798,1778,1904
1808,1943,1846
1798,1872,1871
1799,1895,1786
1863,1955,1792
1872,1826,1847
1792,1883,1854
1761,1883,1923
1772,1824,1869
1802,1906,1824
1825,1808,1795
1814,1756,1779
1826,1885,1887
1829,1929,1839
1833,1864,1841
1805,1908,1769
1776,1777,1735
1808,1851,1840
1836,1904,1939
1811,1846,1872
1781,1789,1771
1793,1904,1788
1779,1807,1913
1771,1846,1798
1808,1975,1856
1827,1920,1778
1826,1789,1775
1788,1679,1856
1783,1774,1824
1838,1867,1843
1859,1850,1857
1838,1863,1810
1841,1937,1808
1758,1904,1824
1798,1871,1925
1823,1805,1856
1805,1753,1854
1808,1839,1808
1827,1859,1725
1802,1794,1824
1753,1722,1833
1834,1855,1858
1859,1968,1833
1786,1808,1789
1819,1777,1840
1783,1873,1864
1794,1923,1878
1825,1854,1878
1856,1767,1743
1808,1791,1914
1793,1814,1934
1794,1869,1781
1823,1938,1745
1818,1790,1793
1845,1870,1810
1769,1850,1769
1797,1812,1769
1805,1792,1918
1793,1909,1865
1768,1856,1797
1803,1838,1861
1903,1935,1904
1840,1872,1837
1809,1772,1767
1802,1755,1777
1790,1813,1762
1783,1855,1824
1783,1867,1839
1856,1846,1855
1837,1808,1808
1815,1920,1878
1777,1866,1755
1809,1879,1807
1835,1891,1872
1802,1863,1887
1797,1755,1834
1828,1797,1799
1867,1831,1789
1855,1915,1847
1801,1855,1839
1835,1907,1826
1813,1853,1830
1750,1795,1834
1749,1760,1803
1807,1792,1802
1922,1905,1870
1811,1984,1808
1769,1872,1797
1785,1780,1783
1842,1863,1838
1858,1751,1790
1853,1773,1788
1767,1744,1815
1825,1863,1844
1875,1962,1796
1782,1903,1811
1739,1842,1815
1810,1845,1859
1888,1820,1766
1793,1766,1712
1762,1815,1763
1788,1829,1876
1825,1936,1858
1850,1872,1821
1840,1918,1798
1830,1847,1822
1827,1769,1817
1801,1861,1802
1783,1757,1776
1808,1838,1823
1859,1895,1849
1814,1835,1806
1783,1847,1794
1840,1786,1824
1878,1874,1822
1884,1910,1796
1858,1911,1787
1831,1858,1787
1830,1822,1872
1823,1893,1849
1848,1799,1776
1842,1901,1821
1873,1826,1920
1834,1785,1811
1827,1873,1801
1823,1907,1835
1825,1919,1881
1833,1877,1823
1840,1778,1781
1845,1855,1792
1845,1811,1876
1799,1808,1870
1797,1872,1840
1819,1899,1805
1853,1856,1835
1821,1859,1808
1840,1797,1791
1774,1838,1819
1904,1936,1846
1903,1776,1777
1898,1873,1793
1754,1821,1824
1808,1808,1859
1842,1881,1791
1864,1889,1792
1853,1917,1846
1844,1813,1840
1838,1837,1813
1840,1810,1783
1867,1879,1840
1827,1847,1833
1799,1744,1793
1861,1929,1771
1827,1895,1793
1778,1765,1807
1787,1793,1805
1822,1829,1786
1831,1830,1840
1845,1850,1806
1872,1856,1762
1818,1846,1792
1884,1893,1839
1846,1867,1860
1855,1953,1872
1838,1898,1775
1795,1725,1769
1809,1817,1823
1831,1817,1836
1831,1865,1801
1845,1907,1840
1875,1830,1840
1838,1841,1831
1806,1843,1811
1975,1919,1877
1920,1809,1776
1773,1831,1767
1794,1810,1783
1823,1839,1872
1862,1904,1904
1889,1915,1818
1811,1866,1838
1877,1792,1884
1861,1917,1863
1750,1824,1787
1877,1860,1802
1913,1836,1815
1809,1905,1855
1763,1861,1841
1792,1893,1851
1793,1858,1861
1826,1809,1856
1850,1813,1818
1808,1904,1775
1840,1829,1820
1838,1827,1895
1875,1875,1874
1958,1965,1872
1842,1809,1813
1840,1776,1838
1895,1818,1838
1817,1836,1810
1911,1829,1824
1849,1893,1757
1839,1856,1845
1787,1998,1898
1823,1887,1872
1833,1731,1828
1827,1701,1781
1824,1840,1823
1892,1970,1856
1923,1845,1828
1840,1788,1826
1840,1799,1830
1851,1883,1824
1793,1849,1813
1819,1806,1785
1833,1876,1803
1941,1807,1839
1820,1823,1840
1845,1840,1797
1807,1882,1822
1861,1847,1846
1840,1835,1856
1725,1791,1830
1766,1956,1813
1942,1859,1823
1906,1819,1851
1809,1810,1827
1809,1850,1809
1856,1903,1873
1887,1868,1831
1839,1808,1802
1818,1803,1808
1849,1911,1847
1883,1919,1883
1803,1877,1802
1838,1830,1799
1920,1837,1856
1906,1894,1861
1851,1899,1803
1826,1860,1798
1891,1831,1863
1869,1813,1899
1802,1855,1825
1804,1840,1798
1910,1808,1831
1790,1872,1843
1739,1881,1834
1810,1808,1809
1868,1887,1840
1847,1843,1856
1831,1872,1823
1872,1813,1814
1840,1865,1840
1924,1879,1867
1873,1791,1802
1839,1798,1779
1825,1845,1833
1837,1871,1859
1834,1889,1813
1855,1840,1807
1883,1821,1839
1870,1843,1840
1873,1811,1837
