1907,1963,1904
1847,1918,1811
1809,1741,1792
1851,1830,1842
1883,1859,1899
1858,1792,1855
1847,1837,1803
1893,1916,1849
1894,1937,1902
1838,1841,1849
1821,1839,1811
1879,1810,1825
1905,1808,1875
1847,1890,1847
1824,1879,1827
1846,1850,1871
1879,1866,1878
1849,1855,1809
1855,1806,1825
1889,1870,1882
1897,1914,1904
1867,1923,1853
1811,1941,1789
1866,1846,1866
1875,1860,1883
1835,1824,1839
1838,1834,1807
1878,1921,1861
1881,1869,1903
1857,1847,1845
1844,1820,1815
1872,1856,1853
1892,1870,1872
1862,1914,1851
1867,1923,1821
1878,1872,1839
1872,1867,1875
1836,1840,1833
1841,1821,1809
1879,1878,1875
1879,1867,1902
1859,1941,1838
1857,1902,1805
1876,1860,1841
1903,1840,1873
1867,1872,1831
1840,1859,1802
1869,1849,1827
1885,1909,1882
1869,1866,1847
1835,1863,1783
1881,1927,1834
1894,1881,1882
1859,1821,1794
1843,1776,1795
1927,1814,1858
1917,1966,1917
1823,1904,1823
1805,1808,1782
1871,1891,1872
1882,1872,1873
1856,1819,1827
1840,1821,1808
1872,1907,1843
1867,1899,1854
1833,1809,1805
1853,1810,1779
1893,1919,1872
1901,1923,1917
1862,1897,1829
1857,1955,1818
1883,1831,1842
1903,1749,1855
1845,1789,1807
1813,1795,1778
1843,1859,1833
1891,1909,1872
1877,1905,1856
1867,1879,1841
1873,1892,1854
1879,1842,1861
1840,1815,1794
1845,1866,1808
1879,1906,1859
1883,1841,1840
1856,1790,1802
1853,1790,1794
1902,1945,1853
1894,1959,1898
1841,1834,1817
1836,1799,1776
1853,1824,1832
1857,1893,1865
1856,1994,1872
1861,1904,1834
1872,1793,1834
1875,1808,1837
1862,1856,1831
1842,1891,1819
1890,1842,1838
1882,1840,1873
1855,1877,1841
1847,1866,1809
1901,1974,1861
1890,1917,1889
1841,1737,1803
1849,1815,1758
1873,1893,1829
1872,1904,1873
1871,1876,1861
1861,1901,1829
1862,1854,1838
1878,1814,1872
1856,1841,1849
1847,1859,1815
1872,1867,1840
1898,1886,1874
1873,1883,1836
1855,1872,1823
1882,1951,1859
1885,1937,1877
1855,1821,1821
1844,1829,1794
1881,1877,1840
1902,1946,1886
1871,1911,1842
1858,1863,1803
1887,1874,1828
1923,1902,1901
1901,1935,1840
1851,1968,1819
1879,1863,1866
1885,1885,1894
1854,1878,1834
1850,1771,1787
1886,1843,1828
1893,1905,1873
1863,1922,1837
1854,1841,1808
1898,1922,1853
1919,1991,1895
1873,1885,1845
1862,1732,1795
1885,1762,1834
1934,2022,1879
1867,1948,1835
1845,1824,1777
1899,1808,1852
1904,1857,1904
1874,1836,1854
1837,1830,1802
1875,1872,1842
1907,1891,1890
1859,1809,1839
1853,1834,1787
1911,1979,1872
1902,1890,1902
1843,1734,1812
1829,1765,1779
1861,1786,1823
1878,1859,1853
1871,1858,1840
1879,1846,1815
1903,1910,1872
1910,1925,1897
1874,1873,1837
1841,1765,1770
1892,1859,1815
1930,1978,1910
1872,1930,1860
1813,1776,1778
1856,1811,1850
1899,1898,1882
1879,1887,1833
1850,1802,1777
1872,1840,1842
1903,1867,1907
1872,1895,1871
1859,1885,1807
1887,1848,1840
1917,1862,1888
1872,1813,1839
1845,1899,1815
1891,2034,1856
1898,1839,1878
1855,1803,1840
1842,1821,1821
1875,1867,1859
1883,1903,1879
1846,1894,1823
1856,1915,1791
1901,1856,1840
1916,1846,1889
1860,1933,1854
1845,1820,1819
1890,1914,1850
1889,1886,1885
1842,1842,1830
1840,1873,1800
1886,1852,1840
1919,1893,1887
1893,1855,1860
1849,1840,1790
1847,1823,1824
1884,1807,1862
1872,1876,1854
1863,1849,1808
1879,1968,1846
1905,1945,1902
1869,1863,1866
1856,1792,1808
1887,1836,1841
1896,1901,1893
1865,1884,1859
1855,1904,1824
1895,1921,1848
1904,1808,1872
1879,1860,1833
1856,1854,1802
1891,1922,1846
1936,1922,1889
1923,2029,1907
1830,1775,1770
1837,1712,1817
1873,1813,1879
1866,1831,1858
1871,1858,1831
1879,1882,1867
1904,1900,1916
1868,1871,1882
1839,1789,1791
1885,1818,1840
1909,1859,1904
1873,1857,1865
1855,1903,1826
1893,1957,1850
1920,1933,1898
1887,1810,1870
1859,1808,1839
1872,1798,1850
1899,1893,1873
1879,1948,1847
1847,1859,1823
1902,1877,1867
1923,1887,1910
1867,1822,1823
1863,1863,1790
1917,1833,1827
1889,1828,1874
1857,1803,1861
1840,1825,1839
1871,1907,1866
1898,1925,1904
1883,1859,1872
1857,1696,1808
1858,1866,1819
1894,1905,1899
1886,1936,1862
1883,1951,1867
1874,1763,1840
1877,1744,1870
1866,1838,1847
1851,1814,1830
1887,1858,1856
1925,1975,1913
1901,1937,1879
1857,1826,1819
1902,1834,1846
1909,1902,1904
1841,1872,1836
1847,1868,1823
1863,1905,1840
1894,1850,1857
1867,1846,1849
1850,1872,1821
1919,1957,1886
1934,2015,1931
1888,1897,1861
1839,1786,1789
1872,1796,1837
1890,1846,1889
1867,1819,1826
1840,1850,1792
1869,1863,1840
1904,1938,1905
1885,1863,1862
1858,1946,1838
1893,1982,1857
1891,1873,1867
1847,1733,1828
1845,1778,1830
1862,1897,1840
1895,1903,1879
1881,1875,1856
1829,1797,1805
1879,1828,1846
1901,1940,1901
1859,1882,1838
1848,1914,1829
1894,1934,1868
1916,1995,1923
1842,1757,1807
1819,1749,1776
1872,1819,1836
1905,1932,1882
1895,1803,1834
1841,1838,1799
1856,1877,1858
1878,1877,1893
1854,1878,1843
1853,1861,1821
1889,1883,1872
1907,2034,1920
1854,1901,1850
1840,1791,1799
1872,1790,1835
1898,1854,1891
1866,1872,1856
1853,1866,1818
1893,1890,1851
1901,1904,1903
1862,1892,1866
1856,1883,1821
1901,1925,1858
1903,1939,1893
1840,1893,1846
1838,1899,1823
1873,1935,1849
1887,1872,1866
1861,1799,1825
1841,1804,1825
1878,1867,1872
1901,1954,1911
1870,1899,1856
1852,1879,1804
1856,1856,1827
1904,1907,1861
1885,1840,1822
1849,1872,1821
1876,1923,1885
1906,1897,1890
1875,1813,1840
1827,1791,1759
1856,1840,1825
1906,1840,1899
1879,1913,1873
1838,1936,1837
1857,1946,1866
1898,1955,1903
1863,1917,1872
1855,1875,1827
1882,1843,1843
1879,1746,1857
1846,1765,1827
1837,1822,1807
1871,1858,1835
1899,1883,1895
1877,1893,1883
1854,1879,1810
1868,1882,1823
1887,1894,1878
1874,1921,1849
1868,1955,1831
1903,1967,1870
1887,1791,1857
1856,1756,1811
1853,1831,1791
1875,1903,1841
1907,1936,1883
1863,1916,1834
1856,1845,1811
1867,1788,1819
1893,1905,1897
1883,1875,1855
1858,1875,1799
1849,1837,1813
1894,1842,1872
1872,1872,1851
1833,1869,1802
1871,1903,1867
1904,1962,1925
1857,1808,1847
1840,1808,1795
1856,1825,1814
1886,1826,1876
1872,1875,1861
1840,1863,1794
1868,1923,1834
1890,1978,1889
1861,1909,1843
1840,1824,1782
1865,1818,1824
1879,1870,1864
1856,1924,1846
1839,1819,1811
1857,1828,1822
1893,1857,1859
1849,1830,1839
1833,1853,1819
1871,1911,1855
1890,1936,1898
1874,1916,1861
1840,1799,1806
1857,1881,1840
1887,1867,1876
1877,1867,1875
1839,1825,1808
1851,1833,1834
1888,1897,1893
1883,1875,1872
1859,1858,1811
1870,1909,1836
1891,1966,1863
1865,1885,1849
1837,1766,1817
1869,1808,1847
1898,1844,1873
1882,1888,1857
1854,1875,1821
1872,1808,1847
1899,1936,1881
1870,1908,1847
1827,1853,1792
1854,1870,1819
1895,1893,1874
1875,1875,1857
1859,1893,1814
1889,1932,1840
1899,1868,1872
1859,1823,1838
1837,1788,1792
1872,1872,1835
1903,1891,1887
1870,1894,1834
1840,1808,1776
1872,1809,1833
1898,1882,1899
1863,1911,1847
1854,1904,1776
1881,1877,1791
1925,1889,1873
1920,1939,1885
1853,1870,1833
1846,1781,1859
1866,1936,1897
1841,1839,1803
1813,1767,1761
1867,1822,1838
1895,1878,1870
1885,1878,1846
1856,1858,1809
1881,1888,1863
1919,1950,1925
1884,1919,1871
1851,1842,1814
1877,1853,1850
1904,1871,1900
1891,1919,1840
1865,1910,1814
1870,1792,1824
1887,1826,1868
1857,1822,1840
1846,1809,1798
1883,1871,1841
1917,1889,1887
1874,1909,1868
1843,1904,1829
1872,1879,1860
1913,1900,1900
1869,1872,1849
1841,1852,1814
1877,1866,1864
1893,1867,1885
1882,1858,1855
1865,1815,1805
1882,1903,1842
1901,1886,1879
1893,1863,1870
1871,1842,1822
1897,1911,1854
1900,1900,1885
1869,1873,1874
1875,1906,1849
1887,1904,1872
1893,1909,1888
1860,1826,1845
1834,1857,1808
1889,1856,1846
1909,1827,1890
1888,1840,1883
1861,1935,1841
1901,1918,1845
1929,1865,1887
1904,1830,1850
1872,1838,1808
1881,1936,1869
1888,1907,1904
1870,1847,1878
1865,1859,1821
1891,1947,1856
1917,1854,1898
1903,1875,1891
1872,1929,1838
1878,1863,1821
1882,1803,1857
1872,1841,1860
1872,1850,1822
1898,1879,1856
1929,1969,1916
1871,1910,1860
1851,1862,1788
1904,1872,1834
1932,1866,1871
1877,1840,1840
1835,1846,1829
1861,1881,1851
1901,1933,1904
1895,1867,1874
1869,1869,1805
1899,1968,1835
1906,1905,1887
1872,1861,1855
1858,1792,1822
1888,1850,1855
1902,1863,1901
1889,1855,1869
1870,1854,1816
1894,1885,1857
1926,1915,1914
1905,1890,1870
1872,1869,1821
1894,1883,1847
1920,1899,1896
1913,1898,1877
1893,1861,1835
1911,1871,1857
1929,1893,1901
1904,1872,1866
1875,1858,1825
1924,1879,1873
1948,1899,1919
1925,1877,1888
1886,1840,1831
1887,1834,1840
1910,1856,1897
1907,1851,1887
1881,1808,1843
1900,1824,1872
1965,1872,1946
1966,1861,1923
1877,1793,1817
1878,1778,1846
1911,1798,1904
1905,1790,1885
1905,1771,1855
1929,1775,1890
1941,1787,1924
1915,1753,1881
1903,1732,1851
1938,1755,1889
1973,1762,1950
1963,1744,1917
1967,1744,1893
2014,1748,1916
2042,1745,1969
2015,1723,1939
2011,1727,1885
2110,1779,1947
2140,1758,1910
2013,1599,1885
1983,1554,1843
2055,1613,1907
2126,1677,1973
2116,1686,1968
2106,1683,1872
2145,1694,1891
2176,1711,1953
2167,1681,1931
2153,1665,1872
2186,1684,1910
2233,1726,1969
2218,1713,1935
2182,1697,1879
2219,1707,1909
2251,1730,1958
2199,1681,1894
2181,1675,1841
2224,1710,1878
2262,1731,1945
2227,1702,1903
2225,1692,1876
2337,1771,1969
2333,1776,1991
2173,1669,1870
2143,1648,1798
2237,1694,1869
2310,1762,1959
2267,1759,1918
2192,1680,1831
2239,1712,1883
2272,1744,1936
2224,1715,1878
2191,1713,1841
2237,1754,1886
2287,1783,1951
2256,1775,1903
2210,1750,1840
2203,1757,1856
2240,1789,1900
2241,1808,1879
2219,1786,1838
2254,1808,1873
2301,1857,1938
2329,1895,1954
2270,1868,1887
2207,1834,1837
2224,1872,1882
2219,1882,1887
2208,1887,1851
2234,1906,1853
2275,1955,1906
2241,1947,1872
2214,1950,1835
2247,1974,1859
2267,2007,1893
2245,2018,1877
2215,2032,1840
2230,2063,1827
2254,2096,1815
2246,2102,1771
2223,2100,1726
2240,2130,1742
2257,2177,1772
2240,2210,1732
2211,2215,1666
2230,2254,1671
2269,2297,1725
2247,2304,1682
2208,2305,1643
2228,2320,1654
2238,2333,1667
2235,2351,1670
2175,2331,1631
2222,2355,1645
2223,2385,1714
2183,2383,1662
2183,2349,1588
2187,2374,1625
2303,2407,1689
2255,2388,1638
2223,2350,1579
2186,2367,1616
2215,2391,1680
2229,2384,1648
2211,2353,1584
2191,2352,1595
2243,2384,1665
2211,2384,1658
2165,2350,1598
2185,2341,1616
2205,2358,1664
2183,2352,1657
2146,2334,1606
2147,2325,1635
2166,2327,1696
2176,2319,1670
2143,2293,1638
2122,2302,1666
2177,2337,1691
2151,2311,1650
2114,2288,1622
2124,2285,1653
2137,2294,1685
2118,2277,1670
2094,2256,1633
2145,2263,1671
2147,2277,1717
2121,2271,1701
2076,2240,1641
2093,2247,1669
2119,2262,1712
2096,2247,1690
2032,2225,1654
2065,2237,1680
2071,2245,1718
2099,2227,1721
2074,2226,1680
2071,2230,1691
2110,2241,1738
2031,2224,1718
2025,2199,1677
2059,2215,1698
2071,2245,1747
2035,2239,1730
2030,2206,1681
1999,2221,1715
2070,2251,1790
2020,2231,1759
2007,2224,1702
2078,2245,1693
2059,2230,1760
2035,2197,1735
1966,2192,1707
1949,2171,1758
1937,2185,1808
2017,2177,1746
1986,2160,1728
1975,2193,1803
1990,2245,1830
2001,2133,1741
1961,2084,1693
1990,2125,1739
1973,2177,1809
1999,2150,1773
1904,2128,1743
1935,2133,1790
1968,2039,1760
1949,2001,1741
1943,2032,1710
1930,2138,1773
1953,2190,1855
1947,2058,1842
1913,2000,1728
1846,1877,1690
1948,1824,1765
1927,1908,1758
1863,1983,1735
1935,1979,1794
1915,1941,1858
1907,1911,1811
1895,1869,1746
1898,1962,1761
1923,1937,1813
1924,1889,1819
1873,1798,1774
1951,1840,1820
1899,1849,1869
1861,1808,1831
1843,1807,1799
1883,1867,1811
1907,1854,1867
1891,2000,1868
1840,1754,1777
1843,1604,1791
1890,1680,1853
1877,1749,1849
1849,1750,1802
1843,1762,1846
1919,1771,1872
1819,1762,1844
1865,1815,1827
1881,1844,1866
1889,1638,1855
1870,1602,1809
1801,1633,1791
1842,1675,1850
1966,1744,1917
1933,1775,1901
1894,1616,1792
1826,1587,1792
1796,1725,1951
1883,1671,1950
1810,1623,1895
1766,1535,1855
1827,1604,1933
1837,1626,1925
1789,1535,1861
1830,1535,1935
1819,1597,1986
1847,1533,1932
1747,1452,1832
1824,1471,1902
1872,1569,1986
1873,1514,1975
1797,1435,1889
1830,1371,1904
1840,1453,2028
1834,1501,1996
1757,1488,1904
1779,1291,1935
1787,1157,1983
1773,1294,1984
1677,1366,1919
1776,1534,1962
1776,1426,1970
1751,1158,1950
1727,1207,1914
1745,1308,1940
1798,1311,1971
1753,1255,1925
1658,1197,1923
1685,1235,1953
1761,1290,2011
1703,1306,2001
1651,1251,1904
1595,1185,1890
1685,1181,1964
1733,1206,1946
1643,1174,1900
1645,1251,1919
1680,1264,1970
1646,1231,1936
1600,1203,1860
1632,1169,1910
1665,1217,1977
1661,1319,1994
1606,1227,1945
1599,1201,1911
1626,1149,1898
1616,1203,1942
1590,1278,1929
1584,1321,1925
1597,1257,1920
1586,1222,1934
1563,1227,1904
1600,1280,1929
1629,1369,1967
1602,1366,1970
1563,1344,1894
1572,1206,1927
1603,1234,1957
1593,1225,1901
1535,1284,1872
1570,1329,1929
1603,1456,1998
1589,1343,1957
1553,1270,1886
1563,1327,1904
1618,1407,1978
1586,1448,1983
1565,1424,1927
1577,1347,1903
1584,1282,1939
1535,1339,1931
1526,1392,1899
1575,1443,1927
1601,1399,1973
1564,1392,1920
1535,1433,1873
1568,1463,1886
1614,1494,1972
1594,1459,1947
1555,1423,1856
1570,1440,1878
1616,1483,1974
1596,1358,1950
1554,1451,1873
1587,1489,1904
1610,1535,1969
1580,1554,1942
1535,1483,1872
1577,1405,1885
1602,1514,1923
1615,1469,1938
1576,1494,1894
1591,1582,1902
1616,1520,1936
1599,1467,1920
1578,1511,1873
1603,1638,1885
1637,1606,1941
1616,1564,1933
1600,1571,1866
1608,1535,1873
1623,1619,1921
1623,1533,1922
1614,1559,1859
1625,1657,1906
1650,1625,1974
1639,1530,1923
1604,1535,1858
1634,1706,1904
1663,1749,1953
1631,1682,1920
1584,1535,1841
1616,1584,1867
1659,1682,1909
1649,1744,1931
1634,1776,1904
1653,1662,1903
1680,1625,1938
1664,1707,1906
1623,1703,1827
1664,1653,1871
1681,1794,1934
1664,1690,1907
1637,1619,1842
1651,1694,1840
1710,1774,1904
1685,1811,1936
1666,1859,1881
1667,1781,1904
1694,1684,1934
1673,1727,1904
1635,1770,1856
1665,1727,1857
1713,1767,1920
1703,1776,1899
1670,1791,1841
1683,1902,1872
1717,1808,1920
1722,1728,1899
1683,1808,1861
1682,1792,1871
1734,1824,1932
1719,1792,1876
1675,1797,1827
1693,1911,1847
1712,1808,1879
1682,1749,1910
1685,1723,1863
1711,1831,1872
1755,1884,1931
1741,1856,1896
1694,1897,1843
1719,1861,1867
1734,1837,1897
1717,1792,1862
1702,1871,1825
1745,1913,1876
1778,1920,1918
1758,1886,1887
1701,1855,1806
1731,1872,1857
1779,1907,1927
1742,1879,1890
1714,1881,1833
1744,1936,1840
1775,1861,1874
1746,1918,1867
1727,1878,1809
1759,1891,1856
1787,1923,1927
1756,1959,1902
1710,1871,1802
1758,1888,1841
1806,1949,1898
1744,1894,1874
1727,1920,1827
1753,2003,1846
1762,1879,1870
1765,1902,1872
1748,1913,1840
1773,1886,1862
1789,1952,1885
1777,2028,1840
1744,1905,1806
1754,1843,1840
1787,1987,1895
1782,1963,1874
1747,1922,1808
1791,2022,1856
1811,2030,1902
1776,1855,1859
1744,1901,1798
1791,1905,1817
1826,2070,1887
1808,1906,1877
1775,1811,1791
1722,1856,1785
1776,2032,1875
1793,2002,1907
1771,1923,1821
1777,2010,1809
1793,1919,1843
1797,1958,1870
1776,1930,1840
1792,1953,1814
1815,1981,1856
1814,1914,1858
1767,1979,1799
1795,1934,1810
1808,1993,1858
1808,1980,1856
1777,1920,1791
1805,2046,1851
1824,1914,1863
1787,1901,1825
1753,1907,1776
1827,1898,1837
1845,2027,1908
1810,2054,1873
1744,1936,1799
1776,1956,1745
1818,2001,1894
1825,1999,1894
1767,1930,1807
1797,2138,1783
1823,1958,1887
1803,1844,1863
1775,1895,1820
1791,1953,1764
1833,2029,1858
1821,1964,1811
1815,1984,1850
1809,2027,1824
1803,1961,1823
1819,1905,1775
1790,1936,1809
1795,1967,1803
1829,1988,1880
1815,1993,1858
1785,1962,1771
1792,1922,1764
1827,2007,1860
1833,2107,1883
1786,1902,1813
1799,1977,1814
1840,2032,1866
1840,1985,1856
1796,1972,1791
1813,1967,1837
1858,1990,1827
1839,1938,1825
1808,1922,1776
1818,1950,1831
1877,2071,1885
1842,2071,1845
1786,1914,1763
1815,1905,1782
1859,2016,1858
1869,2005,1862
1827,1983,1776
1834,2038,1854
1857,2000,1881
1823,1881,1829
1797,1973,1813
1813,1985,1827
1866,1985,1865
1862,2027,1861
1814,2016,1792
1842,1970,1817
1863,1914,1843
1851,1985,1853
1813,2011,1810
1847,2016,1820
1898,2083,1865
1868,1955,1857
1799,1830,1698
1831,1959,1794
1891,2069,1861
1886,1959,1871
1818,1875,1771
1835,1929,1826
1867,2091,1887
1872,2072,1858
1838,1927,1808
1856,1921,1802
1869,1914,1845
1862,1961,1862
1847,1948,1808
1865,1904,1824
1877,2038,1842
1859,2015,1836
1840,1987,1799
1870,2032,1842
1890,1979,1865
1872,1966,1884
1857,1917,1790
1853,1906,1791
1899,1955,1873
1878,2110,1887
1836,1890,1799
1846,1916,1799
1889,2000,1865
1891,2001,1863
1869,2019,1822
1867,2030,1843
1899,2128,1904
1883,2039,1873
1822,1919,1803
1853,1936,1835
1904,1987,1893
1892,2146,1894
1835,2071,1751
1850,1957,1801
1897,1974,1857
1899,2071,1805
1857,2064,1819
1868,2011,1807
1889,1997,1819
1872,1972,1849
1867,1951,1808
1871,2022,1809
1887,1968,1870
1887,1968,1854
1861,2003,1770
1839,1991,1793
1886,2054,1911
1895,2073,1871
1840,2009,1759
1859,1951,1804
1877,1997,1892
1861,2035,1869
1859,1989,1847
1862,1958,1851
1882,1981,1855
1877,1991,1856
1847,2017,1799
1856,1987,1799
1902,2080,1843
1916,1985,1872
1861,1935,1802
1883,2064,1834
1886,1977,1842
1883,1981,1861
1853,1959,1821
1872,1962,1822
1926,2064,1867
1879,2093,1865
1837,2034,1839
1854,2015,1825
1904,2015,1862
1890,2095,1819
1859,2077,1807
1873,1957,1835
1897,1969,1889
1884,1991,1857
1869,1955,1801
1879,2029,1819
1910,1973,1862
1885,1962,1862
1863,1968,1803
1883,2035,1830
1909,2065,1873
1905,2106,1866
1857,1895,1783
1858,1855,1811
1910,1975,1881
1925,2063,1907
1855,2026,1788
1867,1999,1831
1906,1995,1866
1899,1997,1909
1861,1984,1808
1875,1977,1835
1917,1981,1895
1909,1997,1861
1882,2022,1840
1887,1936,1819
1913,1977,1863
1897,1949,1861
1858,1957,1829
1888,1951,1817
1935,2113,1910
1910,2067,1855
1861,1873,1823
1883,1885,1761
1930,1941,1892
1915,2026,1835
1870,1895,1775
1875,1893,1798
1921,1979,1872
1911,1997,1885
1875,1968,1814
1912,1931,1824
1947,1951,1862
1889,2018,1869
1854,1983,1834
1869,1968,1845
1915,2010,1872
1900,2000,1872
1862,1907,1808
1879,1913,1805
1915,1947,1872
1905,1967,1872
1867,1950,1811
1882,1954,1834
1904,1968,1883
1900,2090,1860
1867,1917,1808
1887,1872,1821
1920,1915,1853
1910,2000,1929
1863,1950,1781
1882,1904,1808
1920,1973,1847
1922,1959,1871
1871,1907,1851
1911,1936,1803
1911,1937,1901
1899,1971,1981
1850,1905,1829
1872,1919,1845
1921,1939,1884
1910,1931,1829
1881,1942,1807
1906,1966,1855
1925,1996,1904
1915,1999,1888
1872,1934,1813
1872,1822,1813
1917,1837,1872
1917,1931,1895
1889,2005,1808
1886,1914,1810
1914,1918,1835
1909,1863,1917
1878,1872,1822
1891,1936,1801
1925,1949,1851
1925,1969,1942
1894,1979,1808
1873,1839,1785
1904,1818,1807
1925,1827,1853
1885,1867,1810
1877,1929,1851
1917,1936,1896
1911,1936,1914
1872,1883,1850
1898,1950,1802
1931,1981,1881
1906,1879,1841
1879,1871,1883
1887,1847,1830
1918,1904,1889
1918,1940,1940
1881,1827,1799
1899,1850,1819
1931,1913,1856
1931,1919,1911
1895,1891,1823
1894,1856,1869
1931,1909,1894
1935,1999,1931
1889,1745,1826
1901,1799,1831
1930,1955,1863
1923,1834,1903
1893,1841,1831
1885,1869,1818
1930,1883,1866
1950,1945,1933
1901,1935,1822
1889,1869,1840
1911,1851,1863
1917,1821,1851
1902,1863,1823
1914,2027,1855
1920,1843,1893
1904,1761,1934
1891,1789,1808
1905,1887,1827
1929,1901,1936
1920,1909,1872
1904,1870,1834
1939,1913,1887
1936,1856,1872
1925,1854,1859
1898,1838,1808
1910,1849,1806
1936,1845,1876
1933,1902,1915
1908,1840,1850
1891,1798,1798
1915,1831,1863
1931,1883,1914
1904,1904,1844
1904,1867,1826
1933,1878,1867
1933,1854,1888
1909,1869,1830
1910,1911,1841
1936,1788,1843
1929,1805,1870
1893,1850,1840
1904,1872,1808
1934,1844,1862
1921,1835,1888
1917,1869,1872
1921,1890,1845
1909,1787,1841
1901,1777,1859
1892,1794,1814
1906,1861,1818
1936,1925,1876
1936,1856,1879
1880,1808,1822
1891,1828,1799
1934,1963,1921
1936,1856,1913
1886,1748,1807
1884,1743,1794
1916,1857,1856
1914,1843,1901
1892,1795,1781
1891,1859,1776
1926,1878,1849
1925,1846,1853
1909,1873,1832
1909,1887,1809
1947,1811,1858
1913,1789,1840
1879,1794,1794
1918,1872,1857
1937,1943,1878
1904,1789,1865
1867,1739,1799
1907,1888,1808
1941,1852,1865
1930,1819,1867
1882,1814,1822
1913,2017,1825
1924,1835,1823
1890,1744,1812
1887,1788,1795
1906,1798,1786
1931,1872,1917
1921,1883,1840
1892,1893,1849
1906,1878,1819
1925,1827,1889
1936,1874,1876
1888,1916,1823
1881,1757,1774
1935,1823,1870
1924,1881,1869
1865,1751,1813
1866,1798,1834
1910,1878,1894
1914,1903,1866
1873,1862,1814
1899,1897,1834
1913,1795,1872
1904,1757,1878
1870,1859,1827
1878,1953,1838
1914,1851,1882
1922,1818,1863
1882,1773,1818
1877,1767,1788
1901,1861,1872
1908,1937,1904
1872,1839,1856
1887,1856,1835
1915,1862,1873
1903,1783,1876
1872,1738,1771
1875,1842,1767
1911,1903,1870
1920,1907,1922
1875,1857,1811
1899,1723,1858
1907,1759,1903
1893,1857,1887
1872,1826,1808
1874,1854,1862
1927,1906,1872
1905,1911,1872
1868,1843,1741
1878,1813,1847
1910,1783,1856
1895,1747,1883
1856,1808,1824
1874,1837,1827
1914,1891,1899
1907,1885,1883
1873,1783,1824
1890,1840,1825
1916,1843,1863
1904,1885,1877
1863,1846,1784
1879,1814,1850
1923,1818,1860
1929,1826,1930
1892,1834,1908
1891,1893,1840
1919,1843,1855
1918,1903,1862
1875,1826,1834
1882,1808,1810
1907,1865,1879
1915,1904,1870
1870,1819,1779
1881,1838,1824
1914,1850,1842
1930,1950,1872
1904,1860,1866
1890,1783,1843
1923,1828,1881
1915,1874,1918
1869,1815,1824
1901,1845,1875
1943,2000,1876
1907,1838,1878
1867,1818,1805
1887,1766,1818
1921,1803,1882
1915,1808,1901
1898,1897,1856
1904,1895,1851
1917,1840,1850
1922,1842,1873
1887,1807,1848
1906,1841,1808
1930,1862,1874
1902,1891,1900
1889,1911,1840
1891,1856,1744
1914,1851,1923
1917,1891,1855
1903,1877,1855
1877,1808,1793
1904,1824,1840
1914,1860,1875
1901,1873,1840
1889,1837,1869
1907,1828,1870
1925,1923,1843
1904,1903,1890
1889,1811,1807
1904,1809,1812
1925,1808,1899
1889,1792,1801
1883,1818,1799
1919,1837,1872
1919,1855,1883
1887,1861,1809
1887,1834,1819
1918,1846,1892
1925,1897,1913
1883,1895,1820
1889,1866,1805
1918,1917,1863
1925,1936,1892
1893,1875,1819
1858,1729,1776
1898,1781,1835
1910,1881,1871
1901,1811,1846
1888,1815,1837
1899,1872,1859
1906,1917,1873
1873,1913,1818
1869,1811,1819
1904,1766,1872
1901,1826,1861
1863,1818,1833
1883,1821,1824
1903,1913,1862
1915,1918,1870
1874,1785,1799
1863,1749,1795
1901,1827,1851
1923,1862,1890
1873,1837,1825
1858,1827,1801
1883,1871,1840
1899,1925,1878
1882,1924,1845
1875,1897,1825
1903,1840,1842
1875,1775,1840
1856,1757,1808
1831,1808,1808
1879,1813,1854
1900,1889,1875
1840,1847,1811
1872,1819,1798
1859,1883,1840
1887,1857,1871
1836,1770,1802
1821,1807,1789
1871,1839,1857
1891,1842,1901
1875,1840,1827
1861,1843,1824
1895,1890,1859
1920,1937,1885
1851,1795,1793
1867,1776,1769
1947,1829,1867
1899,1857,1886
1859,1856,1818
1874,1971,1839
1906,1947,1875
1900,1776,1863
1846,1727,1810
1866,1849,1806
1911,1863,1851
1903,1906,1890
1898,1905,1845
1843,1874,1813
1855,1778,1833
1840,1831,1835
1887,1854,1785
1883,1841,1809
1921,1926,1889
1902,1835,1875
1837,1791,1786
1856,1793,1789
1893,1834,1836
1885,1865,1878
1827,1863,1822
1856,1848,1824
1899,1899,1865
1923,1889,1872
1809,1869,1821
1847,1891,1843
1894,1954,1873
1895,1934,1875
1847,1834,1808
1849,1794,1782
1874,1808,1858
1929,1801,1870
1874,1821,1810
1872,1823,1794
1873,1891,1869
1904,1925,1872
1878,1887,1839
1863,1855,1808
1872,1865,1834
1904,1923,1893
1854,1870,1827
1835,1789,1788
1859,1803,1836
1856,1863,1867
1877,1841,1841
1850,1814,1821
1889,1869,1870
1898,1889,1887
1863,1841,1819
1843,1834,1797
1919,1894,1856
1886,1885,1874
1885,1884,1843
1903,1984,1861
1857,1938,1868
1905,1743,1841
1819,1781,1794
1899,1779,1796
1840,1840,1847
1901,1860,1875
1840,1839,1855
1851,1843,1840
1930,1888,1882
1871,1895,1881
1892,2026,1854
1852,1874,1809
1879,1712,1808
1904,1786,1856
1856,1794,1823
1862,1856,1822
1869,1873,1860
1882,1871,1872
1842,1878,1819
1856,1851,1808
1904,1872,1822
1883,1877,1840
1840,1877,1826
1850,1962,1837
1883,1890,1886
1873,1791,1863
1840,1783,1809
1843,1781,1771
1879,1882,1847
1888,1813,1872
1855,1846,1826
1903,1874,1826
1869,1937,1872
1793,1860,1862
1823,1762,1809
1791,1799,1782
1854,1842,1855
1886,1824,1863
1840,1791,1808
1830,1776,1792
1872,1840,1849
1904,1902,1883
1872,1890,1847
1825,1763,1777
1846,1805,1826
1885,1904,1858
1841,1814,1821
1791,1837,1811
1858,1889,1858
1832,1881,1849
1841,1787,1828
1818,1826,1814
1879,1871,1845
1930,1811,1853
1846,1790,1808
1839,1800,1790
1863,1875,1857
1895,1863,1891
1853,1808,1808
1833,1850,1792
1891,1872,1843
1915,1815,1882
1861,1834,1839
1850,1808,1824
1871,1824,1845
1866,1814,1843
1815,1822,1803
1841,1815,1794
1837,1876,1872
1906,1963,1908
1844,1854,1825
1827,1712,1778
1872,1779,1840
