2147,1797,1879
2179,1802,1904
2194,1839,1938
2174,1818,1906
2158,1819,1867
2189,1840,1904
2209,1853,1943
2175,1856,1919
2160,1843,1879
2197,1859,1919
2218,1876,1941
2187,1883,1919
2173,1865,1877
2206,1885,1913
2218,1914,1954
2197,1919,1927
2165,1851,1879
2192,1898,1904
2214,1911,1939
2191,1939,1910
2176,1905,1883
2207,1936,1923
2225,1963,1943
2204,1989,1895
2183,1915,1825
2194,1962,1826
2222,1970,1853
2204,1963,1825
2189,1885,1781
2219,1937,1801
2235,2080,1830
2217,1999,1792
2193,1988,1735
2211,2019,1763
2234,2019,1814
2195,2018,1793
2180,1997,1744
2203,2055,1763
2231,1997,1792
2192,2087,1759
2161,2027,1718
2203,2065,1755
2210,2047,1777
2189,2039,1751
2154,2041,1712
2174,2037,1732
2191,2069,1736
2183,2064,1749
2160,2087,1774
2164,2043,1743
2169,2016,1767
2149,2011,1747
2127,2035,1687
2134,2029,1744
2154,2037,1797
2137,2000,1764
2116,2039,1713
2118,2074,1739
2142,2066,1791
2128,2070,1776
2085,1997,1693
2092,1995,1702
2115,2034,1766
2096,1918,1730
2079,2039,1706
2083,2022,1681
2121,1987,1787
2097,2014,1781
2078,2026,1729
2083,2031,1744
2090,1943,1757
2067,1961,1747
2044,1947,1725
2063,1967,1744
2039,1971,1747
2021,1949,1765
2000,1938,1735
1997,1933,1716
2013,1934,1773
1995,1922,1753
1983,1904,1701
1995,1920,1729
2009,1936,1761
1947,1911,1712
1923,1879,1711
1963,1923,1777
1981,1926,1802
1908,1901,1726
1875,1867,1681
1907,1861,1734
1949,1891,1817
1907,1894,1798
1861,1868,1734
1885,1891,1759
1903,1930,1808
1863,1920,1782
1835,1899,1744
1850,1927,1776
1870,1968,1825
1839,1984,1793
1795,1983,1745
1808,2018,1780
1839,2060,1835
1815,2059,1798
1776,2036,1758
1809,2082,1815
1825,2133,1834
1776,2105,1817
1743,2089,1777
1771,2103,1811
1797,2141,1869
1750,2124,1823
1715,2105,1776
1733,2121,1800
1759,2145,1842
1741,2142,1823
1731,2122,1802
1762,2128,1840
1781,2151,1886
1749,2143,1831
1718,2100,1791
1748,2110,1837
1771,2138,1917
1717,2123,1870
1677,2095,1802
1733,2139,1859
1761,2161,1876
1717,2115,1872
1695,2096,1850
1711,2124,1871
1735,2106,1901
1706,2102,1858
1678,2098,1833
1706,2108,1850
1733,2125,1877
1726,2110,1849
1791,2091,1791
1690,2093,1826
1674,2117,1918
1644,2106,1911
1622,2082,1867
1659,2103,1862
1675,2100,1922
1664,2078,1903
1625,2039,1835
1644,2054,1840
1665,2094,1886
1661,2077,1889
1615,2059,1833
1643,2071,1872
1662,2096,1919
1643,2081,1898
1579,2047,1798
1600,2060,1821
1654,2099,1920
1628,2085,1901
1589,2047,1829
1617,2053,1851
1651,2080,1891
1635,2094,1894
1607,2093,1852
1613,2078,1859
1623,2083,1886
1614,2073,1861
1598,2044,1824
1616,2066,1849
1625,2097,1911
1598,2084,1867
1574,2065,1815
1606,2140,1859
1635,2211,1888
1618,2125,1860
1600,2109,1811
1617,2130,1872
1646,2302,1940
1603,2330,1905
1555,2134,1829
1575,1969,1827
1615,2001,1902
1598,2069,1899
1565,2080,1823
1595,2278,1833
1586,2285,1846
1535,1979,1814
1514,1908,1744
1566,2015,1830
1626,2083,1935
1593,2083,1887
1535,2132,1815
1584,2097,1829
1557,1993,1790
1498,1930,1744
1495,1903,1767
1535,1947,1829
1578,1989,1840
1530,2000,1808
1479,1994,1746
1481,1967,1689
1483,1856,1776
1456,1840,1766
1424,1850,1708
1456,1853,1715
1503,1865,1755
1472,1853,1745
1448,1839,1700
1475,1863,1715
1518,1891,1776
1450,1920,1718
1397,1883,1638
1424,1823,1675
1458,1749,1743
1441,1771,1728
1413,1728,1677
1453,1745,1698
1474,1790,1744
1463,1802,1728
1424,1776,1678
1447,1777,1705
1503,1843,1747
1470,1801,1719
1437,1776,1697
1470,1802,1671
1486,1803,1739
1471,1783,1783
1465,1773,1686
1507,1779,1724
1521,1818,1819
1490,1801,1757
1467,1777,1725
1483,1775,1674
1514,1799,1792
1503,1796,1724
1488,1777,1737
1522,1805,1744
1535,1815,1771
1525,1804,1782
1490,1776,1739
1521,1787,1759
1571,1821,1841
1531,1789,1765
1511,1761,1687
1552,1793,1803
1581,1799,1818
1554,1781,1776
1530,1754,1776
1577,1767,1759
1614,1794,1848
1581,1776,1791
1526,1743,1712
1570,1771,1775
1643,1797,1872
1626,1769,1847
1584,1735,1777
1603,1760,1837
1634,1790,1850
1611,1773,1823
1598,1739,1775
1648,1741,1825
1658,1775,1846
1630,1738,1795
1633,1690,1743
1659,1775,1899
1687,1807,1965
1648,1792,1915
1614,1777,1803
1663,1814,1892
1686,1779,1887
1670,1721,1850
1653,1721,1815
1679,1744,1861
1712,1807,1952
1669,1789,1869
1641,1763,1810
1678,1781,1877
1711,1808,1886
1693,1818,1861
1662,1792,1825
1677,1862,1868
1713,1896,1835
1719,1913,1881
1683,1718,1810
1681,1712,1771
1743,1895,1882
1742,1872,1899
1665,1668,1866
1662,1717,1860
1682,1759,1836
1712,1921,1867
1679,1949,1744
1721,1840,1834
1709,1870,1851
1682,1936,1846
1680,2006,1851
1733,2078,1798
1746,1935,1858
1670,1911,1836
1646,2034,1804
1674,2139,1812
1680,2192,1798
1660,2171,1792
1629,2179,1759
1669,2240,1745
1712,2350,1862
1693,2397,1785
1638,2151,1697
1648,2199,1744
1667,2308,1837
1651,2251,1808
1647,2239,1757
1667,2395,1766
1774,2352,1760
1683,2300,1655
1565,2177,1584
1683,2242,1779
1696,2308,1855
1657,2273,1791
1605,2240,1735
1631,2313,1794
1680,2349,1861
1638,2318,1791
1630,2258,1744
1643,2347,1717
1664,2270,1776
1639,2224,1731
1605,2298,1687
1627,2128,1703
1777,2198,1756
1674,2293,1745
1585,2312,1760
1615,2314,1827
1664,2480,1875
1627,2171,1771
1614,2019,1648
1681,2092,1811
1705,2178,1852
1645,2191,1791
1603,2189,1781
1596,2175,1757
1634,2192,1930
1646,2192,1847
1629,2163,1746
1642,2111,1776
1662,2087,1831
1648,2070,1856
1630,2098,1806
1642,2099,1776
1653,2078,1846
1647,2041,1860
1654,2003,1851
1671,1982,1793
1702,2027,1789
1670,2032,1840
1632,1975,1736
1611,1819,1782
1661,1840,1829
1663,1877,1815
1622,1871,1745
1658,1876,1825
1685,1884,1824
1662,1856,1839
1632,1815,1785
1669,1827,1826
1729,1851,1915
1712,1810,1861
1647,1773,1776
1682,1791,1806
1727,1799,1875
1713,1776,1835
1714,1793,1798
1730,1794,1763
1722,1731,1855
1727,1740,1877
1707,1671,1822
1740,1693,1725
1776,1715,1889
1778,1723,1868
1740,1689,1808
1758,1735,1827
1789,1776,1871
1775,1715,1857
1755,1668,1805
1783,1693,1854
1814,1762,1891
1785,1689,1877
1755,1611,1825
1790,1650,1846
1811,1689,1878
1809,1699,1893
1809,1629,1845
1850,1645,1874
1828,1699,1903
1813,1670,1872
1801,1664,1851
1850,1723,1873
1904,1900,1964
1872,1721,1942
1830,1466,1836
1895,1527,1882
1879,1622,1909
1863,1664,1903
1853,1667,1871
1895,1710,1891
1947,1747,1979
1922,1679,1962
1894,1621,1890
1927,1683,1904
1982,1968,1951
1968,1658,1922
1878,1479,1861
1955,1601,1900
2001,1674,2017
1997,1717,1984
1970,1694,1905
2014,1680,1920
2032,1709,1968
2042,1713,1942
1983,1657,1917
1989,1691,1913
2063,1698,2016
2000,1654,2009
2029,1694,1920
2000,1711,1931
2032,1713,2029
2046,1663,2014
2015,1607,1953
2032,1723,1951
2083,1744,1997
2032,1678,1973
2005,1644,1939
2038,1697,1984
2095,1741,2061
2059,1737,2022
2000,1671,1931
2017,1691,1952
2064,1622,2023
2064,1602,1991
2083,1607,1967
2069,1649,2007
2087,1698,2070
2085,1679,2053
2038,1658,1968
2038,1666,1984
2072,1696,2054
2066,1709,2020
2031,1662,2000
2075,1697,2051
2090,1776,2084
2055,1758,2000
2005,1620,1945
2032,1599,1997
2100,1645,2096
2112,1698,2064
2026,1714,1995
2056,1774,1985
2074,1691,2055
2064,1581,2041
2022,1591,1984
2064,1667,2012
2103,1707,2070
2068,1776,2066
2000,1722,1959
1994,1647,1942
1999,1692,2011
2065,1680,2060
2013,1645,2024
2013,1773,2017
2103,1819,2093
2017,1866,2064
1968,1710,1951
1936,1614,1927
1965,1664,2013
2043,1728,2062
2017,1744,2011
1968,1774,2017
1982,1823,2061
1991,1762,2018
1995,1735,1962
1971,1767,1985
1984,1819,2039
1981,1822,2032
1937,1785,1968
1998,1804,1968
1971,1819,2031
1974,1805,2021
1925,1794,1958
1931,1824,1979
1974,1867,2021
1926,1851,2013
1954,1821,1963
1955,1818,1965
1920,1830,2000
1936,1830,1985
1907,1821,1937
1921,1838,1954
1946,1865,1991
1937,1861,1955
1936,1835,1918
1950,1843,1944
1970,1883,1989
1935,1869,1974
1919,1845,1931
1943,1856,1942
1986,1879,1978
1948,1872,1963
1919,1840,1906
1923,1861,1927
1954,1886,1971
1947,1875,1946
1913,1858,1879
1921,1871,1893
1950,1887,1935
1936,1878,1909
1904,1858,1857
1911,1886,1879
1936,1911,1926
1935,1889,1889
1850,1858,1820
1945,1872,1850
1970,1897,1904
1891,1893,1886
1878,1865,1825
1935,1871,1834
1922,1889,1872
1928,1873,1846
1888,1856,1789
1985,1872,1822
2045,1899,1873
1998,1883,1855
1978,1859,1789
1930,1871,1795
1968,1901,1841
1984,1911,1855
1963,1903,1810
1930,1889,1787
1968,1905,1820
1953,1906,1818
1977,1890,1775
1898,1913,1788
2038,1954,1834
2007,1952,1817
1987,1931,1769
2017,1954,1787
2111,1982,1840
2046,1968,1807
2020,1953,1734
2075,1972,1772
2142,2009,1843
2162,2000,1826
2158,1981,1766
2208,2000,1778
2285,2047,1829
2239,2016,1808
2224,1977,1748
2247,1995,1765
2304,2032,1823
2273,2023,1809
2341,2001,1744
2282,2025,1757
2320,2064,1822
2453,2057,1822
2372,2023,1748
2352,2032,1753
2407,2076,1834
2467,2061,1820
2315,2020,1769
2439,2032,1777
2418,2069,1814
2407,2039,1795
2422,2028,1756
2417,2043,1786
2441,2074,1825
2431,2059,1790
2401,2029,1742
2432,2043,1775
2475,2079,1835
2453,2099,1810
2421,2022,1755
2445,2014,1750
2478,2059,1827
2472,2092,1855
2449,2162,1814
2445,2011,1785
2462,1993,1810
2462,2029,1815
2431,2047,1770
2430,2011,1761
2468,2065,1821
2466,2079,1845
2445,1954,1801
2448,1978,1797
2482,2039,1851
2476,2064,1867
2433,2123,1806
2429,1968,1782
2462,1962,1844
2463,1989,1840
2411,2026,1760
2431,2071,1782
2467,2057,1882
2432,1951,1842
2385,2000,1783
2421,2034,1821
2471,1954,1879
2437,2003,1840
2375,1971,1779
2416,1922,1837
2454,1950,1890
2431,2017,1861
2384,2062,1818
2390,2006,1823
2429,1970,1904
2417,2027,1887
2376,2097,1797
2384,1921,1804
2419,1887,1851
2404,1942,1857
2370,1933,1837
2391,1929,1870
2430,1990,1904
2406,1971,1883
2353,1959,1824
2364,1936,1840
2410,2032,1933
2416,1980,1904
2384,1967,1853
2404,2003,1831
2406,2011,1899
2382,1968,1899
2303,1910,1840
2311,1923,1862
2329,1997,1916
2311,1977,1905
2181,1936,1856
2211,1940,1890
1998,1996,1947
2159,2014,1934
2095,1933,1878
2226,1985,1943
2318,2031,1984
2339,1941,1920
2314,1899,1855
2323,1955,1879
2342,2001,1923
2309,1985,1919
2272,1930,1890
2304,1904,1907
2352,1991,1934
2301,1991,1955
2257,1987,1893
2239,1979,1861
2289,1981,1921
2323,1909,1904
2347,1923,1867
2251,1949,1903
2294,2095,1978
2281,1968,1952
2382,1920,1897
2302,1889,1906
2193,1854,1927
2143,1814,1896
2281,1870,1870
2128,1874,1840
1957,1922,1897
1936,1871,1889
1958,1843,1797
1946,1919,1806
1949,1958,1872
1879,1824,1822
1822,1734,1759
1825,1747,1779
1878,1858,1839
1853,1778,1743
1770,1712,1694
1807,1722,1679
1808,1849,1790
1705,1787,1779
1648,1667,1680
1713,1693,1722
1691,1646,1723
1667,1658,1677
1689,1680,1654
1695,1598,1616
1681,1535,1686
1506,1577,1708
1424,1573,1631
1475,1595,1589
1468,1618,1680
1435,1596,1633
1399,1520,1568
1437,1593,1590
1389,1535,1616
1293,1553,1602
1171,1461,1520
1198,1498,1584
1178,1451,1623
1215,1527,1600
1136,1337,1495
1175,1417,1495
1148,1518,1556
1168,1483,1597
1103,1478,1571
1139,1482,1563
1113,1360,1535
1069,1314,1566
1035,1383,1491
1065,1477,1533
1092,1456,1589
1078,1503,1595
1072,1470,1535
1061,1383,1505
1061,1357,1569
1023,1517,1610
982,1357,1532
1012,1263,1497
1062,1379,1580
1065,1521,1559
1007,1443,1511
1011,1406,1524
1066,1419,1606
1018,1392,1616
997,1455,1518
1053,1377,1518
1043,1311,1587
1040,1373,1598
1062,1456,1526
1040,1457,1511
1047,1475,1623
1060,1430,1631
1003,1309,1552
1013,1326,1570
1098,1424,1566
1062,1520,1632
1020,1520,1607
1046,1535,1604
1118,1441,1671
1073,1455,1629
1034,1439,1578
1086,1579,1612
1133,1552,1641
1104,1406,1630
1078,1377,1600
1104,1491,1635
1142,1535,1686
1152,1574,1680
1123,1459,1578
1120,1575,1614
1152,1557,1682
1168,1519,1719
1163,1493,1703
1232,1471,1673
1216,1527,1680
1174,1508,1694
1141,1520,1680
1168,1506,1671
1216,1488,1699
1226,1574,1697
1206,1615,1675
1231,1584,1712
1293,1724,1770
1235,1581,1707
1194,1498,1626
1211,1420,1651
1249,1477,1727
1281,1520,1758
1296,1527,1711
1280,1637,1712
1281,1744,1761
1293,1570,1722
1268,1495,1651
1253,1602,1725
1312,1707,1814
1326,1639,1771
1314,1534,1710
1313,1523,1715
1312,1687,1751
1298,1599,1779
1311,1685,1729
1343,1682,1729
1360,1603,1778
1360,1694,1775
1345,1659,1741
1355,1670,1775
1383,1734,1807
1384,1639,1778
1369,1723,1744
1394,1726,1757
1426,1535,1801
1421,1613,1826
1367,1712,1734
1380,1691,1748
1455,1784,1822
1441,1766,1800
1450,1693,1747
1455,1598,1779
1520,1712,1846
1463,1797,1872
1392,1717,1829
1407,1616,1805
1459,1675,1814
1507,1712,1813
1535,1733,1823
1526,1717,1809
1446,1786,1829
1441,1717,1804
1520,1629,1750
1586,1712,1807
1639,1847,1869
1777,1776,1830
1447,1686,1838
1466,1580,1799
1595,1739,1869
1588,1744,1864
1519,1713,1814
1477,1692,1848
1535,1773,1874
1569,1893,1840
1535,1829,1790
1535,1678,1818
1595,1748,1854
1601,1712,1866
1585,1740,1807
1582,1747,1843
1650,1875,1914
1639,1707,1872
1590,1693,1805
1643,1797,1830
1675,1974,1920
1616,1778,1901
1589,1653,1787
1642,1682,1795
1719,1793,1875
1683,1765,1907
1658,1771,1813
1679,1873,1861
1712,1926,1921
1702,1697,1891
1681,1728,1815
1808,1890,1842
1718,1889,1904
1687,1806,1851
1659,1742,1829
1733,1971,1882
1737,1743,1936
1734,1722,1926
1744,1872,1831
1741,1873,1844
1744,1803,1905
1753,1700,1907
1742,1899,1869
1776,1875,1873
1751,1871,1931
1723,1845,1924
1712,1887,1836
1758,1871,1835
1792,1904,1878
1791,1891,1930
1787,1834,1885
1789,1826,1885
1773,1849,1894
1776,1856,1882
1759,1767,1855
1810,1854,1840
1858,1873,1956
1840,1934,1939
1808,1854,1826
1825,1946,1873
1791,1899,1915
1808,1840,1906
1824,1842,1872
1807,1901,1901
1831,1914,1964
1839,1870,1930
1808,1936,1851
1817,1883,1867
1853,1917,1927
1840,1917,1933
1833,1979,1883
1867,2000,1886
1873,1983,1936
1871,1870,1939
1819,1837,1872
1847,1906,1885
1885,1969,1964
1866,1935,1964
1835,1939,1897
1877,2000,1878
1895,1913,1934
1902,1917,1949
1862,1899,1915
1887,1995,1945
1901,2082,1982
1891,1923,1927
1860,1878,1895
1885,1834,1939
1931,1872,1955
1920,1915,1959
1891,1936,1897
1917,2063,1911
1953,2138,1964
1942,1865,1951
1914,1782,1904
1885,1852,1901
1927,1967,1955
1942,1941,1958
1954,1943,1909
1966,1968,1937
1916,1963,1971
1920,1998,2008
1918,2021,1957
1922,1969,1885
1957,1899,1949
1947,1899,1959
1933,1941,1909
1956,1984,1932
1980,1957,1994
1950,1943,1934
1935,2003,1905
1990,2032,1963
2034,2034,2000
1967,1938,1985
1915,1950,1923
1953,1958,1923
1982,1931,1985
1995,2010,1982
1938,2029,1917
1962,1961,1917
1999,1950,1952
1998,2032,1985
1953,2000,1918
1969,1995,1913
2005,1969,1964
1997,1940,1968
1960,1876,1912
1985,2025,1962
2014,2057,1999
1999,1955,1967
1981,1982,1932
1986,1983,1913
2023,2139,1954
2021,1947,1965
1979,1837,1906
2000,1933,1921
2029,2026,1968
2027,2002,1972
1987,1975,1922
2077,2087,1913
2145,2055,1950
1982,1946,1971
1931,1996,1930
1973,1958,1950
2032,1965,1915
2010,1987,1977
1936,1915,1936
1957,1953,1931
2022,2043,1988
2032,2085,1984
2000,2145,1920
2023,2039,1905
2007,1926,1934
1997,1900,1938
1981,1958,1899
2000,1982,1883
2039,1981,1955
2033,2017,1957
1991,1909,1893
1985,2000,1893
2045,1952,1926
2033,1935,1933
1975,1926,1861
1998,1911,1886
2046,2009,1949
2035,2005,1963
1983,1939,1902
2000,1945,1904
2069,2043,1990
2067,2037,1975
1953,1873,1845
1954,1966,1874
2007,1985,1965
2009,1901,1930
1987,1861,1858
2029,1894,1904
2061,1971,1958
2021,2065,1941
1983,1955,1847
1979,1841,1855
2019,1961,1963
2030,1943,1954
1980,1845,1883
2010,1908,1921
2032,1906,1936
2015,1865,1901
1981,1863,1858
1983,1902,1881
2032,1989,1954
2025,2019,1969
1989,1956,1876
1986,1829,1854
2022,1894,1926
2019,1914,1923
1986,1879,1875
2019,1905,1921
2037,1915,1966
2023,1882,1923
1973,1872,1845
2002,1863,1873
2041,1872,1936
2019,1924,1913
2002,1890,1850
2038,1895,1862
2059,1943,1930
2070,1959,1957
1969,1856,1852
1955,1808,1856
2002,1830,1936
2020,2006,1952
1985,1877,1885
2000,1823,1872
2026,1821,1908
2021,1887,1923
2000,1973,1874
2002,1839,1867
2029,1787,1911
2011,1766,1906
2000,1872,1872
2017,2001,1897
2034,1904,1930
2013,1842,1917
1979,1883,1867
1979,1862,1856
2032,1906,1953
2017,1824,1936
2004,1830,1868
1983,1809,1856
2000,1810,1919
2031,1905,1923
1996,1883,1844
1991,1807,1850
2002,1863,1918
2011,1911,1922
1983,1808,1872
1998,1837,1856
2004,1855,1906
2001,1886,1868
1975,1874,1871
2000,1809,1819
2018,1836,1909
2003,1851,1908
1973,1810,1856
1999,1877,1850
2035,1868,1906
2002,1826,1906
1962,1810,1846
1987,1897,1878
2022,1868,1920
2003,1855,1857
1963,1831,1776
1968,1765,1830
2001,1791,1871
2022,1877,1899
1985,1866,1849
1987,1823,1873
1997,1821,1946
1969,1883,1904
1973,1888,1823
1980,1776,1851
2002,1802,1885
1989,1842,1873
1968,1869,1843
1989,1894,1867
2032,1853,1904
2006,1872,1910
1964,1828,1840
1986,1872,1860
2026,1896,1888
2014,1874,1909
1967,1818,1827
1983,1847,1819
2014,1843,1899
2009,1825,1901
1968,1794,1856
1984,1847,1840
2015,1869,1905
2015,1843,1905
1983,1815,1833
1994,1874,1822
2032,1999,1920
2024,1954,1966
1987,1837,1858
1995,1776,1833
2023,1836,1936
2015,1797,1886
1961,1787,1802
1977,1839,1862
2037,1899,1946
2019,1872,1951
1989,1865,1818
2018,1861,1870
2038,1886,1863
2032,1925,1887
1991,1874,1856
2001,1789,1837
2034,1855,1904
2022,1839,1863
1999,1823,1843
2011,1837,1857
2071,1917,1920
2060,1878,1962
2003,1915,1791
2026,1781,1846
2058,1805,1885
2042,1802,1897
2007,1806,1829
2062,1862,1872
2082,1946,1904
2059,2000,1889
2000,1791,1815
2009,1728,1837
2069,1798,1895
2061,1914,1856
2022,1872,1867
2035,1824,1853
2077,1806,1891
2064,1873,1922
2032,1782,1897
2054,1843,1763
2085,1869,1963
2075,1879,1898
2024,1828,1828
2045,1904,1845
2094,1902,1936
2069,1927,1921
1982,1744,1780
2007,1737,1826
2092,1849,1918
2064,1868,1911
1998,1793,1826
2023,1871,1856
2071,1899,1893
2064,1839,1935
2013,1837,1808
2017,1913,1819
2064,1916,1897
2058,1783,1840
2005,1727,1790
2013,1854,1825
2047,1884,1904
2026,1829,1867
2016,1783,1794
2032,1876,1819
2045,1920,1921
2015,1789,1865
1991,1782,1864
2006,1841,1868
2044,1900,1871
2053,1923,1891
1984,1778,1829
1995,1771,1822
2026,1794,1843
2020,1817,1863
1980,1834,1834
1994,1847,1826
2006,1915,1886
2032,2023,1915
2000,1891,1840
1994,1743,1810
2000,1776,1847
1989,1782,1866
1982,1742,1856
1985,1794,1823
2003,1854,1871
2007,1869,1920
1984,1872,1811
2003,1842,1866
2014,1918,1811
1995,1855,1870
1981,1813,1879
1977,1907,1841
2018,1940,1921
2003,1883,1869
1941,1730,1789
1955,1724,1789
2000,1793,1862
2003,1862,1904
1986,1920,1868
1971,1929,1776
1951,1873,1911
1958,1853,1926
1941,1769,1822
1937,1776,1811
1998,1846,1854
1994,1901,1872
1932,1860,1791
1949,1876,1811
1993,1945,1885
1969,1838,1866
1934,1821,1812
1955,1807,1841
1991,1859,1898
1989,1929,1904
1943,1872,1819
1930,1843,1823
1984,1936,1903
1964,1837,1871
1925,1787,1813
1945,1808,1822
1968,1828,1856
1962,1847,1863
1934,1856,1829
1934,1840,1833
1983,1904,1894
1959,1933,1881
1906,1857,1808
1936,1808,1815
1968,1808,1888
1919,1826,1869
1910,1907,1813
1927,1911,1808
1970,1885,1882
1950,1905,1891
1920,1850,1813
1911,1910,1840
1973,1936,1904
1968,1826,1862
1901,1715,1778
1939,1814,1837
1926,1972,1899
1898,1869,1856
1926,1814,1805
1952,1839,1831
1984,1959,1923
1952,1875,1893
1872,1808,1781
1943,1815,1803
1963,1920,1895
1965,1972,1897
1917,1940,1833
1919,1761,1793
1920,1817,1846
1922,1835,1863
1902,1838,1823
1915,1846,1856
1939,1904,1911
1957,1958,1872
1943,1871,1813
1915,1868,1817
1913,1929,1878
1919,1829,1872
1875,1746,1808
1916,1862,1838
1936,1916,1879
1925,1913,1856
1887,1837,1809
1904,1894,1825
1937,1943,1869
1929,1853,1873
1876,1792,1808
1915,1892,1809
1939,1946,1891
1921,1952,1862
1860,1818,1787
1919,1790,1810
1885,1904,1895
1891,1923,1894
1846,1861,1819
1876,1875,1793
1914,1942,1866
1970,1958,1875
1885,1872,1824
1903,1855,1810
1920,1936,1866
1935,1922,1859
1894,1845,1797
1904,1825,1809
1927,1882,1869
1935,1995,1904
1890,1914,1833
1917,1870,1798
1939,1821,1838
1958,1904,1853
1875,1890,1840
1888,1904,1806
1943,1919,1872
1927,1911,1876
1887,1849,1809
1871,1859,1778
1893,1927,1867
1891,1952,1904
1857,1918,1827
1925,1827,1805
1898,1936,1875
1957,1983,1892
1847,1808,1822
1876,1807,1800
1968,1840,1851
1882,1872,1827
1853,1903,1827
1823,1902,1834
1872,1915,1855
1879,1895,1854
1851,1935,1825
1850,1955,1840
1914,1963,1856
1848,1987,1885
1835,1823,1821
1820,1779,1808
1872,1787,1869
1949,1875,1871
1847,1887,1803
1847,1855,1823
1887,1920,1856
1904,1985,1874
1888,2064,1850
1891,1910,1819
1933,1791,1811
1882,1813,1836
1837,1830,1827
1861,1841,1826
1925,1925,1872
1899,1862,1856
1846,1795,1823
1862,1939,1834
1893,1937,1865
1893,1961,1881
1857,1935,1823
1909,1814,1808
1933,1868,1870
1931,1939,1894
1822,1893,1836
1918,1898,1808
1897,1888,1835
1861,1875,1872
1904,1783,1821
1855,1890,1833
1857,2010,1892
1923,1923,1885
1811,1797,1786
1886,1829,1772
1906,1883,1891
1927,1941,1930
1833,1965,1830
1806,1910,1815
1854,1873,1874
1872,1893,1874
1851,1846,1813
1849,1815,1819
1887,2000,1894
1887,1949,1873
1843,1811,1791
1817,1822,1809
1872,1927,1861
1866,1926,1893
1808,1906,1829
1839,1808,1811
1851,1923,1872
1887,1921,1904
1841,1883,1835
1830,1872,1795
1870,1825,1853
1871,1872,1883
1878,1897,1808
1833,1872,1797
1872,1899,1888
1885,1958,1910
1841,1920,1831
1804,1887,1806
1835,1859,1856
1854,1918,1886
1776,1892,1823
1833,1869,1813
1867,1936,1863
1862,1938,1908
1853,1819,1855
1904,1851,1854
1867,1829,1873
1854,1900,1879
1811,1954,1827
1817,1885,1811
1833,1878,1874
1866,1877,1886
1819,1872,1819
1833,1871,1822
1872,1936,1890
1856,1963,1904
1804,1815,1829
1814,1793,1795
1851,1877,1851
1871,1885,1871
1855,1880,1839
1846,1904,1826
1862,1871,1889
1849,1913,1888
1823,1969,1831
1850,1905,1819
1856,1903,1872
1831,1860,1864
1815,1881,1825
1838,1903,1836
1872,1885,1890
1856,1823,1882
1808,1785,1808
1829,1855,1777
1864,1902,1870
1859,1970,1888
1809,1872,1825
1823,1877,1822
1854,1840,1863
1854,1831,1872
1815,1859,1826
1811,1909,1801
1857,1874,1872
1863,1871,1905
1808,1803,1834
1799,1840,1777
1857,1894,1850
1865,1921,1908
1825,1925,1840
1831,1917,1824
1855,1887,1857
1844,1845,1861
1825,1867,1826
1846,1881,1830
1857,1899,1874
1853,1839,1884
1808,1787,1808
1828,1805,1798
1855,1879,1856
1830,1955,1907
1809,1894,1840
1837,1852,1804
1863,1865,1868
1858,1926,1891
1809,1817,1846
1820,1803,1815
1868,1854,1839
1863,1846,1856
1819,1857,1811
1823,1867,1815
1857,1856,1871
1853,1851,1872
1821,1796,1814
1840,1891,1820
1856,1920,1856
1845,1898,1851
1823,1803,1808
1838,1808,1810
1870,1904,1888
1853,1909,1901
1805,1809,1814
1828,1840,1791
1861,1859,1846
1872,1936,1877
1827,1968,1830
1806,1808,1787
1837,1762,1826
1850,1808,1870
1819,1840,1839
1834,1920,1837
1859,1904,1874
1845,1883,1868
1817,1873,1797
1826,1810,1811
1841,1869,1865
1841,1840,1863
1799,1871,1809
1830,1851,1808
1837,1866,1848
1838,1851,1862
1803,1829,1822
1826,1871,1837
1862,1879,1870
1845,1927,1876
1811,1925,1831
1815,1861,1805
1843,1808,1831
1843,1792,1862
1809,1818,1821
1823,1841,1823
1857,1829,1858
1845,1853,1861
1813,1894,1824
1857,1920,1818
1844,1881,1849
1843,1866,1845
1804,1831,1803
1808,1808,1809
1863,1835,1843
1855,1836,1875
1808,1822,1823
1815,1882,1793
1858,1830,1872
1843,1846,1872
1803,1840,1801
1840,1932,1828
1884,2000,1894
1870,1872,1873
1826,1795,1776
1830,1735,1755
1873,1761,1820
1843,1843,1830
1829,1866,1792
1841,1854,1818
1844,1877,1867
1856,1934,1857
1833,1856,1802
1811,1757,1773
1850,1879,1846
1853,1934,1890
1843,1956,1815
1835,1776,1790
1854,1791,1809
1862,1845,1861
1827,1809,1786
1838,1810,1781
1863,1903,1866
1850,1878,1858
1817,1878,1800
1826,1904,1802
1856,1905,1863
1861,1905,1876
1831,1854,1805
1809,1825,1787
1862,1831,1854
1875,1886,1903
1808,1840,1807
1823,1779,1781
1862,1844,1819
1863,1895,1867
1835,1923,1835
1834,1877,1808
1858,1856,1841
1859,1813,1848
1837,1782,1813
1842,1861,1808
1871,1875,1853
1872,1929,1889
1840,1975,1824
1817,1754,1773
1840,1846,1838
1839,1910,1872
1813,1878,1804
1820,1823,1819
1846,1939,1872
1856,1904,1868
1837,1854,1811
1825,1915,1830
1853,1921,1869
1852,1814,1855
1825,1814,1818
1821,1765,1802
1855,1878,1853
1862,1872,1879
1809,1840,1808
1845,1888,1777
1859,1936,1839
1849,1872,1870
1787,1799,1824
1797,1856,1799
1843,1884,1856
1854,1898,1872
1837,1903,1805
1826,1850,1808
1849,1834,1871
1843,1929,1853
1825,1842,1824
1837,1917,1830
1867,1893,1871
1855,1805,1863
1839,1814,1811
1837,1907,1818
1850,1904,1872
1840,1795,1863
1823,1855,1809
1827,1846,1793
1866,1857,1847
1875,2037,1887
1833,1888,1842
1819,1815,1808
1857,1759,1855
1856,1904,1853
1838,1898,1818
1838,1786,1813
1850,1803,1867
1859,1927,1897
1803,1847,1810
1820,1792,1797
1857,1858,1858
1859,1887,1872
1831,1841,1825
1827,1866,1819
1871,1916,1875
1850,1813,1857
1807,1792,1778
1824,1889,1787
1865,1922,1861
1863,1839,1872
1836,1811,1840
1847,1836,1829
1860,1870,1867
1878,1872,1872
1841,1823,1795
