1771,1759,1831
1771,1584,1771
1771,1408,1803
1746,1562,1858
1777,1954,1884
1715,1425,1728
1709,1194,1744
1734,1315,1820
1726,1408,1807
1779,1557,1810
1798,1525,1793
1742,1424,1837
1728,1406,1786
1767,1440,1808
1843,1477,1840
1789,1471,1835
1818,1459,1806
1899,1487,1839
1891,1472,1866
1827,1431,1730
1813,1407,1791
1901,1466,1871
1968,1511,1843
1921,1451,1841
1889,1407,1766
1936,1424,1776
2022,1491,1866
1920,1449,1855
1790,1366,1808
1826,1377,1751
1935,1430,1805
2032,1463,1822
2021,1440,1776
1909,1423,1803
1927,1452,1840
2012,1456,1857
1936,1424,1753
1929,1428,1803
2019,1436,1808
2023,1419,1816
1950,1410,1815
1951,1440,1840
2000,1474,1872
2003,1404,1834
1968,1355,1779
1984,1367,1791
2032,1410,1831
2000,1408,1813
1955,1392,1792
1989,1404,1805
2033,1406,1799
2035,1392,1792
2022,1369,1808
2039,1501,1861
2063,1521,1893
2065,1451,1810
1963,1331,1713
1984,1450,1798
2069,1527,1899
2067,1255,1823
2019,1345,1748
1999,1355,1750
2064,1503,1827
2089,1535,1808
1985,1322,1670
2027,1370,1762
2082,1673,1871
1998,1473,1807
1968,1275,1745
2041,1366,1759
2067,1515,1830
2116,1676,1874
1986,1389,1709
2014,1349,1712
2037,1434,1817
2033,1490,1875
2137,1472,1820
2086,1463,1805
2170,1523,1859
2150,1565,1883
2162,1520,1827
2158,1531,1835
2320,1599,1872
2241,1520,1791
2114,1447,1756
2320,1535,1818
2440,1606,1881
2243,1492,1840
2091,1439,1750
2137,1482,1747
2254,1518,1808
2313,1521,1828
2326,1515,1809
2206,1520,1840
2160,1562,1865
2192,1565,1853
2250,1523,1794
2277,1562,1823
2286,1607,1866
2289,1584,1845
2225,1535,1778
2215,1534,1744
2245,1553,1808
2286,1590,1825
2246,1555,1806
2164,1519,1802
2224,1581,1843
2199,1557,1808
2184,1524,1732
2233,1535,1823
2274,1599,1897
2305,1674,1897
2226,1638,1783
2186,1626,1778
2304,1570,1774
2263,1982,1906
2070,1501,1840
2177,1328,1787
2233,1845,1870
2221,1634,1841
2126,1733,1809
2127,1606,1815
2142,1360,1740
2230,1343,1747
2112,1461,1783
2095,1593,1867
2107,1665,1920
2192,1667,1898
2148,1647,1833
2189,1698,1834
2181,1677,1841
2215,1665,1873
2197,1655,1874
2197,1671,1887
2192,1685,1889
2241,1731,1924
2242,1727,1857
2239,1712,1843
2295,1742,1883
2187,1735,1890
2231,1666,1798
2281,1674,1840
2231,1723,1875
2234,1759,1859
2159,1685,1808
2082,1705,1907
2054,1763,2045
2042,1743,1968
2020,1722,1841
2038,1728,1809
2113,1764,1895
2123,1764,1905
2094,1742,1858
2082,1712,1829
2113,1729,1862
2112,1749,1859
2128,1744,1814
2045,1735,1813
2102,1703,1849
2076,1753,1824
1983,1630,1732
1987,1571,1732
1981,1618,1776
1937,1647,1763
1925,1635,1703
1920,1616,1705
1930,1703,1728
1899,1698,1712
1859,1630,1655
1866,1648,1657
1887,1725,1686
1872,1763,1669
1825,1745,1617
1831,1776,1646
1866,1833,1686
1840,1846,1666
1890,1817,1619
1766,1831,1648
1870,1874,1693
1932,1876,1683
1794,1842,1638
1819,1852,1647
1859,1885,1677
1903,1887,1670
1840,1854,1633
1777,1864,1648
1813,1904,1691
1808,1898,1680
1775,1860,1637
1771,1874,1649
1902,1907,1696
1865,1910,1681
1865,1881,1639
1941,1899,1680
1893,1921,1725
1905,1920,1713
1870,1879,1661
1854,1878,1674
1984,1929,1718
1916,1899,1717
1910,1861,1688
1913,1881,1698
1968,1919,1723
1939,1921,1713
1925,1890,1680
1908,1904,1699
1963,1935,1744
1965,1925,1730
1933,1895,1680
1940,1903,1689
2002,1937,1744
2011,1943,1744
1975,1910,1705
2002,1920,1710
2034,1957,1744
1985,1968,1728
2012,1921,1716
2000,1903,1735
2105,1937,1774
2091,1950,1751
1999,1908,1706
2017,1921,1737
2087,1961,1792
2160,1948,1786
2045,1908,1728
1968,1921,1734
2093,1963,1776
2110,1947,1762
2039,1919,1745
2096,1947,1805
2097,1985,1807
2067,1995,1773
2042,1917,1732
2065,1915,1771
2098,1927,1830
2064,1937,1792
2046,1955,1757
2063,1920,1802
2087,1918,1846
2064,1934,1833
2031,1921,1773
2039,1921,1798
2070,1951,1840
2063,2021,1841
2061,1984,1838
2067,1952,1831
2071,1878,1861
2045,1841,1846
2010,1840,1813
2023,1905,1831
2059,1957,1883
2055,1930,1879
2029,1898,1837
2047,1962,1857
2067,2032,1913
2034,1855,1870
1990,1788,1833
1993,1840,1872
2039,1919,1920
2027,1953,1895
1997,1910,1859
2000,1808,1872
2017,1895,1896
1991,1917,1887
1972,1897,1865
1994,1927,1887
2032,1983,1933
2007,1950,1929
1965,1857,1890
1981,1838,1897
2007,1905,1911
1998,1871,1914
1953,1840,1867
1959,1923,1872
1984,1840,1919
1966,1811,1915
1926,1835,1889
1951,1861,1913
1978,1884,1950
1959,1870,1920
1922,1834,1874
1918,1820,1888
1958,1856,1935
1975,1901,1941
1935,1882,1941
1923,1899,1953
1952,1811,1969
1920,1754,1927
1892,1786,1885
1899,1817,1885
1949,1872,1963
1962,1900,1984
1936,1802,1945
1936,1806,1936
1950,1869,1963
1946,1875,1963
1907,1827,1907
1927,1823,1930
1973,1826,1993
1946,1834,1974
1886,1878,1921
1893,1859,1927
1918,1750,1978
1891,1769,1997
1823,1777,1950
1812,1783,1957
1815,1811,1983
1793,1802,1984
1767,1795,1964
1766,1802,1981
1791,1798,2000
1777,1794,1986
1745,1785,1946
1776,1793,1983
1822,1846,2032
1791,1797,1982
1758,1751,1946
1786,1781,1977
1827,1802,2062
1823,1840,2041
1789,1785,1963
1797,1822,1968
1820,1761,2000
1808,1723,1981
1788,1775,1972
1808,1829,1982
1840,1747,2001
1824,1790,1997
1779,1821,1933
1795,1743,1943
1857,1764,1975
1855,1779,1988
1795,1799,1934
1839,1743,1966
1820,1791,1983
1788,1762,1968
1771,1740,1934
1808,1792,1965
1591,1791,1999
1744,1776,1995
1813,1698,1915
1802,1665,1932
1822,1712,1983
1838,1760,2000
1831,1713,1959
1862,1788,1953
1865,1762,1969
1839,1718,1975
1521,1714,1936
1011,1706,1936
1402,1758,1961
1625,1693,1961
1603,1706,1951
1610,1697,1962
1648,1702,2000
1639,1690,1962
1600,1712,1907
1606,1730,1946
1632,1731,1986
1766,1698,1969
1889,1703,1913
1947,1782,1947
1897,1685,1987
1835,1591,1957
1835,1583,1902
1872,1686,1897
1904,1744,1981
1888,1681,1973
1864,1673,1920
1872,1669,1915
1888,1638,1952
1859,1662,1951
1829,1693,1908
1856,1719,1943
1891,1739,1986
1854,1622,1937
1804,1595,1872
1843,1622,1898
1904,1654,1934
1931,1680,1955
1872,1675,1893
1847,1617,1904
1885,1679,1958
1884,1680,1947
1840,1658,1879
1856,1630,1904
1899,1681,1962
1857,1639,1918
1839,1628,1893
1863,1646,1905
1904,1649,1957
1856,1719,1928
1821,1627,1871
1841,1627,1873
1894,1635,1949
1885,1589,1951
1851,1731,1886
1846,1712,1842
1868,1566,1904
1883,1661,1931
1855,1675,1873
1845,1676,1901
1861,1616,1935
1869,1651,1920
1840,1669,1866
1843,1647,1882
1883,1700,1927
1865,1690,1895
1823,1664,1845
1834,1665,1867
1872,1635,1939
1875,1609,1936
1826,1730,1869
1824,1689,1853
1872,1648,1903
1859,1691,1904
1829,1602,1838
1821,1625,1865
1872,1735,1914
1840,1642,1904
1808,1527,1856
1813,1633,1868
1841,1699,1910
1840,1665,1887
1817,1616,1824
1824,1652,1868
1875,1705,1940
1857,1680,1897
1775,1598,1805
1744,1603,1827
1805,1667,1905
1802,1625,1899
1769,1565,1833
1776,1680,1854
1828,1685,1909
1808,1631,1886
1757,1712,1840
1771,1666,1855
1797,1687,1898
1794,1743,1904
1765,1762,1855
1746,1643,1815
1766,1535,1862
1775,1634,1863
1751,1659,1840
1757,1702,1856
1791,1744,1904
1803,1791,1921
1760,1650,1806
1769,1616,1819
1826,1766,1902
1808,1814,1923
1718,1589,1817
1717,1599,1814
1760,1650,1900
1765,1687,1903
1744,1709,1857
1774,1712,1862
1804,1747,1904
1787,1798,1887
1750,1715,1839
1761,1680,1840
1798,1724,1886
1806,1709,1921
1782,1823,1887
1759,1711,1817
1792,1717,1811
1839,1792,1815
1763,1616,1872
1719,1735,1875
1755,1792,1905
1787,1744,1899
1775,1773,1847
1753,1806,1858
1804,1831,1910
1792,1698,1870
1763,1705,1797
1776,1767,1830
1823,1807,1902
1805,1790,1889
1773,1770,1833
1797,1770,1851
1842,1883,1904
1843,1899,1879
1785,1726,1877
1785,1723,1865
1808,1744,1808
1766,1822,1803
1808,1776,1818
1791,1680,1853
1817,1872,1904
1835,1845,1849
1776,1713,1834
1779,1675,1887
1831,1860,1936
1819,1887,1895
1773,1809,1835
1787,1690,1821
1819,1814,1861
1821,1773,1872
1793,1693,1823
1838,1791,1841
1907,1856,1897
1853,1855,1897
1787,1695,1808
1759,1750,1840
1818,1789,1904
1822,1792,1822
1844,1904,1835
1895,1934,1876
1811,1685,1813
1744,1611,1833
1814,1719,1863
1845,1758,1841
1867,1783,1889
1823,1841,1879
1745,1777,1833
1753,1659,1841
1808,1680,1897
1814,1739,1879
1744,1807,1824
1770,1754,1842
1830,1953,1912
1803,1770,1872
1765,1654,1817
1774,1567,1827
1808,1783,1838
1808,1744,1837
1807,1776,1836
1815,1745,1825
1822,1697,1872
1762,1823,1852
1730,1570,1774
1775,1457,1808
1787,1708,1863
1818,1708,1859
1783,1687,1817
1787,1712,1856
1840,1824,1907
1825,1744,1831
1744,1657,1815
1770,1635,1840
1799,1649,1899
1776,1675,1890
1777,1605,1826
1766,1659,1829
1796,1663,1851
1797,1712,1840
1795,1770,1858
1831,1690,1851
1866,1625,1856
1808,1788,1871
1729,1653,1808
1756,1585,1798
1825,1626,1870
1803,1699,1894
1802,1844,1855
1820,1714,1834
1838,1644,1858
1808,1674,1862
1783,1723,1856
1775,1649,1815
1837,1671,1857
1795,1705,1851
1797,1783,1825
1809,1790,1827
1808,1690,1824
1790,1618,1834
1776,1642,1808
1798,1862,1881
1830,1784,1891
1801,1678,1808
1767,1659,1806
1794,1687,1833
1825,1882,1915
1824,1830,1883
1793,1685,1811
1798,1693,1829
1837,1727,1876
1815,1854,1889
1794,1776,1813
1817,1683,1833
1856,1774,1904
1830,1776,1879
1770,1783,1809
1801,1791,1815
1821,1749,1861
1820,1750,1870
1810,1777,1859
1829,1840,1856
1827,1841,1883
1827,1821,1872
1827,1749,1815
1810,1771,1844
1824,1853,1898
1841,1902,1893
1828,1808,1835
1793,1696,1838
1831,1753,1884
1859,1872,1876
1824,1810,1841
1844,1837,1869
1895,1886,1885
1808,1742,1852
1775,1786,1815
1840,1774,1872
1913,1820,1919
1914,1797,1872
1814,1786,1829
1855,1870,1872
1910,1861,1880
1837,1792,1875
1798,1905,1856
1895,1878,1841
1936,1879,1911
1807,1881,1892
1778,1789,1845
1833,1728,1834
1916,1817,1887
1936,1898,1860
1852,1835,1826
1808,1814,1837
1956,1875,1898
1931,1953,1899
1951,1884,1866
1993,1791,1806
1911,1821,1858
1919,1846,1850
1889,1845,1847
1851,1847,1934
1869,1836,1911
1858,1937,1889
1813,1796,1827
1837,1797,1838
1863,1822,1872
1883,1924,1883
1839,1830,1819
1839,1809,1829
1870,1902,1888
1868,1845,1881
1840,1849,1818
1847,1899,1823
1893,1876,1838
1840,1840,1895
1830,1796,1891
1833,1869,1873
1828,1849,1886
1847,1836,1862
1876,1843,1819
1842,1913,1887
1862,1851,1898
1870,1814,1847
1865,1769,1808
1842,1799,1783
1854,1967,1937
1845,1857,1936
1811,1767,1819
1872,1760,1841
1859,1879,1910
1815,1925,1894
1808,1827,1839
1963,1834,1827
1903,1746,1839
1770,1784,1852
1776,1836,1794
1904,1867,1836
1885,1845,1891
1837,1834,1894
1795,1921,1834
1822,1780,1841
1874,1766,1856
1874,1837,1847
1854,1787,1833
1837,1808,1812
1857,1834,1872
1850,1822,1872
1967,1875,1833
1850,1833,1790
1934,1775,1834
1875,1833,1905
1789,1831,1865
1793,1808,1839
1824,1838,1855
1872,1809,1773
1873,1802,1827
1839,1776,1872
1840,1919,1891
1821,1859,1834
1818,1767,1755
1859,1853,1842
1921,1909,1915
1872,1826,1856
1822,1744,1791
1873,1791,1835
1884,1883,1936
1855,1878,1872
1862,1850,1757
1857,1776,1788
1898,1858,1861
1817,1817,1863
1810,1887,1883
1825,1840,1869
1868,1809,1904
1935,1811,1929
1847,1840,2007
1783,1872,2003
1813,1872,1885
1850,1791,1794
1774,1793,1772
1765,1860,1834
1826,1857,1855
1973,1826,1791
1794,1810,1760
1734,1794,1867
1803,1883,1887
1857,1964,1845
1836,1824,1778
1799,1759,1814
1808,1774,1887
1797,1898,1870
1794,1837,1785
1825,1792,1817
1831,1819,1856
1793,1847,1857
1822,1872,1745
1793,1842,1798
1830,1923,1914
1810,1921,1833
1886,1808,1767
1761,1862,1825
1737,1786,1883
1741,1761,1814
1766,1822,1764
1825,1808,1816
1882,1893,1898
1795,1990,1873
1767,1845,1774
1861,1808,1795
1835,1824,1889
1754,1902,1870
1775,1786,1792
1823,1776,1826
1808,1872,2157
1758,1900,2059
1776,1833,1835
1844,1871,1855
1791,1937,1894
1754,1979,1850
1868,1907,1764
1787,1793,1814
1741,1801,1907
1744,1808,1879
1754,1857,1783
1763,1905,1791
1792,1921,1871
1823,1975,1884
1743,1749,1804
1699,1775,1812
1746,1954,1888
1793,1932,1858
1776,1805,1783
1718,1782,1883
1745,1872,1878
1744,1878,1822
1734,1841,1776
1835,1925,1821
1808,1905,1853
1770,1797,1806
1727,1837,1854
1782,1843,1838
1786,1923,1817
1741,1904,1779
1729,1807,1801
1774,1802,1823
1750,1850,1830
1738,1929,1839
1772,1893,1825
1808,1844,1827
1802,1878,1835
1738,1873,1814
1713,1808,1831
1746,1790,1817
1807,1863,1834
1781,1895,1828
1744,1914,1834
1763,1838,1838
1807,1874,1834
1789,1829,1827
1782,1857,1833
1774,1856,1775
1795,1872,1840
1776,1826,1826
1826,1778,1805
1781,1846,1830
1775,1946,1856
1787,1929,1739
1741,1770,1681
1760,1779,1744
1790,1879,1813
1819,1850,1807
1829,1853,1750
1803,1874,1762
1811,1871,1787
1782,1920,1772
1767,1895,1840
1744,1765,1759
1792,1817,1792
1829,1904,1793
1814,1827,1754
1802,1821,1757
1841,1943,1820
1798,1911,1787
1769,1767,1742
1808,1798,1742
1842,1859,1845
1823,1894,1808
1814,1951,1792
1904,1861,1775
1850,1778,1868
1805,1786,1798
1817,1856,1820
1841,1890,1809
1823,1893,1850
1808,1833,1833
1806,1850,1826
1843,1896,1839
1857,1840,1788
1877,1889,1718
1836,1841,1739
1855,1822,1811
1862,1785,1853
1843,1836,1824
1893,1887,1767
1877,1865,1809
1795,1847,1872
1785,1867,1825
1801,1854,1797
1855,1825,1860
1890,1817,1792
1907,1893,1807
1851,1808,1838
1829,1766,1795
1868,1846,1872
1862,1821,1891
1840,1776,1823
1881,1916,1849
1872,1855,1857
1885,1828,1803
1838,1848,1791
1862,1813,1833
1890,1917,1869
1885,1778,1856
1903,1763,1786
1872,1786,1823
1883,1840,1875
1870,1936,1898
1860,1772,1840
1902,1815,1834
1902,1897,1874
1855,1839,1856
1843,1798,1834
1918,1790,1840
1942,1887,1888
1867,1802,1829
1875,1825,1810
1904,1837,1844
1920,1835,1866
1874,1852,1883
1938,1826,1838
1974,1885,1905
1871,1883,1894
1833,1803,1846
1858,1749,1835
1970,1809,1853
1973,1875,1925
1927,1865,1903
1849,1775,1808
1866,1856,1856
1991,1868,1907
1954,1844,1857
1790,1792,1840
1875,1856,1872
1936,1843,1911
1921,1819,1845
1866,1865,1882
1913,1803,1878
1931,1803,1902
1903,1814,1875
1815,1815,1837
1930,1915,1873
1926,1849,1893
1954,1743,1808
1889,1808,1840
1873,1842,1887
1906,1833,1892
1925,1855,1855
1882,1799,1823
1899,1819,1846
1927,1809,1881
1893,1814,1840
1843,1824,1827
1888,1836,1878
1899,1856,1904
1901,1766,1850
1902,1790,1831
1941,1871,1857
1982,1835,1863
1989,1801,1856
1921,1785,1858
1888,1752,1776
1905,1814,1800
1840,1872,1883
1881,1810,1889
1914,1726,1906
1931,1833,1895
1943,1872,1840
1907,1793,1829
1934,1861,1867
1980,1789,1891
1936,1791,1831
1904,1816,1830
1875,1840,1877
1911,1866,1874
1905,1754,1856
1934,1759,1806
1948,1834,1862
1972,1869,1905
1957,1917,1891
1885,1858,1840
1843,1808,1857
1949,1723,1882
1861,1811,1866
1872,1824,1859
1919,1904,1853
1992,1882,1887
1921,1806,1857
1907,1755,1838
1905,1804,1861
1883,1870,1858
1873,1890,1847
1872,1823,1856
1877,1763,1875
1910,1806,1866
1922,1823,1870
1891,1837,1854
1897,1829,1851
1936,1841,1863
1857,1815,1862
1874,1780,1835
1866,1872,1859
1952,1870,1887
1951,1843,1871
1839,1775,1805
1854,1751,1836
1875,1854,1872
1903,1902,1853
1857,1787,1833
1905,1837,1846
1918,1793,1879
1860,1798,1850
1840,1761,1808
1923,1757,1872
1926,1921,1901
1937,1809,1810
1804,1744,1803
1919,1735,1856
1923,1886,1907
1931,1889,1846
1893,1805,1824
1913,1819,1835
1936,1789,1885
1891,1745,1825
1859,1760,1808
1931,1808,1892
1989,1861,1902
1933,1865,1839
1867,1853,1822
1882,1822,1874
1930,1798,1895
1882,1741,1840
1867,1795,1819
1886,1858,1867
1915,1837,1915
1890,1735,1878
1879,1795,1805
1946,1923,1857
1996,1968,1904
1859,1824,1861
1817,1616,1813
1888,1758,1850
1914,1877,1904
1904,1869,1877
1970,1795,1815
1840,1775,1872
1951,1872,1874
1858,1952,1875
1894,1776,1809
1907,1775,1882
1931,1829,1899
1872,1790,1835
1890,1763,1811
2001,1838,1870
1929,1837,1920
1904,1803,1871
1886,1925,1813
1951,1840,1839
1903,1788,1902
1875,1781,1871
1937,1840,1879
1913,1872,1898
1913,1818,1870
1931,1811,1843
1889,1770,1811
1871,1821,1863
1913,1847,1907
1935,1941,1915
1922,1911,1846
1904,1777,1829
1933,1772,1881
1917,1761,1853
1862,1808,1822
1896,1855,1872
1929,1872,1893
1867,1893,1872
1895,1915,1886
1903,1770,1893
1969,1739,1890
1915,1778,1865
1874,1795,1837
1947,1821,1879
1865,1931,1886
1920,1799,1855
1860,1713,1840
1914,1907,1900
1948,1885,1899
1893,1737,1842
1872,1744,1826
1922,1903,1872
1927,1859,1883
1890,1776,1843
1915,1735,1822
1936,1840,1871
1924,1851,1889
1891,1826,1862
1940,1815,1862
1968,1813,1866
1927,1873,1921
1875,1949,1875
1906,1819,1837
1911,1712,1831
1887,1808,1901
1891,1837,1892
1894,1794,1872
1905,1847,1872
1935,1830,1905
1937,1908,1897
1920,1949,1886
1927,1911,1891
1923,1775,1892
1906,1762,1870
1920,1833,1856
1985,1827,1892
1958,1895,1909
1906,1899,1888
1882,1828,1840
1910,1839,1873
1965,1915,1919
1946,1837,1853
1888,1871,1815
1961,1875,1871
1923,1933,1907
1888,1886,1899
1869,1747,1872
1947,1857,1899
1970,1993,1918
1906,1814,1872
1873,1797,1853
1929,1942,1886
1938,1917,1894
1887,1850,1841
1878,1840,1822
1931,1913,1875
1952,1863,1920
1904,1818,1882
1882,1840,1810
1923,1899,1858
1933,1846,1919
1904,1859,1887
1919,1942,1847
1908,1810,1835
1938,1823,1847
1889,1799,1879
1884,1853,1858
1888,1890,1870
1934,1918,1883
1914,1891,1841
1883,1820,1805
1883,1867,1825
1915,1969,1883
1890,1882,1839
1877,1685,1804
1933,1741,1855
1942,1891,1909
1934,1879,1818
1836,1808,1801
1874,1854,1870
1909,1887,1903
1891,1845,1855
1895,1811,1833
1920,1843,1859
1916,1890,1895
1875,1789,1838
1885,1840,1799
1903,1808,1797
1921,1897,1872
1865,1825,1886
1891,1869,1851
1893,1894,1827
1909,1797,1879
1933,1727,1840
1853,1791,1815
1849,1894,1866
1906,1870,1895
1899,1860,1873
1872,1904,1835
1888,1810,1826
1909,1909,1884
1902,1872,1866
1869,1808,1969
1897,2018,1926
1918,1860,1851
1894,1810,1822
1891,1757,1840
1889,1804,1837
1920,1872,1845
1927,1853,1842
1873,1849,1828
1904,1905,1853
1883,1904,1866
1837,1905,1843
1872,1814,1833
1885,1843,1833
1901,1869,1878
1886,1935,1840
1895,1759,1810
1917,1845,1857
1921,1926,1883
1872,1822,1857
1862,1789,1840
1887,1854,1857
1916,1893,1863
1916,1872,1845
1894,1875,1853
1907,1940,1877
1926,1911,1842
1898,1826,1827
1856,1785,1819
1879,1830,1869
1916,1875,1875
1867,1825,1823
1873,1828,1814
1907,1856,1846
1920,2000,1895
1874,1811,1833
1843,1792,1795
1909,1879,1855
1939,1873,1862
1919,1834,1837
1925,1797,1827
1888,1889,1827
1924,1903,1835
1858,1792,1821
1853,1807,1842
1941,1850,1849
1959,1870,1857
1847,1851,1861
1835,1822,1834
1898,1845,1849
1936,1904,1877
1909,1925,1853
1877,1827,1808
1909,1863,1827
1942,1845,1899
1911,1975,1869
1877,1869,1808
1897,1787,1809
1933,1811,1842
1907,1904,1838
1877,1860,1824
1882,1806,1857
1910,1853,1922
1952,1805,1843
1855,1850,1798
1872,1891,1847
1911,1917,1891
1903,1923,1859
1854,1798,1779
1872,1827,1811
1906,1922,1872
1906,1888,1867
1882,1856,1830
1894,1895,1845
1898,1856,1845
1869,1792,1814
1847,1821,1798
1884,1831,1840
1897,1909,1883
1862,1856,1837
1851,1750,1814
1879,1841,1862
1908,1891,1893
1873,1904,1822
1849,1913,1807
1900,1863,1867
1904,1903,1876
1872,1815,1827
1824,1739,1791
1849,1805,1827
1877,1887,1874
1867,1904,1840
1842,1808,1797
1904,1819,1829
1931,1954,1883
1885,1967,1842
1831,1819,1805
1906,1891,1827
1904,1862,1874
1863,1902,1843
1845,1746,1790
1842,1797,1830
1857,1849,1871
1867,1930,1855
1867,1844,1809
1909,1884,1802
1890,1856,1849
1831,1841,1795
1841,2027,1821
1861,1965,1840
1872,1773,1857
1842,1797,1823
1862,1815,1813
1902,1840,1814
1890,1878,1851
1865,1872,1839
1883,1904,1807
1873,1802,1808
1889,1887,1850
1862,1973,1817
1840,1883,1825
1872,1808,1841
1887,1739,1823
1894,1818,1845
1854,1898,1819
1874,1860,1819
1885,1939,1871
1866,1913,1851
1869,1851,1829
1902,1883,1842
1889,1879,1856
1870,1935,1806
1829,1809,1801
1856,1835,1815
1894,1871,1855
1870,1773,1815
1866,1815,1829
1867,1895,1869
1920,1824,1904
1882,1923,1827
1830,1863,1788
1866,1892,1859
1897,1869,1873
1855,1862,1814
1833,1885,1808
1861,1783,1848
1881,1856,1859
1840,1776,1786
1829,1787,1782
1880,1870,1855
1889,1921,1904
1851,1790,1820
1872,1826,1799
1903,1888,1846
1903,2013,1891
1909,1935,1844
1803,1730,1795
1858,1791,1859
1875,1771,1869
1839,1791,1794
1840,1840,1799
1871,1930,1870
1893,1862,1854
1852,1873,1825
1854,1799,1824
1871,1849,1843
1892,1946,1878
1840,1835,1819
1795,1823,1775
1841,1765,1795
1919,1808,1843
1865,1858,1849
1807,1883,1808
1840,1782,1790
1849,1726,1793
1898,1792,1821
1898,1886,1807
1842,1869,1845
1851,1858,1861
1820,1875,1795
1802,1776,1774
1856,1846,1840
1891,1929,1869
1840,1855,1826
1804,1729,1805
1840,1715,1838
1879,1853,1866
1859,1951,1799
1839,1762,1765
1822,1776,1794
1870,1911,1851
1847,1917,1842
1856,1755,1834
1871,1819,1829
1891,1860,1839
1875,1875,1793
1820,1793,1762
1826,1724,1840
1853,1899,1886
1833,1849,1808
1808,1749,1767
1836,1861,1780
1870,1869,1851
1866,1837,1839
1820,1808,1759
1833,1857,1795
1845,1795,1849
1818,1853,1823
1819,1840,1776
1846,1744,1803
1862,1757,1835
1843,1846,1792
1822,1915,1793
1839,1851,1824
1849,1821,1831
1851,1777,1797
1839,1825,1770
1859,1917,1824
1878,1894,1866
1810,1797,1798
1839,1776,1794
1906,1823,1840
1887,1809,1813
1776,1821,1781
1757,1829,1785
1834,1863,1845
1863,1878,1857
1840,1897,1817
1829,1847,1791
1856,1871,1780
1856,1807,1858
1808,1797,1815
1798,1773,1776
1839,1827,1808
1861,1877,1851
1860,1901,1858
1861,1887,1791
1829,1735,1779
1793,1776,1826
1776,1867,1793
1790,1825,1777
1840,1782,1826
1870,1852,1865
1826,1904,1825
1808,1837,1781
1857,1869,1834
1873,1873,1814
1825,1800,1767
1806,1802,1798
1840,1808,1815
1863,1875,1872
1835,1834,1815
1819,1787,1807
1821,1908,1824
1875,1952,1856
1816,1829,1789
1793,1780,1765
1823,1840,1841
1854,1789,1861
1808,1815,1795
1799,1793,1774
1827,1835,1793
1881,1818,1841
1835,1845,1839
1797,1815,1803
1843,1894,1839
1871,1918,1874
1813,1879,1821
1795,1783,1773
1869,1857,1841
1907,1855,1869
1859,1953,1840
1803,1763,1781
1840,1757,1801
1841,1906,1847
1825,1817,1816
1826,1789,1805
1872,1823,1879
1865,1914,1903
1817,1866,1854
1808,1839,1803
1849,1861,1820
1862,1878,1855
1850,1760,1823
1841,1869,1817
1851,1883,1827
1866,1902,1847
1854,1875,1825
1819,1793,1783
1862,1883,1840
1827,1914,1865
1808,1814,1825
1847,1754,1794
1821,1834,1825
1839,1857,1888
1840,1877,1861
1808,1791,1797
1834,1862,1813
1853,1901,1861
1846,1869,1834
1844,1906,1802
1840,1856,1822
1830,1817,1863
1811,1829,1823
1825,1781,1810
1855,1841,1840
1866,1922,1869
1904,1834,1808
1838,1801,1809
1829,1902,1862
1845,1904,1887
1840,1846,1841
1825,1839,1813
1872,1918,1867
1873,1807,1862
1819,1952,1837
1824,1892,1828
1859,1765,1862
1872,1792,1875
1841,1821,1838
1831,1837,1793
1872,1917,1856
1878,1899,1874
1842,1814,1856
1849,1861,1839
1902,1917,1859
1889,1867,1847
1829,1835,1825
1840,1840,1825
1882,1871,1878
1845,1811,1860
1851,1819,1807
1843,1951,1815
1875,1987,1875
1870,1805,1872
1823,1794,1840
1839,1801,1839
1855,1845,1847
1859,1875,1871
1905,1890,1857
1872,1890,1823
1894,1908,1859
1858,1914,1890
1818,1882,1846
1850,1884,1872
1911,1935,1874
1953,1786,1836
1824,1792,1821
1808,1826,1840
1877,1922,1886
1875,1871,1888
1839,1853,1826
1870,1995,1823
1859,1868,1852
1877,1853,1901
1872,1869,1888
1871,1850,1825
1843,1851,1839
1847,1855,1872
1825,1878,1838
1860,1855,1817
1888,1876,1872
1866,1873,1878
1843,1975,1828
1827,1891,1810
1861,1847,1826
1871,1879,1865
1853,1791,1856
1861,1728,1815
1869,1841,1906
1878,1921,1945
1826,1879,1851
1824,1871,1785
1842,1904,1869
1859,1936,1857
1831,1797,1863
1853,1858,1836
1875,1923,1840
1869,1905,1865
1827,1809,1791
1807,1770,1771
1863,1839,1856
1904,1872,1874
1852,1887,1836
1814,1856,1838
1842,1813,1811
1900,1919,1855
1850,1935,1811
1837,1845,1840
1871,1861,1851
1874,1805,1845
1835,1857,1795
1798,1863,1799
1842,1839,1872
1873,1888,1876
1869,1890,1806
1860,1828,1808
1846,1837,1833
1868,1904,1866
1813,1885,1823
1825,1876,1836
1905,1904,1870
1926,1895,1893
1856,1872,1842
1840,1840,1779
1911,1864,1831
1893,1925,1936
1851,1828,1895
1831,1838,1862
1872,1941,1847
1902,1966,1888
1843,1808,1781
1840,1810,1789
1893,1912,1875
1931,1968,1978
1883,1871,1840
1832,1835,1808
1859,1861,1829
1880,1902,1920
1888,1939,1909
1857,1918,1852
1892,1882,1863
1902,1984,1876
1873,1818,1829
1872,1796,1805
1871,1869,1874
1895,1911,1895
1872,1927,1873
1844,1871,1860
1856,1957,1831
1872,1920,1824
1867,1829,1853
1879,1840,1877
1925,1891,1849
1872,1935,1886
1831,1891,1887
1843,1807,1858
1885,1825,1842
1885,1911,1854
1840,1875,1834
1855,1871,1835
1910,1918,1898
1891,1896,1850
1847,1942,1821
1845,1913,1830
1866,1921,1815
1872,1889,1855
1837,1873,1875
1841,1873,1786
1893,1878,1824
1893,1897,1862
1808,1843,1858
1811,1837,1811
1858,1904,1851
1872,1895,1843
1849,1872,1823
1855,1934,1789
1853,1785,1828
1845,1780,1879
1830,1902,1844
1853,1949,1811
1875,1941,1853
1901,1835,1850
1854,1739,1814
1845,1729,1823
1904,1912,1845
1891,1935,1856
1811,1867,1817
1810,1990,1839
1843,1846,1820
1874,1791,1872
1831,1769,1783
1839,1776,1840
