1854,1812,1818
1863,1825,1840
1886,1937,1865
1874,1887,1869
1860,1919,1815
1847,1865,1823
1861,1858,1861
1869,1839,1862
1845,1781,1789
1851,1737,1815
1886,1888,1851
1867,1904,1849
1826,1821,1791
1830,1806,1787
1894,1844,1869
1875,1886,1882
1847,1947,1830
1834,1844,1790
1875,1831,1863
1872,1856,1857
1835,1771,1781
1855,1764,1802
1891,1818,1867
1913,1872,1856
1847,1851,1808
1855,1803,1808
1902,1850,1843
1854,1843,1842
1803,1850,1795
1828,1801,1826
1899,1918,1868
1879,1861,1831
1859,1789,1807
1842,1717,1797
1875,1834,1861
1872,1839,1854
1851,1802,1797
1853,1815,1801
1889,1890,1878
1889,1898,1872
1849,1826,1793
1858,1818,1834
1897,1898,1885
1888,1885,1876
1868,1799,1825
1877,1825,1806
1915,1808,1851
1893,1791,1853
1870,1843,1814
1854,1882,1857
1902,1936,1906
1892,1877,1887
1856,1866,1854
1860,1816,1856
1905,1979,1904
1887,1913,1874
1849,1729,1813
1871,1744,1818
1903,1835,1888
1904,1891,1875
1879,1893,1809
1863,1829,1837
1893,1885,1875
1873,1911,1867
1843,1829,1821
1869,1808,1829
1888,1851,1893
1877,1891,1875
1847,1879,1815
1871,1883,1840
1874,1811,1868
1895,1809,1856
1859,1904,1829
1836,1853,1807
1866,1907,1846
1881,1846,1889
1840,1762,1806
1829,1787,1789
1867,1862,1842
1869,1914,1868
1845,1886,1806
1846,1888,1802
1869,1810,1838
1899,1824,1870
1851,1808,1803
1841,1804,1790
1861,1866,1840
1872,1869,1842
1840,1786,1795
1838,1847,1754
1871,1859,1853
1877,1883,1872
1830,1951,1839
1854,1872,1872
1845,1747,1834
1839,1754,1817
1822,1808,1767
1856,1829,1850
1891,1893,1863
1862,1864,1875
1838,1773,1840
1847,1853,1779
1877,1867,1863
1869,1889,1813
1859,1858,1809
1863,1796,1790
1886,1893,1894
1873,1881,1872
1818,1798,1861
1827,1841,1840
1863,1855,1845
1891,1845,1887
1877,1840,1818
1866,1848,1849
1869,1861,1862
1857,1808,1860
1824,1840,1791
1860,1892,1858
1917,1872,1867
1914,1885,1872
1871,1803,1792
1850,1818,1843
1891,1879,1905
1885,1902,1875
1875,1805,1808
1858,1840,1845
1872,1878,1879
1861,1901,1859
1845,1794,1829
1875,1846,1833
1881,1872,1870
1871,1884,1824
1847,1902,1830
1855,1871,1843
1904,1839,1866
1877,1815,1843
1851,1835,1834
1845,1904,1797
1877,1906,1846
1877,1943,1897
1838,1869,1825
1843,1745,1808
1883,1901,1887
1867,1881,1867
1831,1829,1763
1826,1803,1755
1862,1818,1856
1847,1853,1862
1834,1855,1795
1856,1872,1815
1898,1970,1910
1873,1920,1808
1837,1782,1777
1840,1733,1761
1872,1893,1803
1872,1957,1883
1815,1853,1812
1821,1773,1777
1872,1840,1797
1861,1872,1861
1830,1827,1767
1828,1822,1742
1851,1826,1838
1867,1963,1854
1819,1904,1835
1831,1776,1857
1842,1827,1873
1840,1815,1834
1811,1843,1765
1831,1808,1845
1866,1802,1862
1855,1904,1840
1829,1865,1808
1827,1838,1840
1863,1798,1872
1859,1879,1866
1840,1936,1811
1857,1886,1808
1877,1822,1895
1866,1808,1872
1825,1823,1825
1824,1921,1863
1849,1920,1845
1852,1783,1819
1827,1775,1805
1824,1806,1839
1856,1895,1856
1862,1955,1873
1857,1959,1843
1841,1798,1809
1871,1854,1851
1873,1842,1866
1838,1808,1791
1847,1834,1808
1895,1858,1891
1889,1911,1895
1861,1910,1838
1850,1854,1732
1904,1872,1830
1872,1929,1901
1834,1873,1823
1867,1882,1858
1895,1856,1899
1856,1830,1847
1841,1803,1848
1845,1840,1808
1889,1919,1887
1881,1881,1845
1828,1817,1803
1862,1857,1878
1898,1904,1918
1874,1995,1871
1846,1903,1853
1838,1808,1817
1882,1821,1851
1858,1815,1827
1856,1808,1806
1873,1845,1840
1925,1900,1867
1895,1903,1855
1825,1856,1778
1827,1815,1793
1883,1877,1923
1890,1947,1892
1866,1904,1861
1847,1895,1808
1871,1808,1843
1861,1746,1909
1841,1792,1793
1869,1901,1855
1882,1916,1901
1867,1847,1838
1838,1821,1783
1850,1837,1807
1903,1893,1866
1883,1904,1819
1878,1858,1822
1841,1807,1802
1861,1843,1866
1853,1825,1889
1845,1807,1758
1851,1797,1799
1872,1818,1878
1870,1811,1907
1861,1894,1725
1873,2037,1785
1886,1891,1852
1860,1777,1799
1830,1776,1781
1853,1875,1698
1894,1840,1874
1891,1914,1869
1861,1805,1824
1873,1779,1812
1903,1819,1877
1879,1915,1854
1859,1936,1808
1853,1873,1813
1859,1831,1845
1881,1791,1840
1843,1862,1807
1855,1904,1815
1904,1860,1872
1875,1835,1850
1867,1868,1812
1871,1878,1835
1907,1943,1871
1892,1894,1863
1851,1801,1803
1864,1803,1794
1899,1893,1859
1886,1840,1866
1866,1829,1808
1877,1921,1822
1897,1909,1854
1884,1841,1845
1872,1840,1808
1883,1872,1819
1927,1901,1856
1908,1893,1842
1886,1858,1797
1934,1963,1851
1910,1878,1895
1840,1827,1865
1808,1818,1776
1839,1863,1835
1969,1995,1901
1932,1885,1877
1898,1783,1814
1917,1829,1807
1903,1991,1889
1938,1898,1861
1875,1819,1817
1887,1855,1827
1943,1930,1891
1930,1872,1847
1947,1824,1809
1892,1821,1837
1938,1863,1894
1918,1947,1863
1875,1866,1814
1867,1830,1821
1904,1842,1877
1932,1898,1886
1938,1983,1843
1889,1894,1811
1929,1840,1847
1873,1826,1866
1878,1823,1808
1890,1856,1837
1952,1913,1867
1903,1887,1827
1874,1856,1830
1902,1872,1849
1891,1905,1886
1955,1990,1909
1867,1822,1776
1840,1785,1797
1882,1854,1872
1909,1915,1863
1871,1892,1851
1857,1911,1829
1897,1918,1840
1936,1839,1854
1840,1814,1819
1905,1847,1840
1936,1941,1890
1926,2017,1875
1872,1823,1823
1879,1825,1847
1895,1842,1859
1898,1865,1857
1907,1869,1833
1909,1885,1855
1964,1923,1899
1955,1918,1887
1866,1887,1833
1858,1883,1833
1920,1921,1883
1966,1933,1891
1920,1891,1840
1929,1883,1854
1931,1904,1901
1959,1906,1891
1877,1874,1838
1875,1888,1830
1943,1915,1891
1952,1911,1893
1902,1890,1862
1907,1885,1872
1964,1917,1917
1937,1905,1891
1848,1865,1829
1917,1874,1851
1951,1927,1903
1910,1901,1903
1887,1845,1845
1951,1865,1877
2021,1920,1936
2037,1913,1931
1924,1856,1845
1939,1827,1855
2016,1841,1872
2032,1862,1904
2031,1820,1888
2028,1807,1879
2064,1826,1915
2106,1821,1923
2121,1822,1918
2110,1803,1901
2105,1780,1905
2195,1751,1898
2117,1744,1898
2177,1766,1936
2186,1750,1939
2119,1696,1877
2106,1662,1834
2192,1703,1893
2355,1808,2027
2339,1760,1980
2188,1611,1808
2192,1591,1805
2283,1648,1886
2326,1649,1897
2288,1632,1859
2319,1646,1865
2415,1674,1908
2375,1662,1897
2352,1651,1859
2394,1659,1872
2454,1695,1923
2411,1678,1901
2415,1653,1847
2452,1678,1872
2448,1710,1907
2460,1690,1870
2416,1662,1818
2402,1687,1847
2514,1745,1906
2507,1760,1918
2381,1729,1857
2433,1705,1835
2433,1743,1870
2365,1762,1875
2400,1773,1862
2415,1789,1872
2415,1786,1878
2427,1791,1857
2356,1787,1819
2429,1828,1857
2459,1863,1904
2383,1861,1885
2414,1831,1824
2406,1829,1827
2302,1856,1870
1933,1873,1877
1210,1872,1847
1207,1878,1841
2034,1907,1889
2075,1927,1881
1891,1911,1827
1754,1921,1845
1840,1967,1903
1814,1970,1892
1837,1938,1842
1840,1947,1855
1906,1984,1905
1796,1983,1898
1810,1958,1859
1872,1969,1870
1872,2000,1905
1830,2000,1902
1829,1981,1863
1837,1990,1885
1857,1989,1923
1811,1990,1915
1834,1970,1870
1811,1970,1870
1825,2000,1877
1827,2019,1852
1838,1999,1805
1838,2028,1808
1839,2058,1845
1835,2035,1833
1835,1997,1783
1833,2009,1797
1831,2045,1831
1831,2055,1821
1826,2000,1773
1838,1996,1776
1867,2043,1817
1872,2146,1840
1855,2175,1793
1831,1930,1735
1868,1889,1763
1868,1939,1776
1817,1984,1761
1828,2059,1793
1888,2064,1817
1878,2005,1790
1843,1919,1738
1840,1898,1737
1886,2026,1792
1884,2062,1792
1858,1917,1743
1857,1907,1759
1904,1955,1803
1886,1970,1793
1864,1948,1747
1877,1945,1761
1919,1984,1815
1908,1985,1813
1879,1960,1776
1897,1969,1782
1928,2001,1824
1903,1998,1808
1875,1969,1776
1880,1968,1797
1906,1986,1840
1919,1978,1838
1901,1962,1786
1904,1971,1810
1936,2005,1888
1917,1997,1882
1878,1961,1824
1887,1953,1830
1934,1990,1891
1927,1987,1891
1888,1944,1839
1895,1949,1840
1923,1979,1872
1921,1973,1890
1891,1939,1855
1895,1951,1859
1926,1981,1915
1910,1970,1901
1889,1936,1850
1901,1939,1863
1943,1968,1907
1936,1967,1895
1919,1943,1866
1936,1948,1874
1968,1967,1904
1958,1958,1904
1937,1926,1865
1952,1936,1877
1983,1963,1930
1979,1949,1906
1951,1924,1865
1971,1936,1878
2003,1971,1920
2000,1951,1904
1975,1921,1863
1984,1911,1887
2021,1943,1939
2000,1983,1917
1979,2042,1878
1967,1872,1849
1993,1821,1880
2000,1825,1882
1991,1934,1867
2000,2082,1872
2021,1968,1866
1987,1827,1815
1969,1817,1792
1990,1854,1826
2035,1991,1885
2058,1982,1840
2012,1922,1776
1990,1849,1767
2005,1981,1799
1968,1873,1810
1968,1808,1798
2000,1862,1827
2058,1943,1819
2032,1852,1755
1949,1897,1778
1904,1808,1845
1949,1808,1904
1959,1815,1866
1937,1795,1815
1967,1905,1847
1957,1935,1869
1926,1825,1872
1900,1758,1839
1427,1809,1866
1476,1984,1911
0,1919,1875
0,1762,1840
0,1718,1844
0,1862,1895
288,1928,1872
1663,1903,1833
2149,1641,1863
2014,1695,1887
1840,1855,1865
1794,1770,1778
1821,1616,1904
1840,1670,1975
1837,1744,1939
1839,1755,1853
1837,1750,1840
1843,1746,1910
1827,1742,1901
1832,1886,1881
1838,1913,1899
1838,1581,1839
1834,1509,1863
1831,1571,1831
1835,1685,1869
1831,1805,1871
1831,1652,1847
1835,1603,1859
1831,1633,1879
1837,1694,1891
1835,1856,1862
1838,1628,1830
1837,1491,1849
1836,1627,1895
1836,1717,1817
1795,1610,1751
1854,1535,1858
1953,1563,1945
1531,1579,1902
1761,1658,1836
538,1669,1813
0,1636,1887
0,1630,1926
0,1606,1845
0,1632,1808
333,1691,1850
1757,1563,1844
2218,1467,1787
2039,1496,1782
1856,1675,1843
1808,1662,1849
1833,1574,1817
1844,1499,1802
1843,1569,1836
1840,1623,1822
1842,1627,1807
1838,1534,1830
1840,1706,1862
1838,1673,1837
1831,1578,1780
1838,1514,1786
1838,1535,1841
1836,1613,1840
1839,1575,1791
1839,1636,1791
1835,1643,1834
1834,1625,1841
1837,1643,1823
1840,1635,1762
1837,1660,1827
1840,1671,1874
1836,1653,1840
1835,1678,1830
1834,1580,1817
1838,1583,1833
1877,1652,1807
1979,1625,1808
2094,1600,1827
2146,1645,1831
2178,1687,1774
2276,1699,1760
2357,1674,1808
2334,1619,1829
2379,1607,1802
2469,1648,1812
2496,1607,1805
2487,1584,1774
2517,1609,1747
2558,1648,1761
2621,1715,1796
2615,1668,1776
2625,1629,1705
2679,1636,1739
2697,1610,1781
2699,1625,1760
2706,1656,1751
2731,1648,1763
2771,1581,1765
2796,1645,1746
2734,1662,1706
2758,1664,1733
2828,1627,1776
2825,1631,1745
2800,1666,1703
2800,1682,1686
2863,1617,1741
2861,1667,1729
2836,1614,1654
2832,1638,1695
2873,1712,1773
2834,1578,1754
2787,1616,1685
2852,1776,1730
2895,1718,1755
2867,1642,1712
2832,1567,1676
2864,1618,1689
2892,1680,1746
2873,1665,1775
2818,1634,1701
2847,1679,1686
2880,1710,1745
2882,1697,1755
2835,1747,1734
2818,1661,1692
2864,1707,1709
2835,1648,1695
2829,1669,1707
2832,1701,1755
2843,1702,1762
2816,1642,1747
2769,1680,1683
2799,1682,1717
2802,1722,1755
2773,1647,1754
2754,1776,1723
2783,1793,1743
2802,1791,1800
2769,1742,1771
2734,1744,1728
2736,1682,1714
2766,1712,1768
2766,1744,1789
2750,1751,1728
2738,1782,1715
2758,1856,1808
2718,1716,1805
2672,1723,1748
2681,1773,1760
2751,1877,1812
2740,1803,1819
2669,1814,1739
2640,1835,1758
2679,1767,1830
2670,1798,1817
2653,1795,1773
2690,1815,1791
2667,1840,1833
2640,1861,1824
2602,1843,1767
2597,1753,1763
2630,1834,1815
2621,1853,1814
2609,1786,1810
2647,1985,1828
2630,1918,1776
2543,1758,1747
2512,1728,1787
2551,1863,1839
2593,1945,1861
2530,1866,1808
2495,1770,1766
2495,1808,1808
2546,1861,1851
2501,1936,1811
2413,1890,1804
532,1975,1828
178,1919,1820
0,1827,1843
0,1921,1889
0,2015,1931
0,1998,1920
0,1987,1897
0,1867,1846
0,1920,1875
0,1974,1907
0,2031,1892
0,2000,1855
0,1871,1856
0,1933,1896
0,1840,1808
0,1763,1729
0,1771,1777
0,1895,1879
0,1910,1872
0,1875,1805
0,1914,1790
0,1984,1887
0,1859,1899
498,1837,1815
1731,1890,1840
2064,1840,1862
1930,1914,1853
1803,1959,1818
1786,1943,1840
1808,2020,1915
1818,1885,1843
1828,1886,1802
1821,1897,1851
1822,1951,1900
1823,1920,1893
1823,1904,1856
1825,1938,1887
1826,1936,1890
1827,1927,1846
1827,1937,1815
1827,1968,1857
1824,2055,1931
1826,1950,1911
1829,1966,1840
1828,1953,1840
1791,1937,1891
1661,1901,1910
1641,1904,1904
1583,1982,1915
1567,2063,1900
1522,1983,1875
1488,1901,1849
1494,1905,1878
1517,1987,1925
1488,2033,1922
1477,2019,1878
1470,1905,1869
1450,1895,1897
1418,1879,1909
1423,1968,1838
1447,1995,1861
1415,1968,1911
1413,1936,1850
1403,1907,1856
1408,1914,1872
1444,2012,1913
1437,2059,1920
1423,1963,1865
1434,1835,1858
1450,1877,1890
1436,1936,1905
1429,1913,1841
1429,1903,1839
1474,1987,1859
1469,1920,1888
1469,1986,1889
1491,2009,1854
1498,1961,1873
1495,1866,1876
1483,1795,1818
1508,1856,1866
1574,1862,1917
1535,1907,1853
1505,1942,1813
1523,1910,1843
1584,1943,1878
1630,2018,1872
1595,1932,1810
1600,1856,1847
1600,1855,1906
1600,1851,1859
1599,1851,1808
1594,1847,1811
1612,1907,1891
1648,2000,1885
1629,1853,1811
1651,1802,1815
1691,1870,1851
1681,1935,1854
1664,1936,1808
1711,1901,1840
1737,1808,1859
1722,1776,1815
1683,1813,1787
1706,1893,2288
1287,1510,4095
297,452,4095
0,0,848
0,0,605
0,166,1535
465,511,1989
780,723,1962
949,917,1847
1039,1067,1808
1093,1143,1813
1153,1219,1828
1232,1291,1829
1342,1339,1829
1424,1510,1830
1434,1520,1829
1487,1502,1831
1558,1611,1829
1583,1641,1831
1600,1600,1837
1665,1690,1829
1719,1746,1826
1766,1812,1830
1733,1775,1827
1793,1823,1828
1869,1908,1827
1874,1874,1826
1872,1821,1827
1899,1904,1835
1936,1909,1829
1938,1951,1827
1933,1903,1832
1998,1911,1825
2025,2037,1829
2014,1983,1827
1989,1926,1819
2016,1951,1765
2096,2024,1763
2060,2003,1705
2059,2037,1683
2094,2027,1710
2128,2015,1762
2122,2036,1726
2077,1974,1638
2119,2042,1690
2191,2039,1726
2133,2074,1677
2114,2112,1648
2177,2144,1707
2183,1981,1854
2160,1978,1792
2047,1861,4095
903,767,3418
0,61,3221
0,0,4016
0,0,1470
0,0,1229
0,0,1648
26,0,1882
629,228,1890
1057,672,1840
1203,949,1823
1234,1019,1818
1278,1066,1840
1399,1250,1834
1554,1377,1829
1648,1465,1825
1648,1566,1826
1710,1639,1827
1828,1719,1827
1885,1660,1829
1904,1657,1830
1973,1749,1828
2017,1914,1868
2032,1922,1872
2058,1970,1814
2087,1968,1806
2150,2029,1861
2206,2070,1841
2214,2014,1811
2213,2069,1870
2256,2171,1815
2252,2169,1840
2273,2138,1861
2275,2188,1815
2332,2236,1842
2342,2223,1840
2343,2177,1808
2351,2224,1874
2384,2291,1889
2384,2237,1861
2394,2160,1827
2415,2369,1831
2418,2490,1858
2390,2249,1806
2384,2167,1745
2413,2222,1799
2463,2333,1840
2466,2359,1791
2423,2311,1728
2431,2288,1776
2464,2320,1782
2471,2406,1755
2432,2347,1712
2455,2311,1719
2481,2379,1738
2448,2301,1686
2435,2292,1652
2459,2305,1676
2481,2352,1732
2471,2317,1712
2455,2298,1641
2458,2288,1661
2480,2331,1713
2483,2400,1709
2470,2335,1631
2471,2308,1610
2481,2331,1685
2466,2291,1665
2469,2306,1651
2463,2303,1622
2478,2343,1699
2455,2270,1628
2443,2315,1632
2471,2311,1635
2493,2339,1675
2476,2299,1632
2457,2273,1627
2463,2385,1585
2487,2341,1671
2495,2352,1679
2439,2226,1634
2434,2217,1614
2461,2288,1651
2445,2321,1638
2446,2215,1613
2449,2210,1621
2471,2289,1634
2446,2343,1633
2415,2222,1582
2452,2229,1638
2485,2269,1616
2434,2315,1617
2384,2251,1616
2414,2205,1613
2439,2192,1680
2437,2180,1646
2413,2192,1606
2408,2151,1593
2439,2224,1621
2427,2265,1616
2393,2192,1585
2434,2261,1649
2450,2226,1702
2393,2098,1650
2352,2091,1566
2415,2157,1585
2432,2273,1686
2434,2155,1667
2384,2057,1693
2385,2165,1616
2391,2251,1719
2365,2199,1661
2355,2119,1618
2386,2101,1675
2413,2219,1701
2381,2182,1712
2352,2082,1623
2363,2112,1671
2393,2126,1741
2375,2146,1680
2329,2058,1958
2331,2115,2166
2387,2162,1936
2352,2150,1803
2306,2080,1798
2325,2046,1794
2374,2081,1822
2354,2166,1886
2322,2055,1791
2327,2043,1830
2320,2089,1893
2291,2022,1825
2288,2102,1826
2326,2153,1808
2354,2085,1885
2307,2104,1803
2270,1946,1870
2297,1975,1843
2327,2099,1806
2287,2007,1819
2269,1957,1767
2279,1998,1856
2304,1981,1824
2288,2096,1838
2261,2093,1836
2299,2027,1821
2315,2038,1840
2283,2036,1829
2269,2005,1836
2241,1975,1808
2235,1975,1830
2239,1983,1873
2240,2019,1825
2240,1936,1886
2254,2023,1894
2240,1920,1850
2206,2027,1792
2225,2075,1807
2254,1969,1838
2221,1869,1803
2176,1889,1767
2192,1911,1789
2209,1958,1813
2224,1968,1835
2194,1936,1759
2187,1935,1789
2215,1933,1830
2183,1942,1826
2157,1961,1773
2182,1922,1808
2191,1895,1845
2160,1866,1781
2125,1833,1696
2135,1910,1769
2189,1977,1841
2192,1909,1805
2102,1847,1738
2126,1883,1789
2166,1999,1813
2134,1991,1795
2112,1856,1761
2160,1806,1779
2160,1929,1820
2117,1825,1807
2074,1829,1753
2083,1882,1788
2129,1883,1818
2118,1858,1783
2095,1849,1765
2107,1936,1808
2122,2001,1850
2096,1852,1808
2064,1821,1744
2064,1845,1781
2128,1852,1861
2066,1840,1792
2022,1882,1738
2086,1853,1776
2109,1904,1842
2071,1856,1822
2029,1872,1775
2063,1879,1761
2057,1805,1804
2043,1821,1783
2045,1866,1759
2064,1878,1776
2033,1840,1810
2057,1812,1803
1993,1839,1742
1984,1889,1790
2030,1941,1884
2043,1770,1820
1979,1755,1729
2033,1881,1776
2027,1937,1840
1985,1778,1808
1933,1760,1756
1991,1812,1773
2068,1851,1791
1980,1863,1785
1973,1775,1731
1968,1838,1778
2019,1841,1826
2015,1712,1798
1975,1793,1755
1971,1803,1744
1957,1835,1807
1957,1780,1791
1943,1805,1770
1963,1795,1761
1983,1846,1801
1984,1808,1796
1946,1718,1744
1937,1758,1760
1968,1878,1814
1967,1741,1791
1911,1743,1728
1873,1776,1751
1985,1814,1804
1927,1795,1775
1922,1698,1740
1900,1783,1770
1933,1829,1781
1909,1831,1726
1878,1715,1712
1903,1709,1771
1953,1714,1827
1929,1761,1787
1879,1791,1744
1891,1840,1750
1951,1743,1776
1872,1701,1759
1872,1738,1744
1900,1788,1766
1975,1795,1813
1883,1797,1771
1871,1778,1756
1911,1811,1789
1930,1797,1785
1891,1795,1776
1901,1790,1751
1866,1711,1790
1949,1747,1795
1886,1778,1754
1850,1761,1762
1920,1722,1783
1910,1789,1857
1887,1830,1810
1920,1808,1742
1881,1788,1747
1859,1823,1813
1893,1777,1808
1872,1777,1747
1910,1856,1795
1913,1775,1821
1882,1726,1759
1842,1680,1761
1859,1760,1805
1936,1844,1808
1861,1857,1781
1876,1806,1744
1826,1779,1792
1840,1730,1826
1906,1744,1792
1872,1733,1766
1848,1931,1807
1898,1877,1823
1887,1597,1761
1823,1680,1732
1835,1735,1779
1898,1793,1845
1824,1813,1808
1871,1839,1785
1824,1767,1771
1851,1783,1776
1857,1808,1784
1785,1845,1776
1781,1747,1779
1854,1709,1777
1866,1776,1775
1734,1694,1757
1840,1764,1809
1857,1712,1828
1811,1776,1773
1774,1774,1765
1837,1749,1787
1850,1774,1830
1822,1851,1808
1792,1893,1767
1806,1755,1760
1834,1716,1783
1833,1715,1791
1810,1707,1779
1814,1750,1792
1837,1789,1809
1814,1754,1768
1803,1718,1744
1791,1807,1802
1795,1811,1795
1826,1762,1776
1782,1763,1760
1863,1789,1824
1835,1855,1844
1839,1810,1782
1839,1734,1741
1831,1659,1789
1807,1779,1830
1841,1767,1819
1810,1808,1765
1808,1767,1786
1850,1790,1850
1777,1801,1827
1819,1815,1789
1799,1875,1808
1814,1799,1821
1800,1685,1778
1712,1738,1781
1816,1775,1819
1858,1777,1875
1830,1776,1819
1760,1751,1781
1787,1833,1835
1840,1843,1855
1778,1748,1826
1790,1815,1783
1812,1873,1824
1861,1903,1883
1836,1807,1840
1762,1713,1763
1733,1751,1797
1862,1789,1840
1834,1851,1841
1819,1792,1841
1826,1769,1831
1829,1909,1845
1791,1825,1810
1788,1741,1767
1780,1799,1837
1874,1818,1870
1798,1744,1823
1744,1777,1791
1867,1799,1827
1841,1835,1872
1859,1788,1817
1750,1782,1781
1795,1845,1826
1814,1870,1889
1762,1751,1831
1802,1715,1781
1806,1839,1814
1839,1852,1863
1801,1808,1843
1773,1852,1770
1791,1766,1775
1808,1822,1850
1805,1795,1863
1792,1791,1806
1811,1783,1813
1831,1763,1856
1789,1801,1836
1770,1795,1755
1801,1787,1825
1823,1941,1873
1812,1891,1826
1763,1627,1788
1776,1737,1827
1793,1845,1847
1789,1802,1807
1771,1824,1774
1803,1835,1840
1829,1873,1885
1794,1777,1823
1749,1774,1767
1763,1791,1799
1840,1810,1847
1835,1877,1839
1767,1805,1790
1771,1773,1794
1797,1807,1872
1791,1851,1823
1798,1786,1795
1776,1728,1815
1794,1779,1845
1790,1799,1826
1762,1803,1775
1783,1811,1811
1809,1843,1856
1806,1810,1834
1776,1781,1796
1809,1933,1820
1835,1917,1867
1791,1741,1813
1763,1752,1792
1840,1872,1834
1825,1838,1855
1777,1811,1840
1743,1737,1808
1777,1855,1831
1824,1847,1872
1803,1799,1831
1795,1897,1803
1805,1885,1856
1795,1867,1866
1786,1835,1840
1761,1819,1805
1805,1765,1815
1823,1798,1840
1806,1874,1863
1803,1856,1808
1809,1838,1831
1814,1819,1874
1794,1888,1856
1764,1834,1807
1775,1791,1819
1808,1823,1885
1808,1840,1837
1782,1827,1796
1794,1840,1806
1822,1884,1865
1792,1827,1862
1773,1829,1829
1806,1879,1827
1813,1882,1862
1808,1886,1857
1803,1829,1814
1781,1744,1810
1831,1840,1872
1787,1855,1856
1761,1782,1793
1778,1804,1831
1821,1891,1897
1823,1839,1852
1787,1866,1805
1798,1846,1814
1799,1765,1843
1799,1791,1821
1781,1869,1795
1791,1851,1855
1817,1874,1892
1799,1827,1838
1763,1798,1790
1801,1830,1828
1838,1794,1862
1825,1822,1820
1823,1886,1808
1802,1890,1843
1809,1822,1853
1802,1808,1837
1776,1792,1799
1802,1797,1841
1815,1888,1845
1796,1840,1806
1786,1789,1769
1808,1766,1814
1840,1832,1870
1831,1823,1856
1792,1831,1808
1791,1840,1815
1801,1874,1846
1814,1909,1823
1787,1821,1793
1823,1814,1814
1847,1857,1872
1825,1851,1862
1790,1877,1815
1806,1782,1802
1840,1777,1825
1810,1813,1847
1808,1876,1831
1834,1859,1859
1830,1851,1855
1806,1819,1831
1791,1869,1808
1814,1838,1839
1838,1886,1853
1801,1812,1824
1782,1742,1794
1807,1791,1845
1843,2000,1878
1827,1875,1843
1792,1776,1808
1795,1839,1837
1840,1872,1872
1802,1875,1815
1761,1809,1807
1799,1873,1850
1857,1856,1893
1823,1817,1857
1777,1821,1797
1783,1809,1821
1818,1872,1863
1825,1807,1833
1789,1773,1802
1787,1840,1833
1820,1931,1891
1815,1984,1856
1781,1725,1808
1821,1779,1798
1815,1854,1876
1801,1911,1867
1799,1792,1827
1808,1840,1830
1826,1923,1849
1796,1872,1818
1791,1831,1797
1810,1786,1831
1827,1778,1873
1814,1861,1853
1797,1856,1807
1813,1756,1813
1837,1855,1855
1793,1844,1846
1773,1673,1777
1815,1739,1821
1876,1872,1869
1813,1831,1841
1776,1811,1827
1795,1825,1842
1829,1845,1845
1831,1824,1840
1786,1812,1797
1805,1894,1849
1845,1994,1882
1823,1872,1821
1796,1808,1792
1813,1737,1814
1823,1853,1841
1808,1795,1828
1808,1776,1807
1865,1801,1851
1830,1870,1872
1773,1876,1823
1776,1833,1792
1829,1903,1842
1869,1882,1875
1827,1776,1826
1807,1826,1810
1840,1851,1846
1846,1776,1861
1824,1920,1840
1827,1936,1852
1840,1820,1841
1850,1847,1842
1808,1808,1825
1792,1762,1806
1859,1860,1872
1858,1929,1900
1827,1917,1853
1825,1802,1810
1874,1836,1824
1863,1839,1856
1850,1990,1865
1791,1793,1834
1810,1761,1844
1870,1934,1872
1842,1875,1863
1829,1808,1824
1840,1830,1843
1856,1872,1881
1828,1904,1840
1825,1891,1802
1854,1901,1866
1863,1833,1885
1859,1853,1835
1820,1872,1809
1850,1881,1835
1875,1846,1873
1854,1893,1845
1831,1808,1793
1842,1808,1829
1839,1809,1874
1833,2003,1872
1811,1859,1835
1827,1844,1827
1858,1854,1860
1857,1873,1867
1831,1913,1811
1837,1830,1810
1856,1869,1892
1837,1825,1855
1817,1825,1812
1845,1871,1847
1903,1989,1904
1856,1775,1816
1797,1702,1781
1842,1803,1796
1868,1884,1869
1858,1882,1851
1838,1856,1826
1840,1931,1826
1830,1798,1840
1818,1783,1801
1814,1808,1782
1833,1898,1805
1851,1879,1855
1844,1802,1833
1821,1773,1781
1843,1863,1835
1867,1953,1885
1833,1778,1801
1782,1710,1757
1827,1794,1770
1851,1786,1850
1823,1867,1854
1833,1851,1806
1856,1891,1814
1863,1872,1866
1807,1773,1810
1806,1831,1790
1847,1766,1808
1869,1717,1864
1839,1910,1825
1840,1861,1803
1856,1820,1849
1871,1825,1878
1853,1840,1845
1839,1825,1807
1847,1839,1823
1856,1984,1895
1840,1766,1835
1822,1740,1808
1864,1806,1840
1910,1936,1892
1862,1872,1843
1817,1648,1806
1856,1853,1861
1917,1921,1930
1860,1776,1829
1834,1830,1779
1872,1882,1852
1872,1890,1884
1853,1947,1862
1841,1787,1789
1868,1798,1849
1867,1844,1888
1850,1850,1867
1835,1872,1854
1889,1942,1873
1885,1890,1856
1839,1765,1825
1809,1861,1831
1840,1792,1861
1904,1888,1900
1870,1906,1840
1819,1856,1800
1840,1792,1821
1863,1849,1859
1846,1835,1861
1851,1843,1835
1868,1843,1876
1897,1950,1904
1860,1985,1856
1855,1833,1815
1836,1837,1836
1846,1806,1867
1841,1813,1851
1847,1813,1811
1869,1903,1855
1879,1877,1872
1878,1835,1856
1842,1830,1801
1837,1842,1840
1851,1813,1872
1874,1856,1847
1856,1850,1825
1856,1846,1840
1861,1824,1871
1834,1837,1841
1842,1835,1823
1863,1887,1834
1881,1859,1870
1855,1757,1823
1825,1837,1809
1883,1803,1840
1889,1887,1854
1850,1874,1827
1815,1739,1776
1856,1820,1822
1872,1858,1874
1861,1866,1843
1846,1856,1809
1855,1840,1822
1889,1856,1854
1896,1856,1840
1850,1795,1803
1871,1838,1936
1905,1943,3015
1845,1854,2414
1798,1825,1847
1751,1682,2862
1606,1535,1168
1584,1535,947
1647,1600,1606
1700,1655,1914
1745,1733,1911
1744,1694,1844
1747,1714,1812
1796,1776,1819
1838,1792,1826
1825,1846,1830
1789,1815,1836
1791,1793,1829
1835,1840,1830
1829,1837,1827
1819,1714,1827
