1803,1858,1853
1811,1856,1811
1826,1802,1835
1857,1874,1877
1808,1902,1861
1791,1879,1837
1821,1872,1856
1840,1887,1868
1815,1969,1831
1794,1850,1819
1819,1820,1857
1830,1849,1877
1808,1791,1845
1793,1822,1802
1823,1858,1814
1834,1922,1887
1821,1894,1851
1809,1844,1822
1853,1840,1840
1842,1863,1849
1803,1931,1815
1805,1889,1808
1808,1845,1834
1805,1884,1872
1788,1853,1840
1795,1807,1812
1840,1839,1855
1850,1890,1872
1823,1912,1819
1794,1794,1790
1810,1830,1826
1844,1939,1852
1826,1872,1823
1833,1821,1815
1842,1906,1791
1824,1875,1835
1798,1802,1808
1808,1792,1791
1830,1901,1850
1829,1855,1879
1811,1934,1831
1826,1864,1789
1861,1823,1803
1828,1900,1857
1800,1884,1850
1805,1827,1790
1841,1795,1808
1847,1855,1855
1823,1842,1825
1835,1909,1806
1840,1889,1840
1863,1811,1872
1858,1817,1823
1830,1917,1794
1838,1919,1847
1855,1834,1872
1831,1798,1819
1841,1902,1833
1888,1994,1858
1863,1887,1853
1823,1793,1805
1807,1841,1793
1867,1783,1869
1888,1877,1888
1831,1873,1840
1825,1822,1804
1861,1904,1808
1855,1942,1849
1815,1861,1844
1808,1868,1837
1840,1946,1851
1869,1996,1895
1856,1874,1826
1815,1906,1800
1821,1774,1825
1856,1794,1855
1809,1863,1815
1808,1824,1815
1856,1869,1840
1863,1955,1882
1841,1951,1837
1814,1946,1837
1840,1866,1863
1869,1846,1874
1828,1936,1815
1804,1921,1815
1819,1911,1851
1842,1962,1860
1826,1840,1807
1819,1794,1791
1853,1869,1847
1872,1998,1899
1839,1860,1835
1799,1845,1779
1841,1920,1840
1865,1887,1858
1838,1802,1802
1837,1786,1794
1855,1884,1856
1873,1919,1840
1827,1917,1835
1803,1834,1811
1840,1833,1827
1867,1911,1848
1837,1975,1853
1807,1835,1830
1819,1776,1835
1840,1743,1833
1819,1825,1785
1815,1852,1803
1879,1855,1861
1866,1965,1868
1810,1895,1793
1794,1712,1763
1840,1781,1830
1862,1831,1861
1882,1908,1856
1874,1900,1802
1854,1814,1828
1814,1767,1875
1771,1760,1807
1795,1765,1790
1852,1820,1840
1892,1900,1897
1857,2037,1847
1835,1861,1783
1846,1787,1835
1853,1868,1879
1841,1850,1856
1829,1855,1815
1856,1883,1809
1878,1968,1847
1849,1822,1857
1841,1776,1850
1872,1843,1872
1883,1939,1872
1837,1725,1840
1829,1805,1829
1872,1890,1859
1874,1876,1888
1840,1862,1845
1843,1862,1854
1867,1958,1870
1874,1875,1882
1840,1781,1842
1839,1812,1799
1873,1885,1858
1877,1950,1904
1863,1885,1860
1870,1871,1781
1841,1885,1869
1852,1882,1881
1824,1810,1841
1840,1825,1833
1861,1878,1871
1862,1922,1888
1825,1822,1817
1830,1843,1801
1859,1869,1849
1889,1863,1887
1865,1863,1841
1853,1895,1802
1902,1925,1833
1847,1809,1865
1813,1771,1840
1811,1861,1822
1830,1859,1840
1861,1862,1852
1841,1904,1835
1830,1861,1822
1843,1857,1849
1858,1895,1861
1840,1847,1821
1831,1843,1799
1861,1791,1829
1863,1842,1854
1825,1874,1812
1859,1860,1782
1851,1847,1843
1856,1925,1872
1825,1841,1815
1863,1790,1823
1847,1802,1819
1843,1833,1829
1846,1962,1808
1840,1803,1820
1818,1755,1810
1845,1793,1835
1819,1874,1823
1808,1856,1807
1843,1799,1846
1868,1831,1849
1826,1840,1808
1813,1929,1793
1827,1881,1835
1873,1738,1863
1860,1809,1819
1809,1788,1784
1856,1833,1835
1890,1920,1873
1872,1814,1808
1862,1810,1798
1844,1862,1837
1851,1874,1875
1831,1915,1850
1843,1969,1808
1855,1791,1840
1872,1760,1881
1868,1846,1837
1841,1857,1840
1856,1831,1854
1871,1895,1872
1856,1851,1811
1851,1827,1808
1856,1837,1872
1872,1951,1883
1815,1840,1818
1865,1847,1822
1901,1847,1856
1885,1883,1902
1797,1894,1822
1779,1830,1785
1838,1851,1839
1853,1846,1875
1841,1841,1831
1838,1822,1797
1851,1904,1852
1854,1889,1882
1808,1885,1818
1812,1927,1825
1848,1809,1845
1855,1788,1841
1828,1862,1814
1826,1840,1803
1864,1837,1842
1845,1874,1862
1829,1795,1803
1809,1826,1776
1827,1869,1861
1846,1859,1892
1823,1989,1813
1826,1857,1771
1856,1708,1791
1839,1799,1859
1810,1825,1827
1831,1836,1796
1851,1846,1840
1839,1837,1875
1809,1872,1815
1839,1843,1791
1845,1866,1853
1842,1873,1871
1837,1828,1797
1810,1821,1779
1825,1791,1809
1842,1807,1835
1808,1808,1786
1808,1775,1776
1851,1776,1809
1872,1839,1861
1825,1847,1825
1821,1789,1775
1833,1873,1813
1840,1872,1825
1815,1793,1796
1829,1872,1766
1840,1777,1795
1835,1808,1846
1814,1759,1808
1827,1749,1761
1855,1791,1808
1873,1886,1858
1844,1904,1846
1822,1846,1803
1857,1946,1818
1867,1804,1838
1831,1731,1798
1823,1806,1791
1855,1919,1843
1881,1886,1881
1855,1837,1821
1872,1758,1815
1889,1799,1866
1870,1917,1878
1856,1874,1823
1845,1839,1806
1877,1940,1856
1902,1944,1911
1846,1873,1849
1854,1812,1831
1886,1787,1863
1876,1870,1877
1854,1908,1833
1857,1826,1779
1889,1831,1846
1874,1837,1900
1866,1825,1840
1842,1875,1798
1846,1885,1854
1889,1887,1902
1863,1934,1870
1839,1845,1819
1856,1741,1853
1869,1791,1846
1846,1872,1821
1848,1874,1776
1894,1872,1793
1904,1909,1845
1851,1875,1862
1831,1860,1803
1875,1843,1852
1882,1862,1890
1809,1867,1867
1778,1824,1781
1862,1924,1818
1891,1882,1858
1846,1775,1808
1824,1778,1806
1858,1840,1818
1888,1914,1867
1858,1871,1851
1847,1859,1801
1866,1846,1822
1872,1849,1807
1849,1837,1783
1837,1819,1819
1858,1920,1865
1859,1747,1811
1840,1771,1850
1808,1787,1792
1854,1849,1815
1889,1905,1873
1829,1905,1791
1808,1773,1814
1856,1808,1789
1861,1904,1855
1861,1863,1771
1842,1713,1750
1847,1808,1802
1856,1888,1837
1827,1809,1811
1805,1769,1776
1883,1815,1829
1904,1903,1866
1840,1869,1823
1825,1869,1773
1863,1860,1808
1879,1857,1822
1862,1835,1811
1846,1812,1809
1890,1927,1858
1897,1891,1871
1872,1841,1821
1836,1777,1778
1872,1794,1839
1909,1917,1912
1906,1935,1846
1855,1878,1859
1881,1824,1888
1887,1826,1927
1888,1869,1841
1872,1935,1851
1882,1909,1882
1891,1827,1858
1869,1868,1844
1867,1853,1790
1896,1867,1872
1925,1902,1857
1872,1840,1821
1847,1789,1851
1885,1875,1876
1903,1889,1870
1906,1857,1856
1870,1840,1835
1872,1866,1834
1872,1909,1901
1871,1834,1840
1873,1840,1878
1952,1940,2126
1905,1943,2123
1842,1837,1854
1840,1775,1709
1887,1790,1776
1899,1852,1837
1889,1904,1886
1870,1811,2066
1894,1809,2000
1855,1797,2784
1535,1524,4080
1163,1136,1093
976,961,864
1007,944,2749
806,713,1370
827,772,851
1063,922,1530
1264,1074,1926
1334,1151,1928
1365,1351,1856
1412,1425,1747
1474,1392,1817
1471,1404,1831
1507,1441,1827
1606,1519,1827
1665,1642,1829
1683,1677,1819
1674,1594,1813
1700,1653,1857
1737,1725,1830
1735,1662,1824
1740,1655,1826
1802,1774,1888
1811,1826,1861
1792,1808,1888
1808,1807,1843
1847,1873,1857
1847,1912,1850
1830,1727,1796
1830,1808,1844
1869,1906,1899
1912,1945,1841
1911,1834,1776
1890,1877,1751
1895,1926,1770
1905,1958,1788
1902,1961,1703
1923,1968,1683
1963,2032,1730
1985,1923,1727
1901,1792,1728
1890,1941,1642
1954,2012,1694
1968,1981,1737
1951,1951,1695
1967,1968,1681
1963,2006,1712
1968,2054,1741
1950,2015,1684
1931,1951,1625
1967,1963,1649
1987,1981,1694
1984,2035,1663
1954,2127,1651
1981,1943,1728
1995,1930,1699
1966,1956,1639
1965,1973,1602
2000,2069,1692
2012,2103,1695
1971,1975,1616
1942,1894,1582
1969,1954,1659
2013,2054,1680
1991,2019,1637
1979,1995,1513
2025,2139,1648
1998,2115,1565
1957,1915,1584
1955,1893,1632
1968,1910,1659
1989,2032,1648
1968,1983,1611
1984,2000,1650
1970,2032,1648
1982,2010,1666
1961,1990,1627
1984,2011,1610
1985,2031,1647
1995,2128,1680
1983,1963,1606
1965,1891,1583
1993,1969,1632
1986,2014,1709
1967,1940,1643
1970,1897,1639
2003,1963,1648
1966,2003,1657
1947,2013,1616
1955,2011,1641
1979,2000,1655
1980,2001,1680
1946,1898,1626
1926,1859,1593
1991,1939,1664
2014,2026,1680
1946,1943,1613
1943,1928,1616
1984,2002,1666
2001,1989,1686
1947,1962,1663
1954,2033,1675
1997,1946,1679
1986,1920,1689
1937,2007,1672
1938,2001,1653
2014,1908,1677
1964,1925,1717
1924,2022,1685
1974,1907,1665
1915,1943,1693
1951,1996,1723
1930,1920,1703
1948,1904,1690
2045,2030,1715
1968,2044,1726
1935,1915,1719
1935,1858,1666
1934,1901,1729
1952,2000,1767
1959,1997,1723
1975,1933,1702
1938,1933,1747
1975,1982,1749
1913,1968,1702
1907,1931,1733
1974,1933,1790
1965,1990,1775
1936,1929,1713
1935,1936,1722
1953,1954,1751
2005,1911,1776
1908,1871,1710
1904,1926,1713
1941,1930,1761
1954,1924,1771
1949,1965,1725
1925,1916,1731
1966,1939,1760
1966,1991,1781
1904,1959,1764
1913,1841,1739
1936,1866,1774
1936,1885,1794
1914,1937,1728
1936,1920,1714
1977,1920,1794
1910,1915,1810
1951,1874,1766
1935,1906,1771
1910,1982,1793
1970,2022,1794
1911,1899,1739
1904,1789,1713
1927,1856,1771
1945,1879,1794
1898,1874,1776
1889,1861,1760
1937,1904,1808
2011,1927,1820
1920,1915,1789
1821,1849,1771
1922,1872,1790
1916,1910,1819
1839,1868,1767
1923,1872,1772
1954,1906,1815
1953,1891,1824
1889,1866,1779
1885,1888,1787
1963,1883,1810
1968,1907,1829
1919,1902,1781
1936,1864,1776
1999,1894,1830
1936,1936,1862
1913,1908,1815
1857,1891,1789
1942,1919,1847
2017,1949,1888
1936,1936,1850
1872,1872,1778
1914,1878,1811
2029,1943,1883
2059,1967,1884
1954,1938,1847
1844,1867,1818
1883,1856,1834
1939,1858,1839
1853,1840,1793
1831,1842,1801
1936,1856,1835
1963,1862,1827
1929,1862,1870
1936,1858,1889
1932,1857,1875
1909,1831,1825
1922,1809,1822
2001,1847,1893
2046,1872,1946
1968,1835,1895
1938,1771,1841
2011,1827,1922
2070,1872,1995
1981,1782,1898
1841,1674,1785
1455,1706,1840
1831,1761,1914
1930,1749,1881
1879,1713,1849
1833,1719,1879
1792,1757,1921
1856,1762,1917
1863,1723,1899
1857,1691,1872
1799,1717,1887
1826,1687,1864
1867,1680,1859
1825,1735,1935
1819,1733,1936
1878,1723,1904
1790,1715,1887
1901,1710,1872
1871,1721,1874
1811,1729,1854
1807,1739,1859
1780,1759,1886
1903,1787,1929
1822,1785,1897
1815,1781,1872
1840,1826,1923
1786,1857,1954
1854,1823,1862
1834,1843,1840
1890,1871,1857
1828,1856,1822
1851,1849,1769
1842,1862,1766
1879,1895,1809
1851,1923,1817
1879,1910,1750
1842,1915,1734
1865,1942,1775
1870,1978,1802
1653,1969,1754
1709,1969,1728
1831,1981,1747
1863,2009,1775
1845,2022,1750
1839,2031,1708
1840,1988,1749
1833,1965,1776
1886,1993,1730
1899,2067,1729
1793,2074,1774
1809,2201,1818
1840,2019,1730
1840,1874,1725
1807,1951,1746
1840,2034,1753
1827,1994,1738
1779,1915,1777
1841,2067,1754
1826,2045,1733
1834,1997,1735
1826,2003,1742
1835,2083,1786
1831,2102,1803
1840,1979,1757
1835,1968,1754
1834,2101,1778
1840,2037,1783
1835,1910,1731
1839,1878,1739
1839,1963,1797
1833,2000,1809
1799,1974,1758
1783,1980,1749
1789,1998,1822
1791,1968,1830
1709,1918,1770
934,1909,1761
2025,1953,1826
2141,1967,1845
1845,1935,1793
1771,1922,1791
1890,1942,1843
1873,1936,1842
1841,1919,1799
1831,1934,1833
1832,1941,1873
1835,1939,1882
1839,1921,1839
1835,1904,1833
1838,1914,1869
1835,1907,1887
1831,1883,1846
1833,1890,1842
1830,1919,1889
1832,1917,1909
1833,1891,1855
1834,1873,1822
1834,1922,1903
1839,1951,1966
1833,1911,1867
1830,1921,1857
1835,1895,1936
1836,1776,1925
1831,1803,1889
1835,1861,1862
1839,1680,1883
1838,1643,1903
1835,1696,1904
1831,1794,1887
1806,1833,1940
1771,1827,1951
1755,1785,1913
1783,1835,1911
1815,1735,1915
1833,1751,1949
1795,1722,1925
1798,1709,1908
1833,1782,1944
1836,1823,1953
1626,1798,1872
0,1723,1852
2882,1772,1949
3394,1791,1982
2237,1771,1881
1674,1712,1901
1696,1741,1935
1814,1757,1937
1863,1728,1904
1856,1717,1843
1840,1757,1963
1835,1778,1994
1833,1773,1934
1834,1808,1904
1835,1712,1921
1835,1706,1935
1836,1681,1903
1837,1686,1894
1839,1741,1939
1832,1744,1946
1793,1717,1905
1168,1729,1904
2036,1764,1941
2102,1741,1965
1906,1707,1881
1808,1698,1862
1808,1760,1920
1827,1795,1945
1838,1727,1882
1840,1696,1902
1840,1729,1954
1836,1686,1956
1833,1696,1887
1808,1694,1875
1842,1786,1934
1991,1830,1936
1426,1701,1891
2162,1591,1853
2100,1702,1904
1874,1808,1959
1797,1766,1897
1808,1701,1887
1837,1719,1904
1840,1669,1902
1839,1616,1867
1837,1680,1877
1831,1735,1943
1840,1767,1968
1837,1709,1873
1840,1683,1862
1834,1778,1906
1839,1771,1925
1742,1734,1886
1853,1776,1857
1877,1751,1904
1804,1765,1923
1823,1808,1899
1862,1649,1850
1847,1747,1930
1840,1776,1928
1833,1678,1855
1835,1670,1847
1841,1808,1919
1831,1799,1922
1837,1744,1840
1839,1812,1853
1836,1755,1904
1835,1671,1919
1826,1649,1861
1846,1741,1861
1916,1854,1939
1932,1808,1949
1862,1700,1837
1853,1680,1830
1921,1767,1899
1965,1834,1909
1947,1849,1909
1934,1792,1861
1969,1763,1886
1984,1754,1908
1942,1689,1839
1952,1709,1827
2005,1763,1888
2019,1792,1904
1979,1744,1856
1995,1776,1857
2026,1835,1889
2041,1828,1918
2000,1755,1854
2000,1778,1857
2032,1854,1908
2043,1792,1899
2032,1764,1839
2000,1755,1826
2021,1723,1890
2079,1793,1930
2028,1741,1878
1990,1746,1847
2027,1862,1882
2047,1840,1873
2018,1723,1843
2026,1882,1874
2069,1824,1915
2074,1872,1913
2012,1833,1840
1985,1698,1801
2038,1779,1871
2071,1817,1908
2064,1888,1863
2032,1808,1840
2029,1847,1868
2030,1840,1874
2035,1834,1856
2067,1826,1840
2064,1856,1861
2077,1869,1895
2047,1897,1839
2022,1855,1849
2029,1817,1894
2060,1827,1895
2032,1869,1839
2027,1798,1822
2064,1863,1880
2077,1866,1902
2029,1802,1854
2032,1797,1841
2063,1858,1872
2074,1881,1872
2030,1850,1827
2039,1851,1805
2061,1934,1841
2031,1973,1861
1998,1740,1824
2034,1847,1840
2069,1999,1886
2047,1993,1887
2002,1808,1806
1988,1766,1823
2030,1797,1875
2046,1836,1891
1998,1885,1829
2013,1959,1823
2054,1915,1866
2063,1967,1867
2010,1833,1796
1982,1840,1777
2031,1877,1857
2055,1923,1917
1998,1825,1840
1975,1799,1810
2026,1854,1854
2044,1963,1870
2003,1868,1817
1984,1887,1789
2000,1892,1843
2029,1882,1883
1982,1866,1806
1983,2046,1801
2034,1922,1850
2040,1807,1844
1984,1790,1827
1987,1805,1785
1985,1871,1851
1982,1967,1899
1969,1929,1840
1965,1888,1824
1987,1899,1843
1987,1920,1841
1959,1782,1802
1974,1852,1818
2032,2000,1893
2033,1815,1856
1932,1833,1765
1914,1845,1781
1979,1904,1867
2006,1985,1881
1958,1813,1818
1949,1795,1808
1965,1908,1840
1986,1945,1856
2002,1817,1794
1941,1851,1791
1922,1904,1858
1939,1855,1841
1929,1863,1783
1939,1865,1801
1985,1968,1856
1969,1876,1872
1917,1904,1805
1914,1842,1774
1972,1885,1872
1975,1906,1874
1912,1803,1777
1914,1793,1790
1987,2040,1881
1975,1968,1873
1932,1803,1789
1899,1730,1787
1947,1929,1847
1945,2015,1856
1904,1712,1780
1891,1582,1759
1922,1715,1840
1943,1903,1882
1922,1881,1840
1899,1909,1779
1937,1904,1808
1937,1904,1837
1899,1883,1809
1904,1871,1812
1936,1803,1837
1994,1948,1881
1936,1854,1811
1879,1778,1759
1887,1744,1817
1921,1827,1861
1901,1847,1847
1886,1838,1798
1921,1907,1822
1936,1913,1846
1904,1872,1810
1881,1808,1808
1906,1906,1854
1902,1856,1838
1856,1827,1755
1875,1676,1776
1925,1781,1859
1915,1870,1841
1894,1893,1808
1904,1862,1792
1866,1827,1817
1883,1827,1841
1847,1775,1810
1843,1779,1791
1878,1825,1851
1906,1842,1870
1872,1758,1808
1854,1808,1792
1883,1855,1834
1917,1891,1866
1872,1989,1844
1866,1904,1816
1872,1786,1829
1876,1936,1840
1855,1900,1823
1856,1852,1835
1889,1906,1881
1898,1846,1870
1847,1733,1808
1842,1865,1783
1855,1883,1803
1883,1893,1852
1860,1847,1841
1854,1873,1811
1882,1846,1844
1892,1827,1853
1858,1840,1808
1865,1859,1821
1869,1869,1844
1879,1952,1856
1858,1907,1824
1813,1797,1777
1840,1863,1834
1846,1849,1851
1838,1826,1810
1837,1840,1808
1845,1910,1834
1879,1959,1863
1839,1842,1814
1807,1831,1783
1834,1827,1831
1861,1847,1866
1843,1889,1833
1821,1808,1774
1857,1847,1804
1855,1869,1845
1825,1873,1831
1840,1928,1827
1857,1821,1827
1855,1817,1849
1837,1855,1826
1829,1851,1808
1859,1807,1814
1858,1842,1835
1824,1865,1787
1824,1830,1811
1873,1898,1861
1866,1922,1859
1818,1964,1819
1811,1805,1778
1855,1779,1817
1854,1819,1834
1811,1841,1766
1813,1852,1789
1859,1869,1842
1863,1861,1846
1842,1931,1808
1841,1825,1790
1850,1812,1821
1830,1828,1808
1805,1781,1790
1837,1874,1818
1903,1877,1847
1842,1855,1817
1796,1876,1775
1811,1882,1811
1857,1891,1863
1866,1875,1859
1830,1944,1815
1822,1948,1814
1847,1712,1799
1853,1779,1829
1833,1892,1819
1834,1886,1823
1856,1903,1850
1857,1920,1854
1832,1872,1809
1823,1833,1790
1854,1823,1835
1866,1846,1872
1845,1859,1830
1838,1870,1809
1871,1887,1845
1885,1904,1870
1836,1872,1798
1830,1874,1821
1845,1887,1870
1871,1915,1895
1846,1889,1837
1826,1862,1827
1855,1936,1859
1851,1903,1872
1819,1846,1818
1819,1859,1808
1871,1894,1872
1863,1824,1858
1836,1854,1822
1834,1901,1822
1887,1919,1875
1871,1840,1865
1810,1844,1804
1819,1903,1818
1872,1968,1867
1869,1851,1850
1811,1743,1782
1810,1799,1798
1855,1903,1856
1859,1906,1842
1809,1851,1815
1806,1857,1827
1866,1954,1848
1873,1909,1853
1827,1846,1811
1808,1855,1814
1840,1808,1839
1862,1826,1853
1827,1834,1795
1829,1846,1797
1872,1971,1872
1874,1917,1853
1830,1805,1774
1819,1807,1790
1828,1842,1839
1856,1883,1862
1835,1907,1808
1824,1781,1779
1851,1771,1819
1838,1850,1830
1806,1808,1799
1809,1853,1815
1842,1903,1837
1862,1949,1856
1809,1801,1923
1807,1741,2182
1837,1831,1860
1846,1887,1766
1795,1927,1794
1802,1849,1826
1829,1778,1840
1845,1802,1835
1833,1871,1830
1840,1862,1828
1868,1881,1831
1865,1854,1829
1828,1824,1830
1820,1814,1830
1859,1840,1833
1870,1910,1834
1836,1934,1829
1840,1911,1829
1872,1857,1792
1863,1883,1830
1815,1873,1830
1820,1813,1833
1867,1862,1834
1889,1897,1853
1856,1918,1827
1852,1999,1829
1884,1851,1807
1873,1819,1856
1837,1821,1809
1869,1914,1831
1926,1951,1858
1903,1854,1806
1827,1776,1834
1839,1846,1824
1890,1895,1858
1920,1901,1881
1897,1863,1806
1904,1846,1799
1897,1894,1872
1902,1883,1863
1894,1989,1795
1892,1901,1776
1904,1862,1828
1898,1802,1815
1867,1758,1798
1876,1831,2693
1709,1659,3548
1408,1420,511
1397,1360,531
1555,1459,1632
1699,1639,1989
1751,1635,2009
1707,1637,1838
1694,1664,1791
1744,1705,1798
1781,1679,1830
1779,1694,1840
1787,1726,1823
1831,1744,1837
1836,1776,1823
1812,1808,1817
1799,1771,1838
1855,1835,1823
1847,1831,1840
1826,1777,1813
1835,1847,1835
1878,1989,1829
1879,1920,1831
1838,1744,1840
1827,1725,1868
1872,1830,1845
1886,1869,1830
1847,1854,1831
1847,1856,1798
1882,1922,1832
1904,1936,1806
1872,1840,1829
1856,1872,1838
1899,1923,1835
1909,1954,1803
1857,1901,1723
1862,1894,1778
1895,1923,1778
1900,1877,1766
1881,1890,1722
1886,1869,1693
1907,1878,1783
1920,1937,1750
1874,1936,1719
1865,1897,1734
1900,1957,1726
1918,2033,1770
1886,1945,1696
1870,1839,1685
1917,1782,1712
1919,1904,1770
1855,1902,1645
1853,1914,1730
1920,1955,1754
1914,1959,1729
1872,1877,1681
1858,1825,1689
1903,2032,1680
1894,1971,1687
1869,1911,1635
1877,1872,1661
1899,1936,1701
1903,1904,1706
1856,1836,1625
1855,1875,1680
1910,1961,1759
1939,1959,1733
1893,1909,1650
1859,1890,1616
1893,1930,1687
1895,1947,1681
1875,1919,1658
1889,1968,1652
1915,1839,1685
1894,1837,1714
1853,1834,1637
1849,1863,1683
1918,1972,1725
1909,1948,1714
1846,1858,1639
1841,1773,1627
1898,1842,1691
1903,1931,1703
1856,1934,1641
1863,1934,1697
1901,1920,1710
1879,1903,1696
1843,1837,1643
1840,1791,1622
1878,1865,1660
1885,1897,1697
1863,1903,1663
1854,1869,1682
1901,1885,1718
1898,1933,1712
1856,1858,1586
1850,1840,1619
1872,1912,1698
1878,1955,1693
1840,1837,1692
1858,1866,1730
1901,1975,1687
1917,1917,1733
1844,1835,1661
1835,1821,1658
1881,1887,1750
1890,1904,1765
1856,1885,1707
1872,1866,1710
1902,1954,1786
1901,1986,1802
1846,1856,1651
1856,1841,1683
1894,1877,1761
1899,1975,1823
1863,1891,1704
1851,1807,1698
1885,1872,1745
1891,1899,1758
1856,1883,1733
1857,1871,1712
1898,1905,1791
1905,2000,1775
1875,1941,1663
1872,1808,1738
1898,1839,1772
1871,1890,1776
1837,1879,1734
1860,1930,1739
1883,1943,1792
1895,1909,1755
1842,1808,1701
1839,1796,1627
1872,1875,1782
1887,1909,1830
1876,1957,1761
1867,1907,1749
1870,1873,1797
1872,1858,1830
1846,1808,1801
1837,1843,1712
1883,1951,1825
1894,1872,1819
1841,1805,1749
1813,1783,1746
1850,1841,1773
1869,1871,1813
1837,1870,1776
1843,1872,1759
1874,1907,1795
1886,1959,1836
1808,1797,1748
1817,1761,1754
1868,1829,1806
1875,1902,1794
1840,1823,1744
1839,1841,1756
1863,1871,1793
1874,1849,1821
1822,1826,1797
1828,1822,1792
1873,1872,1819
1885,1915,1823
1826,1794,1750
1814,1794,1744
1866,1839,1792
1872,1856,1835
1853,1909,1808
1824,1867,1770
1838,1808,1797
1846,1808,1811
1840,1809,1793
1830,1799,1792
1881,1854,1868
1824,1923,1845
1851,1897,1747
1839,1851,1777
1895,1850,1866
1829,1903,1850
1792,1809,1803
1817,1728,1778
1835,1783,1825
1854,1809,1840
1853,1874,1791
1855,1835,1808
1834,1841,1871
1904,1874,1851
1792,1808,1776
1783,1845,1787
1851,1910,1837
1866,1839,1873
1822,1779,1789
1803,1779,1787
1859,1808,1840
1862,1891,1867
1838,1863,1834
1835,1866,1807
1863,1856,1850
1895,1763,1847
1819,1869,1819
1840,1814,1818
1873,1823,1858
1881,1864,1872
1794,1797,1776
1767,1788,1786
1798,1850,1871
1852,1872,1869
1817,1843,1813
1840,1869,1833
1853,1821,1856
1837,1833,1851
1789,1802,1811
1778,1851,1823
1872,1846,1836
1840,1888,1873
1826,1866,1867
1789,1774,1849
1840,1841,1854
1858,1861,1845
1815,1821,1806
1826,1775,1812
1867,1873,1886
1839,1883,1878
1851,1843,1834
1803,1805,1825
1786,1815,1840
1883,1834,1866
1831,1770,1822
1842,1787,1825
1815,1813,1883
1845,1873,1863
1804,1856,1808
1869,1844,1799
1904,1917,1842
1874,1865,1872
1803,1795,1847
1814,1759,1845
1854,1862,1857
1826,1879,1852
1854,1771,1819
1829,1759,1831
1890,1824,1875
1856,1850,1890
1807,1808,1808
1813,1820,1827
1835,1877,1874
1840,1838,1886
1825,1831,1835
1796,1874,1845
1872,1955,1882
1833,1918,1889
1825,1785,1810
1822,1725,1823
1885,1771,1870
1808,1823,1857
1759,1902,1841
1794,1793,1866
1843,1793,1875
1837,1799,1874
1819,1872,1842
1814,1905,1853
1888,1898,1895
1937,1886,1905
1900,1816,1850
1779,1797,1836
1840,1791,1862
1834,1808,1871
1806,1826,1845
1833,1834,1872
1856,1847,1885
1854,1847,1887
1808,1734,1837
1830,1874,1835
1842,1936,1889
1841,1933,1883
1853,1767,1808
1856,1750,1857
1817,1840,1911
1826,1898,1901
1850,1895,1850
1812,1900,1842
1895,1767,1856
1840,1774,1872
1837,1798,1850
1879,1855,1850
1847,1872,1871
1857,1795,1859
1792,1791,1821
1838,1852,1839
1797,1906,1918
1905,1915,1899
1846,1847,1799
1798,1700,1808
1850,1795,1873
1818,1843,1874
1813,1849,1851
1840,1829,1838
1821,1889,1877
1877,1826,1879
1755,1773,1830
1839,1856,1817
1843,1838,1863
1861,1843,1873
1857,1822,1840
1837,1899,1840
1813,1807,1865
1846,1808,1872
1819,1790,1808
1840,1871,1799
1833,1863,1867
1869,1829,1872
1815,1779,1808
1815,1794,1834
1843,1886,1904
1851,1837,1887
1789,1857,1827
1812,1883,1858
1857,1821,1883
1819,1781,1870
1827,1779,1825
1808,1791,1861
1847,1885,1894
1875,1918,1879
1831,1832,1830
1833,1787,1831
1890,1845,1886
1854,1877,1899
1857,1845,1842
1875,1893,1824
1867,1827,1872
1851,1791,1895
1831,1799,1852
1859,1922,1861
1882,1927,1886
1857,1798,1871
1830,1728,1834
1841,1779,1850
1877,1877,1874
1888,1894,1857
1831,1872,1828
1813,1819,1840
1860,1823,1886
1887,1851,1900
1854,1871,1842
1840,1835,1826
1857,1914,1874
1862,1862,1883
1829,1786,1828
1840,1871,1855
1877,1890,1907
1875,1845,1911
1821,1810,1819
1822,1777,1830
1874,1907,1874
1869,1849,1878
1827,1840,1840
1870,1891,1847
1898,1872,1873
1838,1819,1856
1803,1773,1802
1831,1813,1849
1856,1860,1898
1877,1877,1898
1831,1879,1814
1821,1810,1840
1862,1811,1889
1872,1881,1885
1835,1860,1829
1827,1842,1812
1854,1853,1859
1866,1877,1860
1842,1866,1824
1842,1873,1833
1886,1869,1885
1887,1907,1891
1823,1794,1821
1838,1717,1813
1875,1865,1842
1862,1856,1888
1823,1818,1823
1838,1881,1846
1872,1938,1871
1870,1834,1852
1831,1749,1806
1840,1796,1840
1885,1861,1875
1889,1957,1891
1838,1899,1810
1809,1776,1812
1857,1779,1869
1871,1845,1882
1853,1839,1831
1842,1840,1844
1905,1872,1897
1893,1890,1877
1811,1843,1860
1819,1898,1836
1877,1941,1872
1892,1846,1906
1857,1755,1867
1843,1817,1830
1867,1962,1869
1864,1858,1851
1823,1810,1831
1842,1808,1851
1878,1879,1904
1899,1911,1911
1862,1830,1826
1845,1825,1819
1876,1842,1862
1895,1878,1883
1852,1852,1843
1829,1845,1835
1859,1831,1849
1872,1859,1859
1835,1840,1840
1829,1815,1819
1855,1803,1868
1870,1824,1872
1827,1864,1844
1836,1879,1849
1858,1810,1877
1872,1889,1903
1851,1929,1841
1831,1712,1804
1847,1774,1842
1843,1882,1856
1852,1872,1830
1850,1803,1840
1872,1788,1840
1856,1810,1862
1816,1805,1810
1827,1852,1835
1858,1863,1878
1872,1843,1882
1827,1761,1819
1826,1829,1808
1874,1844,1866
1883,1892,1891
1828,1892,1830
1819,1779,1808
1871,1835,1855
1877,1861,1858
1826,1750,1806
1826,1779,1827
1889,1831,1861
1865,1821,1859
1835,1793,1809
1841,1838,1831
1872,1863,1872
1884,1879,1859
1837,1833,1798
1827,1730,1788
1872,1755,1850
1871,1833,1855
1834,1865,1814
1826,1831,1792
1858,1826,1834
1877,1879,1851
1852,1827,1835
1847,1795,1839
1899,1859,1875
1874,1835,1857
1835,1788,1791
1845,1783,1793
1871,1898,1868
1872,1866,1875
1842,1845,1814
1847,1824,1826
1866,1868,1869
1879,1830,1878
1833,1809,1791
