1901,1606,1942
1907,1707,1919
1939,1702,1934
1971,1700,1997
1978,1712,1981
1950,1706,1918
1744,1717,1965
1826,1733,1985
2022,1760,1968
2113,1758,1964
2123,1741,1967
2099,1721,1957
2092,1714,1959
2007,1697,1953
1981,1686,1963
2022,1681,1954
1986,1664,1917
1883,1619,1914
2063,1638,1949
2085,1661,1970
2039,1632,1878
2003,1617,1885
2125,1639,1943
2101,1659,1962
2037,1631,1933
2010,1597,1874
2006,1618,1904
2110,1650,1939
2122,1635,1949
2014,1591,1937
2013,1590,1925
2021,1624,1918
1966,1600,1879
1983,1595,1866
1979,1565,1872
2013,1575,1917
1941,1573,1905
1965,1582,1898
1968,1535,1903
1984,1579,1933
1973,1648,1936
1927,1579,1892
1878,1459,1856
1935,1476,1905
1936,1505,1910
1915,1497,1857
1887,1511,1893
1929,1578,1952
1923,1621,1951
1907,1490,1921
1936,1463,1906
1959,1517,1929
1931,1535,1895
1891,1535,1872
2000,1530,1920
1934,1530,1955
1952,1479,1984
1981,1580,1942
1915,1561,1897
1923,1535,1947
1942,1520,1953
1905,1535,1870
1933,1535,1866
1969,1535,1942
1968,1535,1958
1937,1638,1936
1926,1489,1881
1938,1446,1883
1936,1442,1881
1927,1458,1870
1964,1502,1904
2001,1525,1973
2007,1472,1991
1962,1654,1910
1943,1833,1838
1913,1327,1808
1923,1227,1861
1935,1399,1881
1959,1470,1903
1963,1393,1895
1962,1329,1904
1912,1388,1851
1906,1425,1798
1979,1477,1886
1939,1421,1841
1896,1442,1798
1946,1513,1889
2015,1493,1979
1981,1424,1923
1905,1570,1805
1941,1667,1862
1966,1341,1923
1951,1311,1905
1920,1401,1891
1904,1471,1851
1935,1472,1893
1952,1419,1920
1927,1485,1903
1935,1497,1887
1971,1525,1919
1952,1514,1939
1954,1616,1936
1958,1587,1921
1968,1495,1985
1957,1488,1984
1930,1508,1955
1941,1515,1955
1969,1588,1988
1979,1616,2011
1954,1583,1961
1931,1535,1924
1948,1515,1953
1950,1587,2000
1959,1648,2016
1966,1561,2011
2000,1638,2046
1986,1706,2016
1916,1577,1925
1921,1534,1953
1969,1634,2019
1962,1648,2027
1941,1648,1997
1968,1708,2002
1989,1675,2039
1951,1625,2004
1935,1621,1956
1952,1671,1997
1989,1739,2064
1974,1721,1995
1968,1830,1987
1968,1689,2023
1968,1602,2028
1965,1664,2003
1951,1701,1967
1966,1717,1984
1998,1799,2045
1987,1833,2029
1933,1691,1959
1966,1707,1985
1998,1785,2020
1975,1758,1989
1961,1744,1977
1993,1905,2021
2000,1822,2024
1968,1771,1966
1946,1747,1950
1978,1735,2000
2003,1841,2039
1975,1795,1973
1926,1758,1907
1943,1801,1946
1968,1851,2000
1991,1883,2025
1970,1886,1981
1968,1877,1943
1971,1779,1958
1961,1833,1965
1962,1968,1987
1953,1759,1965
1965,1770,1967
1966,1839,1950
1943,1849,1926
1936,1872,1919
1965,1904,1967
1967,1922,1969
1951,1905,1920
1947,1854,1923
1973,1933,1983
1953,2015,1961
1923,1866,1912
1945,1856,1920
1942,1913,1917
1944,1920,1931
1930,1922,1909
1942,1891,1919
1967,1911,1927
1947,1927,1913
1925,1933,1891
1950,1950,1929
1957,1983,1942
1925,1981,1915
1921,1982,1890
1941,2074,1901
1958,2022,1944
1909,1883,1888
1895,1882,1855
1937,1959,1907
1977,2032,1947
1936,1973,1917
1898,1959,1858
1931,2002,1890
1953,2013,1927
1930,2007,1903
1889,1998,1859
1907,2005,1882
1947,2073,1936
1950,2181,1936
1921,2034,1892
1897,1867,1853
1901,1926,1866
1897,1999,1859
1887,2005,1843
1911,2031,1882
1949,2093,1938
1919,2062,1884
1889,1991,1819
1899,2000,1840
1919,2053,1883
1904,2054,1875
1878,2016,1827
1903,2034,1847
1922,2104,1888
1920,2014,1863
1915,2090,1787
1882,2054,1814
1899,2027,1855
1908,2002,1833
1840,2015,1837
1872,2035,1850
1904,2066,1885
1892,1988,1847
1854,1984,1798
1881,2045,1819
1894,2157,1852
1856,2023,1779
1835,2020,1789
1856,2037,1812
1891,2031,1845
1872,2031,1814
1841,2030,1776
1867,2067,1811
1864,2015,1809
1840,2006,1769
1836,2087,1773
1841,1936,1781
1859,1919,1808
1840,1984,1781
1829,2053,1761
1841,2002,1783
1861,2047,1808
1853,2012,1776
1819,1999,1741
1831,2016,1759
1868,2141,1803
1853,1986,1755
1802,1893,1718
1803,1968,1756
1827,2041,1785
1825,2117,1780
1810,2019,1762
1809,1909,1744
1829,1944,1780
1817,1986,1753
1823,1905,1723
1827,1958,1763
1827,2067,1769
1808,2102,1733
1783,2000,1707
1808,1994,1744
1822,2025,1776
1835,2010,1747
1794,1939,1723
1829,2001,1758
1807,2078,1779
1778,2077,1751
1747,2012,1697
1787,1905,1744
1835,1958,1807
1807,1987,1789
1760,1985,1719
1753,2019,1721
1794,2033,1782
1805,2000,1776
1778,1975,1737
1777,1967,1738
1803,1967,1771
1781,2046,1765
1758,2033,1723
1775,1995,1739
1805,1929,1775
1783,1963,1739
1763,2005,1701
1790,2005,1759
1803,2042,1776
1781,1989,1728
1758,1943,1710
1776,1930,1726
1803,1947,1774
1795,1955,1739
1751,1981,1711
1806,2000,1719
1776,1949,1750
1716,2006,1766
1723,1929,1744
1762,2039,1763
1787,1999,1783
1762,1926,1710
1728,1923,1662
1731,1911,1718
1774,2044,1776
1763,1952,1742
1747,1937,1711
1771,1922,1728
1805,2149,1757
1789,2002,1742
1775,1981,1664
1746,1930,1727
1744,1979,1785
1744,1984,1751
1729,1972,1729
1715,1930,1728
1766,2021,1765
1770,1989,1737
1728,1933,1706
1731,1935,1725
1774,1915,1763
1748,1953,1747
1728,1943,1715
1765,2014,1742
1778,1981,1789
1754,1935,1746
1728,2003,1699
1743,1953,1734
1773,2005,1790
1759,1970,1761
1732,1915,1698
1745,1937,1740
1776,1956,1803
1767,2010,1778
1749,2006,1725
1792,1915,1738
1815,2017,1821
1743,1998,1796
1697,1913,1731
1775,1973,1778
1854,2034,1860
1798,1917,1786
1681,1859,1661
1676,1895,1675
1741,1921,1753
1730,1904,1752
1713,1929,1728
1726,1878,1712
1762,1904,1753
1743,1871,1770
1735,1850,1745
1740,1858,1753
1739,1879,1783
1740,1833,1761
1731,1858,1732
1750,1857,1727
1764,1872,1757
1734,1840,1735
1713,1808,1707
1744,1822,1738
1770,1871,1779
1764,1838,1743
1730,1776,1687
1728,1794,1721
1776,1872,1775
1741,1791,1726
1712,1749,1681
1744,1806,1712
1761,1756,1743
1733,1773,1693
1707,1701,1647
1707,1780,1673
1748,1770,1706
1738,1749,1669
1711,1700,1618
1728,1735,1635
1745,1744,1663
1723,1733,1616
1673,1696,1590
1665,1686,1600
1681,1701,1618
1679,1680,1601
1669,1653,1559
1673,1655,1570
1686,1667,1584
1662,1655,1553
1657,1637,1520
1660,1621,1520
1671,1649,1568
1650,1648,1555
1642,1638,1535
1662,1633,1535
1680,1649,1578
1658,1646,1557
1645,1635,1527
1658,1653,1535
1683,1687,1574
1655,1653,1535
1633,1613,1527
1645,1630,1558
1727,1722,1645
1776,1782,1678
1681,1671,1570
1579,1584,1472
1599,1621,1561
1647,1683,1615
1655,1671,1575
1605,1639,1535
1621,1659,1567
1667,1677,1581
1635,1664,1535
1662,1707,1598
1845,1870,1785
1777,1807,1724
1487,1573,1447
1493,1573,1454
1562,1559,1528
1555,1609,1520
1680,1735,1581
1841,1717,1649
1584,1673,1584
1467,1687,1531
1526,1680,1504
1515,1623,1489
1530,1647,1523
1574,1708,1556
1586,1707,1565
1579,1681,1555
1587,1706,1582
1630,1744,1595
1695,1801,1647
1728,1829,1693
1535,1702,1535
1447,1651,1445
1502,1705,1495
1648,1827,1647
1798,1920,1787
1689,1849,1683
1461,1712,1472
1418,1703,1422
1579,1821,1579
1696,1920,1663
1584,1809,1526
1485,1831,1517
1581,1859,1584
1407,1806,1455
1328,1787,1395
1387,1821,1429
1471,1891,1506
1502,1931,1531
1407,1831,1407
1379,1872,1404
1712,2160,1763
1600,2033,1648
1159,1721,1226
1137,1753,1195
2019,2406,2000
1978,2230,1982
879,1535,978
802,1604,879
1284,1840,1321
1314,1840,1379
1205,1853,1253
1247,1915,1291
1318,1969,1383
1328,1969,1377
1350,1998,1396
1438,2078,1503
1317,2003,1398
1232,1936,1285
1310,1973,1367
1425,2061,1493
1368,2058,1435
1207,1971,1293
1206,1950,1264
1299,2003,1365
1360,2053,1453
1363,2047,1445
1375,2044,1442
1423,2063,1504
1392,2032,1493
1299,2013,1376
1328,2041,1399
1445,2077,1515
1398,2068,1488
1391,2029,1408
1461,2030,1371
1335,2070,1490
1328,2099,1535
1359,2085,1525
1408,2064,1502
1462,2096,1531
1480,2119,1578
1461,2129,1565
1459,2117,1520
1467,2121,1584
1515,2160,1637
1523,2130,1648
1459,2021,1570
1469,2000,1579
1526,2027,1638
1534,2219,1648
1520,2480,1611
1588,2335,1645
1616,1902,1600
1520,1767,1599
1494,1871,1630
1597,2111,1700
1634,2102,1686
1526,2125,1681
1535,2041,1724
1597,1953,1744
1635,1974,1763
1631,1903,1744
1623,1891,1750
1647,1968,1759
1654,2054,1792
1653,2021,1798
1615,1929,1728
1596,1823,1699
1621,1840,1757
1630,1866,1750
1612,1847,1698
1629,1808,1812
1631,1716,1794
1611,1810,1770
1599,1904,1749
1617,1775,1731
1648,1707,1739
1535,1666,1782
1570,1721,1732
1687,1843,1689
1625,1637,1799
1563,1570,1851
1599,1610,1863
1706,1676,1774
1648,1683,1808
1586,1555,1807
1604,1531,1810
1648,1633,1809
1686,1767,1918
1648,1595,1872
1643,1419,1805
1699,1450,1838
1777,1647,1897
1619,1611,1856
1607,1472,1853
1697,1472,1936
1735,1535,1938
1715,1659,1935
1717,1708,1867
1734,1419,1797
1723,1396,1925
1703,1510,1936
1731,1439,1895
1728,1456,1869
1758,1570,1905
1781,1669,1936
1727,1405,1919
1712,1395,1901
1755,1515,1981
1767,1523,1997
1744,1485,1921
1760,1459,1951
1786,1513,1925
1766,1507,1931
1774,1478,1946
1825,1587,1968
1853,1625,2019
1798,1521,1926
1741,1366,1971
1774,1463,1966
1808,1620,1987
1813,1535,2002
1821,1479,1919
1840,1513,2000
1821,1596,2064
1803,1535,1982
1806,1429,1936
1821,1472,1971
1837,1571,1989
1825,1535,2000
1835,1573,1968
1872,1597,2013
1893,1567,2042
1875,1535,2013
1860,1560,1983
1831,1593,2032
1875,1679,2087
1920,1705,2022
1904,1553,1973
1902,1570,2013
1861,1535,2031
1878,1557,2095
1865,1638,2035
1872,1621,1998
1905,1680,2023
1891,1668,2007
1865,1535,2013
1891,1599,1986
1919,1666,2065
1935,1581,2015
1934,1606,2019
1841,1616,2082
1872,1647,2023
1906,1669,2011
1930,1658,2007
1922,1710,1951
1936,1827,2032
1899,1633,2014
1885,1600,1968
1920,1654,1938
1942,1656,2023
1923,1613,2013
1927,1663,1975
2026,1737,2031
2045,1852,2038
1891,1637,1993
1859,1615,1954
1920,1675,1991
1969,1634,2031
1968,1699,1953
1936,1744,1982
1936,1594,2011
1973,1787,2029
1939,1724,1968
1927,1670,1949
1939,1727,2004
1955,1667,2083
1970,1686,1979
1968,1657,1965
1967,1758,1991
1928,1762,1986
1946,1751,1968
1991,1763,1903
1962,1716,1952
1970,1743,2032
1958,1705,2023
1943,1843,1978
1969,1815,1989
1968,1745,1991
1967,1677,1936
1991,1697,1913
1967,1807,1971
1968,1806,2026
1957,1811,2019
1922,1775,1906
1998,1829,1942
1996,1728,1936
1979,1743,1922
1943,1747,2000
1967,1746,2027
2007,1827,1998
1968,1798,1919
1934,1845,1958
1963,1790,2014
1997,1776,2032
1994,1836,1966
1963,1822,1922
1980,1792,1936
1970,1775,1979
1973,1802,2029
1943,1808,1954
2000,1875,1968
2045,1856,2021
1963,1840,1925
1965,1763,1904
1974,1771,1923
2055,1837,2064
2030,1933,1953
1967,1771,1843
1918,1721,1889
1962,1805,2027
1970,1853,2057
1994,1863,1987
2002,1825,1933
1992,1897,1903
1968,1835,1889
1983,1834,1920
2047,1813,2000
2013,1872,1995
1951,1839,1897
1958,1861,1926
1973,1806,1909
2014,1993,1968
2007,1925,1965
2004,1791,1920
2000,1767,1930
1998,1808,1911
1985,1866,1922
1969,1831,1930
2013,1939,1958
2081,1979,1950
2007,1808,1879
1998,1747,1881
1990,1790,1907
1995,1923,2021
1967,1898,1957
1967,1959,1882
1998,1914,1887
1999,1813,1900
2002,1861,1907
1987,1840,1859
1997,1879,1872
2031,1941,1954
2017,1978,1936
1994,1998,1921
2010,1843,1897
2003,1787,1968
1994,1808,1899
1995,1851,1866
1976,1893,1875
2005,1928,1952
2057,2017,1955
1969,1905,1904
1986,1872,1881
1993,1894,1907
1975,1921,1899
2000,1998,1900
2037,1939,1922
2064,1851,1926
2045,1847,1870
1995,1959,1887
1978,1909,1901
2054,1940,1991
1973,1968,1950
2032,1919,1877
2062,1903,1909
2032,1952,1962
2091,2063,1936
1997,1898,1857
2061,1840,1902
2063,2015,2003
2031,1959,1935
2000,1924,1902
2031,1946,1919
2074,2032,1943
2075,1991,1955
1977,1925,1923
2034,1971,1939
2019,2042,1964
2019,1958,1936
2011,1893,1904
2003,1910,1900
2039,2014,1945
1973,1995,1915
2000,1949,1934
1972,1937,1959
2045,1994,1968
1998,1970,1854
1984,2021,1830
2047,2025,1953
2061,2045,1990
2005,1937,1915
1957,1871,1865
2006,1952,1893
2076,2000,1943
1984,1955,1891
1938,1936,1892
2013,1953,1889
2031,1966,1910
2014,1986,1931
1997,2015,1917
2010,1951,1905
2000,1901,1899
1997,1889,1857
1966,2019,1829
1997,2005,1885
2065,1904,1933
1991,1879,1858
2006,1878,1850
2062,1959,1842
2098,2018,1936
1968,1973,1935
1970,1904,1886
1991,1893,1898
2070,1978,1899
2006,1938,1840
2001,1911,1805
2001,1945,1845
2017,1968,1904
1998,1978,1898
2033,1914,1884
2015,1953,1885
2083,2004,1903
2026,2013,1869
1975,1901,1842
2014,1882,1885
2005,1959,1867
2030,1953,1822
2022,1936,1871
2033,1931,1907
2058,1918,1936
1983,1968,1851
2009,1971,1823
2043,1917,1877
2035,1947,1931
2007,1966,1888
2006,1935,1840
2058,1993,1874
2029,1963,1914
1951,1947,1878
1999,2062,1870
2031,1968,1914
2034,1994,1893
2002,1913,1840
1994,1898,1847
2007,1920,1893
2028,1938,1920
1995,1899,1879
1980,1928,1855
2017,1984,1930
2020,1958,1936
1984,1952,1850
1959,1933,1833
2000,2112,1936
1967,1992,1927
2006,1890,1870
1987,1900,1872
2047,1973,1898
1995,1997,1957
1946,1904,1888
2005,1844,1847
2003,1953,1872
1987,2004,1942
2045,1936,1843
1999,1927,1845
2003,1997,1927
1990,2013,1921
1969,1921,1867
1947,1862,1845
1997,1936,1883
1939,1895,1904
1862,1890,1883
2033,1923,1872
1950,1965,1903
2023,1977,1920
2012,1969,1883
1936,1871,1855
2021,1938,1893
2004,2067,1951
1997,2000,1857
2058,1833,1830
2010,1776,1867
2028,1834,1869
1975,1897,1838
1946,1965,1840
2013,1984,1892
2032,1959,1907
1967,1771,1863
1938,1808,1834
1986,1878,1863
2047,1871,1872
2011,1907,1845
1937,1914,1840
1963,1878,1872
1970,1898,1873
2002,1936,1842
1966,1847,1834
2037,1914,1879
2067,1934,1866
1967,1939,1834
1906,1959,1856
1973,1877,1889
1977,1762,1893
1941,1839,1840
1934,1920,1828
1975,1918,1855
2003,1845,1859
1932,1855,1838
1955,1872,1861
1968,1953,1875
1997,1849,1904
1972,1843,1856
1981,2005,1852
1970,1933,1871
1960,1801,1875
1933,1827,1877
1959,1872,1887
1979,1901,1872
1979,1935,1872
1947,1874,1841
1936,1904,1851
1975,1951,1895
1984,1929,1926
1958,1799,1879
1921,1847,1843
1964,1874,1858
1967,1886,1914
1954,1911,1872
1941,1909,1848
1963,1839,1917
1968,1936,1919
1950,1970,1845
1911,1872,1830
1936,1867,1904
1959,1900,1922
1953,1924,1865
1924,1846,1808
1925,1877,1861
1957,1968,1904
1949,1968,1851
1911,1805,1838
1930,1792,1871
1946,1891,1903
1933,1846,1854
1921,1847,1847
1955,1987,1858
1977,1895,1874
1956,1902,1883
1894,1856,1840
1898,1859,1840
1946,1928,1874
1916,1792,1851
1923,1854,1806
1932,1869,1856
1933,1849,1893
1919,1904,1868
1898,1879,1805
1911,1911,1839
1942,1914,1879
1909,1866,1845
1902,1792,1813
1935,1801,1873
1947,1942,1902
1906,1878,1821
1895,1787,1744
1920,1837,1821
1967,1914,1918
1917,1904,1875
1873,1842,1815
1941,1933,1871
1968,1927,1891
1936,1885,1817
1903,1876,1818
1904,1847,1834
1922,1845,1853
1916,1839,1830
1925,1842,1845
1947,1853,1862
1929,1888,1865
1905,1879,1824
1918,1877,1813
1945,1955,1837
1961,2023,1919
1890,1830,1829
1904,1887,1831
1920,1857,1887
1940,1879,1901
1867,1783,1829
1889,1814,1807
1918,1824,1846
1936,1902,1907
1914,1937,1878
1904,1911,1834
1934,1874,1866
1951,1975,1893
1918,1883,1841
1899,1799,1821
1936,1856,1855
1962,1859,1889
1946,1815,1891
1925,1971,1841
1936,1918,1869
1950,1936,1932
1938,1906,1865
1936,1932,1870
1925,1922,1883
1931,1918,1904
1911,1901,1904
1885,1753,1840
1932,1811,1872
1969,1885,1883
1968,1953,1881
1938,1843,1849
1985,1957,1915
1989,1935,1893
1988,1846,1840
1967,1923,1824
1997,1893,1894
2001,1851,1901
1957,1792,1835
1989,1851,1802
2023,1926,1879
2038,1963,1920
2023,1916,1893
1968,1845,1842
1998,1872,1845
2021,1903,1872
2020,1859,1837
2030,1839,1825
2075,1935,1904
2064,1901,1898
2001,1835,1799
2013,1808,1782
2053,1821,1870
2089,1953,1930
2067,1920,1882
2022,1868,1815
2063,1929,1853
2074,1945,1895
2031,1840,1840
2007,1841,1805
2038,1798,1854
2062,1932,1887
2014,1874,1809
1979,1805,1779
2027,1801,1862
2032,1936,1904
1984,1845,1831
1991,1840,1795
2015,1830,1835
2018,1831,1872
1982,1847,1845
1956,1837,1808
1971,1869,1845
1995,1918,1893
1996,1874,1842
1945,1874,1840
1955,1868,1858
1975,1781,1872
1975,1872,1835
1936,1839,1801
1922,1868,1808
1975,1840,1881
1959,1849,1863
1933,1817,1809
1965,1847,1851
1961,1981,1891
1921,1874,1845
1901,1756,1807
1947,1837,1847
1936,1942,1885
1919,1755,1856
1882,1843,1820
1905,1947,1837
1927,1904,1872
1891,1861,1842
1881,1871,1813
1934,2001,1874
1950,1930,1914
1900,1826,1840
1861,1807,1793
1895,1883,1853
1934,1985,1879
1884,1805,1820
1861,1889,1825
1891,1890,1862
1923,1867,1878
1856,1847,1806
1827,1827,1802
1865,1847,1850
1893,1915,1883
1874,1838,1814
1856,1852,1781
1875,1871,1855
1883,1904,1883
1838,1871,1805
1821,1872,1801
1874,1871,1863
1904,1887,1870
1847,1811,1808
1840,1852,1814
1868,1849,1856
1891,1872,1851
1833,1872,1796
1815,1753,1790
1855,1831,1825
1861,1936,1821
1849,1850,1807
1858,1842,1788
1869,1869,1807
1839,1854,1840
1808,1793,1843
1814,1809,1827
1850,1827,1811
1889,1803,1840
1845,1850,1809
1808,1915,1798
1855,1906,1871
1861,1879,1867
1821,1875,1802
1802,1794,1774
1824,1826,1824
1868,1901,1867
1841,1846,1822
1797,1785,1784
1812,1791,1818
1858,1840,1855
1809,1905,1808
1819,1891,1807
1841,1932,1862
1851,1858,1874
1808,1840,1795
1803,1883,1797
1837,1865,1840
1837,1821,1819
1838,1771,1805
1830,1776,1831
1840,1808,1861
1840,1843,1847
1827,1888,1808
1787,1860,1798
1813,1834,1817
1851,1886,1839
1842,1878,1839
1826,1782,1845
1808,1786,1840
1834,1927,1872
1789,1669,1810
1786,1697,1776
1840,1817,1857
1850,1865,1867
1803,1851,1808
1776,1724,1804
1802,1825,1816
1837,1927,1859
1812,1859,1793
1792,1786,1798
1825,1809,1838
1815,1851,1839
1759,1779,1789
1749,1781,1792
1808,1778,1851
1840,1795,1875
1793,1903,1808
1775,1851,1744
1801,1901,1805
1823,1793,1837
1779,1775,1778
1776,1788,1765
1808,1887,1836
1806,1758,1855
1775,1758,1775
1753,1781,1728
1781,1735,1781
1818,1826,1808
1792,1967,1746
1728,1743,1778
1761,1708,1808
1764,1858,1802
1757,1853,1762
1753,1758,1744
1783,1767,1801
1810,1890,1821
1765,1941,1785
1740,1727,1747
1776,1744,1784
1793,1777,1775
1762,1788,1747
1766,1731,1789
1802,1890,1828
1783,1841,1797
1775,1789,1755
1744,1773,1748
1782,1769,1794
1824,1863,1835
1775,1877,1754
1760,1840,1766
1791,1862,1842
1792,1888,1855
1775,1821,1781
1803,1791,1781
1798,1776,1788
1785,1793,1814
1761,1791,1803
1771,1831,1808
1811,1802,1847
1823,1856,1859
1785,1845,1793
1779,1904,1763
1799,1854,1830
1814,1953,1853
1805,1907,1795
1776,1760,1765
1803,1715,1838
1798,1803,1849
1786,1866,1795
1777,1852,1776
1798,1850,1808
1823,1848,1840
1762,1903,1812
1762,1899,1805
1789,1792,1837
1806,1744,1866
1776,1870,1808
1764,1802,1790
1812,1899,1850
1809,1878,1842
1778,1808,1811
1755,1689,1776
1787,1725,1842
1818,1834,1853
1778,1856,1799
1758,1867,1776
1799,1827,1821
1814,1782,1814
1783,1807,1798
1760,1840,1792
1766,1839,1808
1795,1914,1841
1761,1808,1806
1742,1728,1783
1790,1795,1840
1809,1821,1856
1758,1828,1759
1758,1783,1766
1798,1866,1834
1788,1837,1847
1759,1798,1797
1744,1826,1770
1792,1811,1787
1790,1823,1795
1751,1678,1746
1744,1741,1729
1791,1805,1792
1798,1808,1841
1768,1791,1795
1739,1795,1751
1774,1841,1799
1777,1756,1825
1746,1807,1771
1757,1829,1778
1778,1824,1814
1800,1829,1854
1794,1779,1774
1770,1712,1744
1779,1872,1807
1797,1834,1843
1777,1815,1789
1780,1750,1741
1808,1797,1821
1808,1843,1879
1775,1859,1823
1776,1789,1808
1846,1897,1818
1826,1824,1828
1786,1876,1834
1772,1777,1809
1795,1755,1828
1825,1845,1840
1798,1857,1788
1785,1857,1806
1839,1857,1861
1844,1859,1877
1795,1829,1813
1790,1808,1782
1827,1798,1845
1849,1889,1878
1821,1871,1844
1824,1902,1826
1828,1873,1841
1821,1823,1846
1808,1863,1793
1805,1847,1807
1840,1889,1873
1845,1904,1872
1796,1796,1822
1783,1734,1833
1827,1983,1890
1831,1917,1873
1802,1728,1808
1793,1840,1798
1840,1901,1846
1840,1867,1866
1808,1903,1831
1797,1869,1817
1809,1778,1834
1821,1845,1856
1798,1878,1839
1792,1787,1791
1808,1805,1790
1822,1805,1826
1831,1803,1802
1794,1926,1849
1802,1879,1867
1783,1779,1856
1765,1792,1805
1774,1776,1797
1826,1807,1855
1824,1916,1884
1764,1808,1790
1750,1771,1759
1819,1839,1835
1831,1941,1867
1785,1808,1762
1776,1771,1767
1803,1793,1828
1849,1807,1887
1830,1840,1840
1776,1869,1803
1810,1882,1833
1833,1839,1826
1761,1853,1778
1781,1867,1827
1819,1769,1856
1819,1818,1877
1791,1822,1815
1802,1800,1790
1840,1818,1833
1841,1958,1853
1789,1946,1810
1783,1775,1802
1819,1797,1835
1840,1858,1874
1813,1787,1771
1795,1776,1792
1838,1808,1861
1853,1870,1895
1814,1860,1840
1835,1889,1818
1883,1918,1872
1831,1844,1872
1794,1839,1824
1827,1985,1834
1863,1957,1891
1838,1771,1865
1821,1808,1818
1839,1811,1797
1861,1823,1881
1866,1895,1919
1836,1947,1871
1837,1840,1824
1871,1856,1851
1883,1872,1886
1840,1895,1859
1830,1927,1821
1861,1898,1839
1883,1885,1904
1861,1799,1842
1826,1841,1840
1872,1904,1858
1888,1955,1904
1862,1920,1817
1820,1831,1795
1845,1868,1837
1869,1934,1926
1840,1810,1813
1821,1815,1802
1846,1882,1897
1861,1869,1921
1838,1872,1824
1835,1865,1851
1877,1904,1866
1897,1965,1863
1829,1883,1855
1815,1853,1831
1843,1839,1865
1874,1862,1873
1827,1830,1820
1841,1824,1823
1863,1872,1862
1845,1857,1844
1833,1815,1808
1825,1861,1798
1815,1850,1885
1815,1861,1851
1803,1863,1822
1810,1823,1805
1856,1962,1840
1861,1998,1870
1782,1757,1786
1779,1650,1823
1829,1783,1823
1857,1840,1850
1838,1885,1793
1798,1857,1827
1827,1840,1842
1856,1931,1879
1821,1899,1808
1798,1732,1786
1815,1796,1776
1866,1896,1856
1840,1869,1789
1795,1747,1769
1817,1809,1854
1852,1899,1862
1822,1853,1781
1818,1883,1811
1861,1883,1825
1876,1890,1911
1840,1856,1792
1830,1838,1826
1855,1823,1878
1871,1791,1826
1854,1918,1843
1839,1872,1792
1854,1842,1847
1861,1879,1872
1858,1836,1877
1843,1830,1840
1861,1920,1867
1850,1871,1847
1833,1949,1817
1845,1892,1813
1874,1823,1877
1892,1867,1904
1849,1919,1808
1829,1845,1801
1860,1800,1841
1872,1873,1828
1851,1937,1824
1857,1942,1823
1886,1889,1863
1885,1862,1904
1841,1762,1787
1858,1843,1847
1897,1911,1874
1873,1902,1894
1857,1881,1841
1883,1918,1856
1873,1941,1854
1865,1854,1847
1834,1818,1856
1827,1847,1777
1854,1898,1851
1866,1884,1848
1841,1819,1822
1823,1823,1778
1858,1880,1818
1859,1877,1901
1840,1827,1844
1854,1939,1838
1878,1979,1847
1862,1856,1820
1808,1744,1774
1805,1794,1775
1861,1897,1852
1857,1855,1849
1830,1837,1813
1855,1853,1817
1887,1891,1879
1872,1830,1872
1811,1904,1803
1782,1869,1781
1846,1831,1844
1860,1877,1797
1830,1857,1834
1840,1795,1808
1859,1817,1874
1862,1834,1830
1831,1867,1763
1840,1937,1898
1874,1904,1847
1887,1845,1883
1846,1790,1766
1852,1862,1838
1863,1872,1808
1874,1871,1907
1842,1793,1802
1829,1817,1799
1872,1884,1860
1877,1873,1863
1885,1856,1841
1902,1847,1791
1872,1901,1841
1851,1868,1866
1845,1818,1819
1873,1825,1835
1881,1941,1891
1899,1971,1893
1840,1815,1817
1829,1793,1794
1882,1878,1883
1901,1893,1968
1886,1920,1871
1872,1854,1874
1878,1783,1873
1884,1856,1874
1874,1875,1853
1886,1899,1851
1899,1950,1891
1882,1840,1842
1845,1808,1841
1871,1843,1799
1919,1903,1871
1921,1984,1870
1936,1936,1875
1891,1939,1853
1875,1817,1871
1888,1909,1895
1857,1840,1889
1858,1796,1846
1890,1874,1873
1882,1922,1904
1860,1868,1846
1854,1875,1813
1873,1901,1853
1887,1905,1867
1847,1769,1824
1857,1858,1840
1895,1889,1863
1879,1834,1869
1843,1807,1808
1840,1822,1798
1883,1931,1858
1904,1878,1878
1855,1826,1814
1849,1846,1838
1842,1816,1849
1889,1883,1853
1862,1844,1808
1840,1811,1818
1869,1981,1861
1886,1898,1871
1859,1743,1808
1839,1799,1781
1841,1843,1807
1863,1887,1839
1851,1846,1839
1850,1770,1826
1880,1823,1838
1887,1872,1884
1854,1906,1854
1866,1922,1830
1877,1825,1840
1874,1825,1859
1840,1799,1792
1909,1778,1808
1920,1854,1849
1886,1948,1879
1882,1820,1799
1808,1778,1791
1840,1802,1850
1915,1923,1913
1869,2005,1867
1872,1878,1849
1840,1767,1847
1921,1779,1877
1854,1831,1843
1858,1858,1825
1861,1867,1863
1883,1821,1871
1904,1808,1822
1850,1940,1873
1898,1907,1869
1889,1841,1846
1872,1773,1791
1888,1845,1835
1911,1867,1872
1898,1910,1904
1835,1878,1843
1878,1804,1811
1889,1837,1846
1920,1817,1886
1861,1922,1862
1872,1856,1843
1921,1883,1883
1926,1866,1875
1898,1849,1840
1863,1776,1837
1930,1915,1870
1898,1957,1875
1871,1842,1813
1879,1838,1850
1905,1853,1883
1872,1912,1879
1914,1855,1819
1858,1765,1791
1862,1826,1855
1860,1858,1871
1923,1845,1823
1903,1872,1824
1878,1954,1877
1899,1929,1863
1878,1847,1858
1847,1754,1823
1894,1766,1856
1899,1965,1890
1840,1949,1845
1901,1824,1818
1926,1831,1835
1872,1792,1857
1872,1799,1829
1907,1881,1809
1859,1905,1867
1943,1941,1898
1874,1824,1840
1906,1771,1814
1923,1893,1857
1934,1873,1874
1878,1829,1824
1887,1873,1819
1919,1865,1861
1936,1921,1863
1884,1819,1797
1911,1757,1788
1937,1904,1861
1975,1883,1875
1891,1856,1840
1834,1875,1808
1933,1865,1851
1894,1870,1881
1925,1866,1841
1874,1855,1826
1936,1879,1850
1920,1879,1867
1877,1808,1831
1907,1818,1824
1923,1863,1834
1881,1850,1841
1923,1836,1797
1824,1842,1823
1955,1855,1870
1911,1856,1872
1869,1856,1821
