1878,1852,1858
1867,1911,1868
1888,1900,1824
1920,1875,1884
1895,1840,1858
1852,1821,1818
1872,1932,1825
1900,1895,1867
1887,1858,1904
1882,1856,1829
1894,1978,1872
1920,1888,1870
1877,1822,1835
1838,1872,1838
1847,1847,1831
1889,1872,1883
1893,1808,1869
1847,1846,1816
1835,1845,1857
1860,1867,1837
1872,1872,1901
1840,1936,1847
1847,1808,1840
1879,1826,1863
1881,1917,1859
1825,1823,1793
1824,1796,1810
1876,1895,1882
1886,1867,1856
1840,1841,1792
1833,1824,1836
1873,1840,1887
1840,1845,1822
1805,1841,1799
1839,1835,1803
1885,1922,1936
1851,1904,1872
1809,1746,1825
1829,1823,1798
1867,1861,1879
1845,1905,1841
1805,1811,1855
1814,1822,1795
1854,1779,1857
1878,1843,1872
1838,1840,1808
1822,1903,1831
1854,1850,1815
1840,1753,1865
1821,1775,1799
1831,1845,1807
1872,1885,1840
1872,1954,1851
1847,1839,1802
1808,1777,1840
1833,1857,1828
1854,1840,1830
1855,1861,1840
1861,1856,1793
1856,1857,1822
1856,1833,1824
1841,1802,1777
1857,1838,1802
1884,1833,1840
1863,1850,1859
1856,1898,1879
1858,1873,1858
1872,1831,1845
1866,1872,1819
1847,1883,1794
1863,1870,1833
1895,1851,1838
1884,1843,1927
1869,1875,1862
1863,1809,1815
1878,1809,1846
1874,1886,1807
1856,1845,1792
1875,1851,1843
1895,1862,1890
1872,1888,1888
1856,1845,1824
1895,1921,1869
1904,1942,1899
1872,1856,1812
1856,1795,1776
1863,1856,1847
1890,1810,1895
1889,1819,1883
1860,1909,1841
1869,1883,1825
1879,1879,1875
1866,1856,1846
1858,1869,1833
1869,1906,1833
1894,1867,1883
1889,1894,1887
1874,1861,1836
1876,1891,1818
1891,1821,1855
1891,1861,1851
1856,1807,1819
1858,1855,1840
1921,1941,1897
1920,1887,1858
1872,1808,1838
1901,1872,1847
1889,1845,1876
1883,1840,1841
1882,1895,1825
1891,1905,1840
1915,1814,1846
1905,1818,1839
1904,1827,1808
1899,1857,1842
1943,1853,1889
1862,1825,1825
1883,1823,1794
1891,1850,1833
1975,1918,1868
1975,1872,1874
1872,1811,1810
1840,1806,1797
1947,1853,1859
1954,1897,1862
1879,1922,1809
1898,1773,1826
1936,1960,1882
1915,1885,1858
1906,1714,1793
1883,1801,1838
1880,1884,1879
1961,1882,1842
1884,1803,1819
1905,1881,1849
1934,1890,1851
1889,1839,1827
1878,1808,1776
1906,1817,1807
1936,1855,1866
1948,1893,1878
1901,1870,1837
1937,1872,1850
1958,1858,1876
1936,1805,1840
1873,1828,1805
1911,1919,1835
1936,1911,1891
1884,1794,1872
1881,1872,1808
1882,1840,1817
1918,1862,1867
1935,1851,1854
1905,1822,1835
1936,1850,1857
1926,1936,1916
1951,1825,1890
1918,1841,1810
1893,1877,1857
1921,1937,1907
1915,1971,1905
1911,1837,1810
1904,1808,1849
1921,1861,1918
1930,1873,1872
1936,1801,1794
1904,1870,1841
1933,1907,1878
1895,1895,1851
1927,1826,1855
1961,1920,1885
1967,1919,1904
1999,1923,1904
1863,1899,1838
1873,1840,1836
1975,1805,1867
1939,1877,1862
1911,1863,1835
1950,1888,1847
1971,1863,1883
1981,1877,1869
1925,1817,1845
1933,1857,1842
1942,1919,1902
1927,1881,1861
1909,1871,1811
1942,1850,1840
1988,1955,1884
1955,1899,1872
1863,1795,1809
1959,1824,1840
2011,1879,1874
1947,1897,1867
1923,1793,1813
1914,1813,1840
1975,1890,1894
1985,1887,1854
1904,1825,1825
1991,1853,1875
1946,2001,1887
1938,1914,1852
1945,1845,1803
1909,1744,1796
1977,1781,1846
1959,1907,1875
1936,1825,1827
1944,1771,1807
1977,1877,1847
1913,1900,1825
1936,1859,1821
1914,1817,1852
1927,1814,1874
1923,1907,1856
1894,1961,1819
1904,1865,1823
1936,1854,1861
1937,1866,1857
1913,1920,1823
1915,1875,1841
1894,1795,1867
1919,1721,1826
1858,1818,1808
1968,1890,1822
2031,1938,1895
1981,2030,1889
1905,1846,1821
1890,1798,1840
1904,1865,1888
1884,1883,1853
1883,1845,1797
1870,1821,1835
1946,1872,1890
1936,1904,1886
1846,1850,1839
1957,1817,1855
1918,1899,1903
1922,1974,1883
1862,1971,1810
1904,1863,1831
1932,1846,1903
1922,1855,1885
1838,1840,1834
1898,1872,1847
1920,1909,1870
1891,1853,1842
1878,1835,1814
1903,1858,1831
1982,1889,1888
1903,1895,1877
1856,1933,1824
1876,1872,1828
1878,1808,1873
1873,1857,1867
1865,1911,1819
1889,1841,1815
1917,1840,1873
1878,1839,1854
1841,1875,1792
1904,1891,1808
1891,1927,1867
1897,1868,1869
1878,1872,1838
1876,1835,1811
1926,1809,1840
1854,1863,1822
1854,1849,1798
1895,1847,1837
1913,1865,1897
1903,1873,1866
1828,1808,1802
1831,1855,1793
1889,1879,1859
1884,1859,1861
1872,1881,1812
1873,1863,1801
1867,1868,1857
1837,1825,1821
1838,1759,1790
1855,1823,1825
1887,1869,1845
1876,1846,1830
1846,1853,1794
1856,1850,1831
1883,1854,1894
1863,1793,1855
1824,1851,1802
1835,1856,1817
1856,1947,1873
1858,1988,1869
1848,1811,1805
1834,1712,1818
1858,1759,1873
1842,1853,1847
1831,1856,1822
1863,1904,1867
1875,1873,1859
1840,1838,1824
1834,1789,1817
1831,1831,1834
1857,1898,1877
1833,1936,1872
1811,1858,1808
1855,1869,1840
1851,1758,1877
1840,1712,1872
1827,1807,1823
1836,1886,1838
1867,1913,1885
1833,1827,1833
1857,1870,1830
1850,1887,1839
1818,1865,1893
1799,1840,1872
1792,1823,1805
1830,1907,1831
1847,1906,1861
1825,1812,1837
1806,1742,1827
1813,1768,1829
1842,1839,1811
1795,1830,1824
1781,1821,1809
1812,1884,1850
1831,1891,1867
1794,1843,1797
1792,1781,1777
1787,1811,1823
1813,1829,1814
1795,1813,1818
1795,1831,1826
1817,1839,1805
1805,1867,1845
1780,1815,1817
1779,1799,1808
1798,1811,1806
1840,1847,1840
1821,1885,1855
1777,1901,1776
1808,1856,1822
1846,1776,1872
1795,1745,1831
1772,1774,1785
1826,1873,1829
1841,1936,1857
1829,1847,1829
1791,1905,1807
1807,1779,1799
1807,1753,1829
1779,1728,1827
1786,1765,1799
1819,1967,1840
1835,1831,1851
1810,1779,1792
1792,1805,1776
1817,1847,1845
1850,1871,1873
1828,1805,1839
1826,1852,1813
1810,1871,1817
1842,1863,1857
1837,1873,1833
1801,1809,1794
1825,1846,1840
1856,1932,1887
1840,1863,1847
1799,1755,1781
1828,1753,1795
1855,1862,1872
1869,1939,1838
1815,1818,1786
1829,1799,1845
1840,1882,1911
1840,1887,1870
1815,1842,1813
1827,1866,1838
1869,1979,1884
1845,1859,1858
1801,1706,1774
1814,1771,1815
1857,1829,1897
1837,1909,1856
1835,1873,1814
1830,1831,1808
1837,1872,1853
1842,1909,1849
1815,1810,1807
1826,1808,1837
1868,1937,1858
1841,1919,1834
1842,1837,1797
1827,1776,1869
1798,1779,1879
1793,1861,1817
1789,1818,1775
1815,1799,1801
1862,1844,1875
1822,1876,1853
1794,1864,1798
1808,1856,1822
1840,1885,1840
1831,1874,1836
1799,1795,1795
1819,1891,1826
1844,1834,1853
1837,1783,1827
1821,1799,1776
1814,1891,1804
1858,1961,1837
1830,1866,1850
1805,1746,1833
1823,1794,1810
1855,1834,1857
1823,1858,1859
1803,1847,1810
1835,1856,1829
1865,1886,1875
1844,1871,1850
1819,1824,1805
1826,1838,1811
1871,1857,1871
1840,1830,1854
1808,1762,1799
1839,1880,1811
1871,1911,1852
1866,1878,1847
1828,1822,1818
1853,1803,1809
1863,1898,1861
1846,1872,1864
1836,1859,1840
1878,1874,1863
1890,1937,1881
1856,1865,1850
1847,1875,1841
1863,1871,1847
1878,1808,1861
1857,1830,1840
1839,1802,1810
1862,1855,1859
1901,1933,1894
1885,1923,1872
1850,1898,1838
1862,1830,1846
1881,1814,1872
1898,1874,1872
1856,1856,1841
1874,1878,1846
1873,1854,1902
1859,1922,1879
1840,1840,1835
1867,1881,1851
1873,1906,1908
1855,1854,1872
1834,1874,1816
1849,1791,1839
1885,1951,1902
1859,1802,1874
1842,1768,1814
1838,1853,1810
1854,1878,1847
1839,1842,1857
1846,1809,1841
1855,1798,1851
1900,1871,1861
1840,1827,1830
1840,1825,1811
1842,1862,1839
1878,1904,1906
1851,2000,1883
1782,1661,1797
1830,1772,1801
1879,1807,1870
1834,1898,1865
1778,1801,1794
1826,1773,1826
1841,1833,1835
1840,1852,1827
1824,1869,1824
1839,1799,1836
1865,1808,1859
1847,1729,1805
1829,1856,1803
1829,1846,1803
1870,1843,1834
1840,1883,1828
1839,1791,1825
1867,1856,1863
1872,1897,1888
1848,1872,1837
1840,1749,1803
1845,1861,1815
1875,1811,1863
1858,1826,1857
1837,1717,1815
1858,1808,1858
1872,1871,1886
1852,1920,1861
1836,1744,1815
1853,1791,1835
1902,1921,1890
1871,1829,1856
1837,1743,1796
1850,1797,1831
1872,1874,1882
1872,1868,1869
1840,1777,1829
1871,1833,1863
1904,1826,1869
1862,1785,1824
1809,1830,1799
1859,1905,1862
1925,1907,1893
1869,1886,1874
1825,1739,1825
1849,1763,1836
1876,1823,1872
1874,1831,1872
1849,1870,1830
1867,1920,1872
1900,1875,1907
1884,1835,1870
1860,1907,1834
1872,1869,1855
1885,1802,1847
1867,1872,1850
1835,1817,1808
1870,1902,1866
1906,1867,1904
1872,1845,1871
1846,1887,1792
1873,1824,1863
1887,1933,1915
1853,1815,1857
1840,1873,1819
1821,1872,1815
1865,1973,1858
1850,1874,1842
1840,1878,1809
1854,1837,1822
1862,1943,1873
1842,1873,1846
1824,1805,1811
1858,1837,1836
1882,1809,1851
1841,1747,1813
1817,1829,1786
1870,1936,1851
1872,1849,1859
1859,1781,1815
1818,1881,1791
1857,1824,1838
1919,1902,1873
1850,1901,1823
1811,1894,1781
1851,1873,1811
1870,1829,1857
1854,1871,1843
1840,1791,1779
1857,1741,1791
1878,1808,1837
1853,1830,1841
1852,1857,1825
1908,1850,1835
1904,1924,1855
1856,1861,1834
1847,1845,1813
1877,1827,1835
1906,1824,1856
1873,1750,1815
1827,1783,1776
1850,1890,1823
1904,1817,1877
1877,1872,1857
1867,1886,1808
1852,1840,1815
1890,1859,1858
1877,1861,1856
1855,1837,1808
1882,1949,1838
1885,1890,1877
1869,1831,1841
1826,1771,1789
1872,1841,1834
1906,1936,1883
1871,1870,1866
1860,1825,1808
1881,1831,1829
1904,1909,1872
1887,1920,1850
1835,1799,1803
1850,1856,1824
1905,1965,1891
1875,1900,1834
1840,1777,1795
1889,1901,1840
1893,1892,1890
1837,1788,1840
1837,1824,1808
1845,1872,1831
1878,1871,1856
1872,1868,1851
1840,1870,1798
1854,1863,1804
1872,1902,1856
1850,1831,1847
1825,1799,1779
1853,1806,1828
1878,1861,1861
1857,1837,1808
1853,1831,1776
1835,1852,1855
1855,1828,1882
1843,1808,1824
1824,1787,1766
1850,1825,1807
1887,1943,1872
1852,1865,1835
1817,1834,1757
1866,1858,1817
1904,1867,1873
1857,1907,1839
1827,1751,1783
1849,1792,1808
1894,1899,1849
1855,1746,1799
1837,1840,1791
1869,1843,1809
1888,1853,1877
1872,1849,1842
1858,1803,1807
1897,1890,1824
1881,1901,1872
1845,1869,1830
1825,1849,1799
1863,1858,1856
1898,1887,1878
1860,1799,1837
1846,1838,1808
1870,1885,1847
1911,1903,1872
1885,1911,1844
1834,1823,1803
1852,1743,1818
1901,1907,1872
1876,1909,1846
1840,1933,1834
1857,1872,1865
1903,1851,1904
1892,1829,1865
1851,1857,1825
1859,1856,1841
1895,1877,1874
1871,1904,1843
1855,1935,1833
1871,1775,1840
1897,1830,1872
1890,1913,1871
1844,1907,1824
1867,1935,1865
1884,1903,1889
1883,1903,1856
1846,1790,1808
1865,1797,1831
1898,1874,1906
1869,1927,1842
1823,1851,1777
1850,1814,1842
1872,1872,1883
1867,1887,1839
1843,1825,1829
1861,1985,1840
1871,1922,1843
1825,1743,1814
1820,1788,1801
1888,1881,1861
1898,1910,1904
1818,1814,1817
1807,1813,1763
1840,1808,1813
1865,1875,1856
1849,1836,1852
1845,1859,1806
1870,1929,1841
1866,1887,1872
1823,1777,1804
1822,1779,1798
1860,1884,1840
1898,2013,1901
1834,1811,1843
1813,1730,1783
1849,1854,1808
1875,1862,1840
1863,1865,1830
1858,1836,1808
1851,1899,1829
1875,1949,1863
1874,1873,1808
1830,1741,1788
1825,1797,1823
1856,1904,1868
1857,1875,1870
1858,1897,1839
1872,1869,1811
1878,1872,1841
1844,1823,1823
1841,1825,1810
1858,1867,1840
1888,1927,1877
1857,1847,1839
1846,1836,1806
1863,1804,1836
1879,1872,1874
1869,1866,1862
1855,1870,1829
1875,1857,1851
1885,1881,1857
1856,1869,1845
1842,1877,1827
1872,1871,1856
1883,1835,1872
1879,1894,1846
1859,1872,1841
1866,1811,1870
1887,1878,1883
1885,1886,1863
1826,1825,1827
1861,1882,1840
1897,1866,1875
1872,1943,1872
1843,1843,1810
1871,1820,1826
1890,1804,1866
1857,1883,1834
1851,1875,1818
1857,1894,1875
1872,1856,1872
1873,1843,1854
1824,1776,1812
1843,1837,1854
1877,1890,1851
1838,1857,1851
1824,1831,1793
1879,1933,1838
1904,1947,1872
1877,1746,1797
1825,1783,1793
1847,1878,1810
1883,1903,1853
1883,1883,1859
1872,1813,1808
1859,1799,1755
1877,1823,1824
1863,1857,1843
1854,1851,1825
1878,1817,1825
1892,1966,1872
1855,1943,1840
1841,1841,1849
1887,1782,1842
1891,1799,1872
1856,1899,1785
1840,1840,1807
1882,1794,1829
1887,1845,1842
1854,1869,1826
1843,1818,1788
1877,1882,1843
1901,1916,1863
1850,1813,1808
1819,1825,1776
1850,1830,1866
1902,1887,1898
1854,1935,1858
1843,1899,1796
1872,1771,1802
1903,1853,1909
1861,1919,1865
1834,1823,1808
1841,1808,1867
1879,1904,1905
1861,1843,1862
1856,1794,1825
1872,1861,1874
1878,1883,1847
1863,1882,1827
1863,1863,1863
1886,1854,1879
1897,1853,1894
1872,1936,1827
1844,1858,1813
1874,1889,1856
1931,1938,1935
1872,1765,1850
1840,1797,1840
1885,1867,1840
1889,1853,1858
1888,1847,1864
1882,1859,1856
1893,1919,1862
1887,1867,1888
1878,1919,1841
1879,1877,1787
1922,1869,1920
1931,1924,1902
1894,1817,1881
1873,1794,1788
1910,1793,1878
1937,1910,1867
1898,1816,1835
1882,1808,1777
1910,1817,1831
1947,1926,1919
1919,1879,1872
1878,1829,1826
1918,1885,1826
1969,2023,1953
1868,1850,1860
1840,1738,1779
1892,1780,1808
1927,1847,1856
1889,1803,1808
1862,1777,1802
1887,1865,1826
1914,1883,1840
1883,1830,1808
1840,1895,1774
1861,1840,1776
1893,1821,1860
1883,1804,1857
1872,1915,1868
1878,1822,1792
1890,1745,1838
1849,1758,1799
1842,1793,1795
1873,1849,1824
1903,1851,1840
1881,1868,1872
1858,1871,1766
1904,1907,1833
1902,1966,1873
1876,1959,1855
1872,1904,1846
1891,1789,1862
1909,1808,1873
1881,1802,1783
1861,1754,1850
1885,1856,1861
1911,1952,1871
1904,2015,1859
1872,1808,1847
1915,1807,1824
1941,1851,1892
1891,1852,1872
1878,1847,1826
1918,1938,1856
1936,1936,1894
1904,1873,1822
1897,1793,1841
1898,1882,1858
1926,1961,1911
1879,1900,1827
1878,1840,1776
1920,1809,1858
1942,1886,1934
1904,1838,1851
1887,1808,1792
1920,1861,1849
1965,1908,1917
1949,1941,1871
1904,1849,1808
1916,1833,1821
1955,1849,1879
1936,1926,1871
1927,1826,1839
1943,1783,1793
1946,1825,1818
1904,1872,1831
1895,1886,1808
1943,1822,1870
1939,1898,1936
1915,1887,1809
1877,1799,1776
1930,1808,1787
1959,1958,1856
1911,1891,1872
1855,1795,1787
1869,1759,1791
1904,1775,1840
1891,1777,1834
1899,1807,1774
1918,1843,1808
1894,1855,1848
1856,1867,1840
1848,1840,1831
1899,1886,1851
1914,1905,1863
1883,1907,1833
1861,1905,1823
1884,1824,1809
1903,1788,1857
1867,1773,1829
1856,1795,1813
1901,1847,1840
1922,1870,1905
1902,1872,1899
1867,1898,1840
1894,1920,1871
1934,2029,1915
1903,1872,1869
1883,1781,1847
1905,1855,1887
1917,1905,1898
1874,1806,1840
1868,1810,1808
1918,1858,1877
1936,1914,1925
1905,1936,1914
1872,1907,1870
1897,1856,1873
1919,1904,1925
1925,1950,1886
1859,1855,1853
1890,1885,1898
1895,1869,1894
1921,1885,1870
1898,1862,1853
1923,1854,1887
1936,1882,1917
1911,1866,1869
1866,1869,1835
1855,1931,1859
1893,1872,1883
1875,1855,1879
1821,1809,1872
1949,1829,1903
1951,1933,1914
1872,2002,1831
1870,1888,1826
1877,1847,1872
1869,1875,1872
1843,1734,1837
1855,1799,1831
1886,1891,1859
1904,1887,1892
1865,1867,1856
1807,1835,1822
1906,1840,1850
1962,1894,1889
1866,1801,1859
1866,1793,1837
1855,1872,1845
1886,1950,1897
1859,1861,1829
1854,1818,1798
1890,1830,1837
1932,1822,1845
1850,1887,1832
1861,1867,1839
1883,1834,1859
1895,1824,1872
1919,1842,1827
1886,1874,1823
1866,1852,1857
1843,1861,1879
1840,1869,1856
1878,1886,1814
1808,1850,1827
1872,1840,1880
1849,1813,1847
1840,1863,1839
1860,1833,1857
1867,1857,1888
1867,1869,1869
1830,1841,1839
1892,1879,1877
1873,1951,1900
1830,1817,1836
1827,1791,1801
1905,1872,1866
1926,1885,1883
1889,1865,1847
1877,1787,1833
1876,1864,1875
1919,1911,1911
1878,1855,1869
1818,1792,1823
1819,1900,1873
1894,1933,1920
1829,1814,1858
1853,1841,1811
1840,1890,1823
1846,1813,1889
1856,1808,1876
1878,1885,1842
1887,1904,1869
1886,1859,1856
1787,1755,1827
1827,1831,1808
1872,1909,1871
1819,1901,1881
1808,1808,1836
1857,1803,1828
1851,1794,1831
1806,1904,1855
1840,1893,1811
1791,1821,1817
1802,1774,1847
1825,1869,1874
1763,1859,1816
1803,1840,1809
1872,1798,1847
1843,1893,1850
1803,1817,1809
1808,1791,1787
1807,1903,1818
1841,1873,1872
1808,1758,1811
1804,1796,1801
1834,1808,1838
1856,1910,1856
1810,1916,1793
1813,1795,1782
1830,1793,1811
1853,1823,1862
1834,1830,1808
1818,1875,1786
1798,1823,1803
1835,1810,1840
1837,1835,1813
1814,1803,1831
1846,1827,1851
1840,1888,1853
1826,1840,1807
1712,1826,1799
1815,1845,1841
1879,1871,1883
1801,1857,1822
1820,1782,1772
1872,1882,1831
1913,1877,1885
1903,1828,1841
1831,1808,1783
1833,1839,1829
1872,1904,1890
1833,1846,1850
1808,1808,1793
1855,1872,1826
1837,1901,1888
1845,1836,1856
1750,1825,1829
1830,1823,1853
1870,1935,1879
1858,1856,1813
1784,1797,1763
1878,1853,1847
1858,1899,1903
1847,1842,1834
1805,1839,1763
1825,1851,1859
1918,1959,1911
1843,1966,1851
1834,1815,1776
1833,1807,1803
1847,1804,1872
1814,1771,1831
1826,1776,1808
1855,1847,1840
1927,1868,1863
1791,1854,1809
1760,1822,1783
1806,1874,1845
1872,1911,1882
1810,1850,1823
1702,1824,1799
1808,1895,1823
1824,1842,1850
1797,1834,1807
1780,1805,1793
1789,1825,1840
1819,1844,1865
1802,1782,1813
1793,1830,1776
1833,1855,1829
1834,1853,1879
1791,1861,1823
1767,1809,1779
1811,1821,1819
1835,1856,1845
1805,1860,1823
1798,1846,1803
1840,1786,1827
1823,1809,1833
1797,1799,1791
1776,1782,1792
1810,1832,1822
1819,1840,1840
1813,1841,1835
1807,1854,1802
1835,1878,1808
1840,1895,1855
1801,1811,1829
1803,1776,1802
1815,1856,1810
1856,1856,1871
1834,1822,1819
1792,1780,1774
1818,1843,1797
1844,1919,1840
1808,1818,1815
1786,1777,1787
1839,1872,1831
1860,1846,1878
1856,1781,1831
1808,1877,1791
1819,1883,1838
1831,1871,1851
1822,1766,1819
1808,1820,1785
1837,1875,1855
1863,1860,1880
1826,1859,1827
1818,1861,1794
1839,1868,1818
1859,1867,1871
1839,1839,1839
1821,1776,1810
1851,1856,1841
1858,1968,1879
1836,1913,1852
1825,1776,1805
1866,1843,1854
1874,1849,1888
1840,1869,1851
1811,1804,1793
1834,1838,1847
1856,1879,1872
1843,1855,1841
1819,1878,1814
1850,1865,1873
1855,1831,1877
1819,1868,1807
1807,1845,1801
1840,1835,1850
1870,1894,1861
1838,1821,1807
1799,1814,1803
1825,1856,1855
1855,1882,1885
1855,1872,1837
1818,1814,1789
1824,1856,1855
1841,1824,1869
1826,1840,1808
1807,1839,1812
1824,1884,1863
1873,1920,1887
1853,1841,1839
1803,1744,1769
1824,1781,1808
1847,1866,1859
1808,1836,1813
1818,1885,1787
1844,1908,1841
1856,1749,1857
1829,1799,1804
1815,1856,1785
1840,1871,1811
1871,1918,1878
1827,1903,1823
1815,1735,1763
1833,1757,1806
1855,1810,1861
1840,1856,1833
1837,1895,1788
1846,1856,1835
1851,1871,1840
1818,1733,1792
1802,1808,1767
1848,1873,1833
1919,1863,1885
1862,1927,1842
1808,1904,1808
1831,1767,1810
1864,1786,1839
1850,1814,1824
1823,1839,1800
1829,1872,1840
1861,1904,1865
1847,1872,1839
1833,1857,1808
1853,1888,1869
1869,1826,1879
1819,1749,1814
1815,1799,1814
1873,1969,1859
1879,1905,1878
1833,1791,1823
1822,1776,1801
1862,1839,1843
1883,1889,1874
1853,1926,1860
1840,1919,1831
1870,1821,1822
1862,1808,1849
1824,1759,1813
1829,1808,1813
1872,1893,1879
1866,1874,1872
1840,1814,1824
1815,1807,1783
1853,1867,1831
1877,1899,1874
1841,1827,1840
1829,1907,1808
1842,1790,1813
1835,1793,1867
1813,1823,1831
1810,1802,1808
1867,1893,1867
1869,1951,1869
1809,1807,1777
1808,1776,1793
1856,1840,1871
1857,1858,1872
1822,1813,1819
1823,1861,1793
1854,1843,1808
1855,1782,1852
1835,1791,1799
1818,1840,1813
1839,1885,1841
1843,1867,1847
1810,1846,1805
1815,1840,1781
1854,1872,1837
1850,1799,1858
1809,1824,1809
1806,1884,1786
1835,1843,1826
1855,1783,1853
1822,1744,1799
1840,1877,1780
1853,1831,1831
1840,1873,1850
1808,1847,1815
1813,1811,1804
1872,1877,1856
1877,1845,1872
1837,1811,1788
1807,1825,1791
1847,1827,1868
1856,1807,1855
1840,1805,1809
1839,1871,1815
1855,1931,1836
1866,1868,1849
1839,1735,1792
1830,1773,1796
1861,1870,1843
1870,1939,1866
1844,1918,1813
1838,1867,1801
1872,1878,1858
1870,1897,1867
1816,1785,1827
1825,1754,1808
1873,1890,1867
1877,1889,1871
1849,1777,1813
1834,1830,1808
1882,1883,1869
1898,1840,1873
1843,1777,1826
1815,1861,1798
1867,1889,1822
1904,1823,1877
1856,1798,1847
1842,1844,1835
1866,1853,1845
1877,1904,1851
1858,1901,1850
1844,1890,1811
1874,1809,1824
1890,1834,1851
1840,1849,1810
1825,1865,1833
1891,1949,1856
1872,1764,1867
1838,1751,1839
1825,1857,1808
1853,1883,1845
1859,1956,1857
1851,1838,1808
1835,1837,1789
1851,1857,1847
1887,1966,1904
1855,1948,1859
1837,1842,1808
1856,1857,1840
1853,1775,1822
1822,1744,1795
1831,1798,1807
1856,1851,1840
1878,1818,1863
1843,1867,1840
1840,1827,1821
1862,1786,1835
1862,1958,1840
1812,1870,1808
1819,1904,1809
1857,1902,1847
1873,1859,1890
1829,1808,1799
1810,1767,1771
1845,1808,1849
1865,1818,1877
1847,1793,1817
1847,1883,1808
1872,1872,1856
1873,1803,1856
1849,1840,1806
1841,1834,1815
1898,1951,1847
1893,1967,1874
1846,1879,1826
1863,1778,1806
1868,1817,1851
1846,1871,1840
1841,1815,1827
1840,1835,1823
1876,1870,1862
1897,1885,1862
1856,1877,1838
1826,1831,1821
1872,1804,1861
1902,1918,1894
1879,1936,1840
1852,1776,1811
1870,1877,1845
1906,1900,1882
1886,1982,1856
1851,1903,1808
1897,1845,1870
1900,1877,1889
1863,1947,1840
1866,1828,1850
1882,1805,1867
1886,1899,1874
1884,1941,1870
1882,2010,1865
1885,1745,1856
1872,1763,1879
1849,1831,1840
1855,1841,1829
1883,1912,1872
1903,1911,1882
1868,1915,1831
1856,1802,1812
1887,1803,1860
1909,1898,1872
1862,1856,1827
1854,2025,1829
1866,1872,1866
1889,1798,1889
1860,1777,1822
1843,1801,1814
1874,1879,1874
1904,1879,1874
1846,1871,1823
1847,1859,1819
1863,1835,1851
1873,1812,1872
1856,1838,1830
1854,1861,1827
1884,1936,1872
1891,1867,1861
1839,1728,1773
1834,1802,1803
1881,1931,1857
1893,1937,1856
1819,1851,1833
1837,1749,1840
1881,1931,1868
1872,1963,1849
1837,1888,1822
1849,1883,1808
1866,1894,1834
1891,1935,1875
1861,1823,1812
1855,1777,1811
1872,1821,1845
1869,1837,1855
1871,1826,1840
1850,1781,1808
1881,1808,1851
1892,1841,1888
1867,1897,1808
1859,1979,1831
1882,1905,1873
1904,1862,1887
1871,1776,1829
1856,1835,1823
1891,1849,1865
1885,1854,1861
1856,1866,1825
1856,1937,1826
1903,1841,1871
1904,1772,1861
1873,1782,1809
1856,1901,1803
1879,1910,1891
1911,1930,1892
1887,1910,1845
1852,1867,1808
1872,1821,1847
1895,1889,1891
1882,1873,1851
1845,1767,1831
1886,1910,1872
1911,1862,1870
1847,1841,1834
1855,1858,1843
1900,1888,1874
1910,1974,1893
1879,1899,1853
1870,1895,1860
1895,1893,1895
1894,1866,1882
1857,1776,1833
1858,1808,1840
1920,1919,1883
1901,1872,1905
1872,1833,1821
1872,1807,1840
1897,1840,1889
1887,1947,1879
1862,1904,1843
1870,1837,1833
1914,1867,1881
1905,2071,1923
1856,1855,1841
1856,1699,1820
1893,1776,1872
1902,1919,1901
1861,1902,1840
1860,1829,1818
1898,1857,1866
1904,1957,1917
1847,1871,1840
1834,1780,1806
1872,1793,1854
1879,1866,1895
1857,1901,1839
1846,1851,1827
1875,1861,1862
1886,1907,1872
1855,1824,1840
1854,1872,1847
1876,1824,1861
1871,1838,1886
1859,1881,1845
1881,1904,1834
1879,1955,1858
1872,1794,1854
1867,1793,1819
1865,1872,1815
1879,1878,1846
1887,1840,1871
1853,1792,1829
1862,1903,1840
1902,1843,1865
1871,1792,1850
1856,1857,1814
1866,1951,1841
1892,1936,1842
1919,1760,1852
1872,1821,1861
1826,1862,1850
1886,1879,1889
1893,1955,1899
1872,1830,1847
1855,1855,1841
1872,1853,1872
1883,1821,1890
1844,1809,1809
1849,1824,1782
1899,1879,1881
1904,1905,1909
1870,1893,1841
1861,1831,1813
1894,1889,1872
1911,1907,1887
1884,1898,1841
1867,1900,1842
1879,1866,1875
1881,1861,1869
1871,1840,1837
1862,1841,1841
1906,1930,1850
1905,1868,1882
1845,1835,1855
1838,1866,1831
1882,1899,1866
1910,1953,1905
1902,1887,1847
1867,1854,1851
1873,1814,1856
1878,1779,1854
1863,1835,1828
1867,1873,1819
1905,1895,1853
1915,1918,1898
1870,1875,1830
1857,1866,1817
1902,1872,1869
1936,1891,1871
1889,1856,1808
1861,1872,1806
1889,1902,1872
1904,1941,1905
1879,1936,1873
1887,1858,1846
1910,1872,1872
1903,1790,1859
1872,1818,1804
1875,1870,1802
1930,1903,1870
1943,1858,1892
1904,1826,1839
1909,1830,1803
1906,1904,1840
1897,1895,1866
1893,1922,1839
1904,1905,1814
1937,1852,1872
1923,1783,1863
1893,1779,1842
1885,1823,1819
1918,1920,1840
1920,1856,1923
1903,1840,1833
1903,1803,1839
1925,1870,1892
1915,1974,1862
1877,1855,1855
1873,1763,1837
1914,1896,1869
1914,1877,1877
1887,1825,1795
1881,1872,1808
1928,1858,1835
1924,1851,1829
1883,1857,1841
1890,1879,1834
1911,1906,1865
1935,1904,1841
1911,1887,1818
1869,1791,1802
1904,1764,1839
1920,1831,1895
1886,1840,1831
1887,1821,1831
1906,1872,1853
1949,1960,1873
1893,1843,1834
1863,1798,1814
1898,1898,1825
1931,1935,1919
1904,1899,1850
1917,1946,1856
1927,1885,1887
1922,1861,1879
1887,1823,1815
1907,1722,1845
1930,1907,1891
1917,1955,1887
1914,1902,1861
1886,1915,1837
1918,1904,1875
1936,1888,1927
1889,1820,1879
1885,1766,1840
1915,1870,1849
1955,1937,1909
1887,1915,1869
1861,1822,1851
1907,1869,1887
1936,1888,1895
1915,1872,1865
1914,1925,1836
1936,2003,1885
1910,1895,1891
1872,1737,1845
1893,1833,1819
1950,1941,1882
1951,1867,1924
1875,1808,1808
1887,1882,1827
1938,1877,1910
1933,1872,1853
1882,1839,1870
