1747,2070,1861
1713,2041,1814
1712,2074,1829
1763,2124,1890
1738,2109,1845
1696,2033,1807
1706,2038,1834
1750,2107,1869
1735,2126,1855
1708,2058,1806
1727,2027,1833
1773,2087,1886
1743,2091,1867
1699,2064,1795
1728,2070,1810
1766,2096,1918
1739,2088,1866
1685,2057,1801
1713,2090,1839
1765,2113,1882
1747,2071,1842
1697,2007,1814
1706,2023,1847
1755,2083,1872
1746,2085,1850
1703,2033,1793
1708,2015,1790
1748,2080,1874
1733,2069,1872
1709,2005,1801
1728,2003,1839
1758,2043,1807
1759,2000,1840
1729,1985,1849
1771,2003,1830
1787,2030,1830
1753,1995,1849
1685,1951,1839
1681,1969,1859
1740,2005,1889
1742,1984,1856
1758,1918,1791
1703,1947,1809
1726,1984,1871
1739,1910,1877
1707,1888,1822
1717,1908,1830
1746,1918,1846
1742,1891,1856
1699,1836,1817
1721,1869,1840
1776,1904,1875
1735,1846,1840
1680,1850,1819
1712,1854,1806
1761,1840,1834
1741,1814,1840
1710,1814,1842
1744,1853,1870
1767,1803,1821
1742,1779,1825
1697,1776,1806
1687,1791,1808
1724,1805,1895
1728,1793,1861
1722,1780,1829
1716,1723,1801
1767,1737,1862
1763,1721,1874
1685,1712,1815
1690,1743,1783
1744,1762,1837
1723,1725,1850
1687,1695,1823
1709,1711,1818
1757,1773,1842
1747,1743,1840
1687,1641,1783
1711,1660,1826
1772,1689,1873
1745,1691,1826
1698,1680,1808
1735,1715,1844
1773,1702,1872
1744,1655,1838
1728,1622,1783
1728,1635,1821
1744,1680,1856
1774,1682,1827
1789,1650,1772
1685,1650,1840
1690,1683,1889
1707,1695,1853
1709,1695,1814
1721,1670,1818
1755,1659,1840
1759,1650,1854
1727,1650,1799
1730,1662,1809
1788,1680,1904
1774,1674,1872
1735,1646,1791
1728,1648,1787
1763,1671,1850
1774,1666,1832
1744,1648,1780
1763,1653,1840
1783,1696,1897
1747,1664,1842
1714,1635,1760
1729,1661,1808
1792,1691,1871
1785,1680,1847
1745,1653,1808
1759,1669,1824
1807,1703,1867
1773,1687,1817
1738,1648,1822
1781,1663,1804
1793,1713,1878
1776,1693,1865
1751,1669,1815
1750,1680,1825
1785,1724,1892
1761,1703,1846
1726,1668,1799
1782,1680,1826
1795,1718,1884
1780,1706,1855
1771,1687,1815
1795,1699,1841
1807,1748,1889
1777,1714,1851
1750,1680,1807
1767,1710,1837
1798,1744,1891
1785,1737,1876
1751,1714,1819
1775,1733,1842
1808,1755,1887
1792,1729,1862
1781,1698,1824
1791,1714,1827
1828,1771,1921
1799,1763,1872
1758,1731,1836
1776,1740,1856
1829,1759,1897
1810,1751,1792
1772,1730,1825
1809,1747,1833
1844,1774,1945
1823,1760,1868
1786,1747,1835
1795,1753,1823
1841,1776,1931
1825,1776,1890
1785,1747,1836
1797,1755,1847
1840,1787,1894
1819,1799,1827
1777,1767,1809
1818,1763,1862
1901,1810,1946
1898,1815,1846
1779,1764,1836
1774,1764,1893
1839,1822,1914
1807,1829,1844
1778,1806,1853
1808,1805,1907
1862,1854,1943
1827,1841,1867
1776,1824,1811
1780,1859,1808
1856,1890,1903
1859,1877,1886
1829,1861,1893
1853,1883,1872
1878,1916,1922
1845,1915,1947
1808,1899,1826
1834,1940,1876
1860,1984,1885
1813,1958,1828
1794,1965,1815
1835,1986,1842
1855,2033,1909
1832,2011,1906
1813,2007,1840
1835,2052,1893
1871,2099,1850
1830,2087,1866
1776,2076,1818
1824,2126,1830
1890,2154,1882
1870,2143,1907
1808,2151,1830
1819,2194,1844
1842,2245,1890
1822,2234,1793
1810,2253,1841
1847,2324,1879
1887,2383,1856
1850,2393,1842
1803,2407,1792
1810,2474,1833
1872,2544,1873
1867,2544,1829
1825,2533,1808
1823,2538,1803
1851,2580,1879
1861,2591,1819
1835,2559,1783
1840,2625,1849
1853,2668,1856
1817,2647,1800
1796,2625,1776
1839,2639,1801
1893,2672,1826
1871,2671,1823
1827,2651,1763
1830,2704,1841
1863,2751,1850
1840,2736,1808
1807,2705,1753
1835,2735,1834
1866,2785,1829
1841,2751,1774
1819,2690,1794
1823,2707,1776
1846,2775,1837
1841,2786,1787
1815,2749,1795
1856,2763,1894
1891,2797,1885
1865,2793,1814
1826,2755,1743
1840,2805,1785
1872,2835,1856
1849,2803,1841
1809,2773,1781
1835,2799,1794
1889,2832,1858
1883,2829,1839
1838,2781,1778
1863,2791,1811
1897,2809,1840
1862,2779,1766
1837,2743,1776
1857,2759,1765
1909,2783,1941
1898,2754,1909
1856,2711,1808
1865,2711,1797
1897,2736,1853
1875,2707,1791
1830,2691,1791
1872,2688,1807
1911,2710,1859
1881,2690,1853
1873,2630,1795
1893,2622,1856
1937,2659,1857
1904,2640,1859
1863,2586,1804
1887,2619,1827
1919,2639,1831
1885,2608,1829
1867,2559,1804
1906,2559,1891
1943,2589,1902
1902,2559,1829
1850,2540,1779
1907,2540,1856
1968,2583,1875
1913,2521,1863
1877,2478,1865
1907,2512,1867
1917,2509,1862
1893,2491,1847
1900,2459,1834
1963,2469,1895
1982,2477,1924
1904,2437,1847
1871,2397,1861
1906,2433,1873
1941,2448,1879
1913,2403,1904
1885,2379,1840
1920,2378,1901
1953,2342,1860
1915,2320,1825
1881,2290,1817
1936,2307,1882
1971,2330,1973
1935,2314,1809
1878,2258,1810
1889,2241,1793
1954,2274,1904
1983,2273,1922
1932,2225,1840
1936,2219,1904
1951,2240,1911
1936,2191,1898
1905,2160,1870
1934,2192,1889
1955,2206,1936
1923,2173,1887
1874,2128,1831
1899,2129,1834
1947,2177,1889
1947,2146,1895
1931,2127,1817
1934,2116,1837
1922,2123,1911
1883,2101,1915
1878,2047,1883
1936,2080,1913
1971,2093,1957
1934,2057,1869
1877,1997,1851
1903,2025,1915
1920,2064,1891
1897,2053,1879
1894,2014,1863
1922,2003,1890
1950,1991,1936
1915,1997,1893
1886,1955,1842
1905,1988,1879
1923,2041,1854
1946,2000,1858
1955,1938,1863
1921,1955,1870
1907,1982,1904
1915,1965,1856
1873,1905,1843
1894,1925,1874
1879,2001,1861
1921,1962,1903
1931,1854,1876
1906,1872,1869
1922,1917,1891
1874,1894,1843
1825,1846,1813
1887,1866,1890
1939,1918,1875
1899,1881,1811
1904,1835,1833
1934,1872,1882
1946,1872,1900
1878,1813,1853
1856,1824,1831
1913,1877,1799
1909,1831,1858
1890,1750,1915
1839,1741,1885
1889,1769,1882
1900,1813,1855
1895,1790,1846
1875,1756,1847
1861,1765,1844
1889,1774,1891
1870,1728,1889
1875,1745,1839
1890,1749,1819
1904,1729,1907
1882,1711,1871
1867,1679,1855
1889,1680,1847
1904,1697,1886
1860,1682,1846
1872,1648,1783
1920,1657,1817
1939,1671,1904
1872,1665,1858
1857,1658,1810
1904,1700,1840
1856,1637,1874
1851,1600,1845
1840,1600,1763
1927,1628,1809
1915,1619,1891
1914,1584,1820
1835,1566,1754
1897,1614,1872
1860,1615,1874
1872,1571,1846
1823,1535,1829
1831,1578,1850
1874,1585,1840
1882,1523,1827
1807,1520,1811
1831,1535,1835
1872,1577,1885
1890,1565,1827
1790,1519,1773
1854,1530,1824
1915,1535,1897
1837,1521,1813
1808,1488,1787
1820,1519,1830
1904,1563,1889
1798,1520,1843
1761,1495,1776
1852,1513,1810
1909,1517,1859
1899,1518,1808
1774,1493,1734
1840,1499,1792
1865,1526,1850
1838,1517,1845
1810,1488,1794
1851,1460,1824
1827,1509,1858
1845,1494,1849
1851,1470,1781
1823,1495,1805
1861,1535,1867
1909,1505,1856
1794,1461,1788
1854,1482,1804
1871,1522,1817
1830,1519,1837
1770,1474,1790
1820,1493,1795
1873,1535,1839
1834,1502,1824
1801,1491,1763
1840,1529,1840
1903,1535,1893
1855,1483,1826
1815,1465,1787
1844,1501,1817
1812,1532,1808
1807,1535,1840
1887,1475,1782
1840,1491,1824
1926,1526,1888
1843,1515,1840
1763,1498,1771
1837,1518,1774
1870,1575,1840
1808,1527,1819
1811,1495,1773
1805,1527,1835
1857,1581,1881
1862,1598,1787
1856,1505,1758
1895,1505,1829
1803,1510,1858
1878,1501,1808
1814,1503,1779
1873,1533,1809
1895,1563,1814
1783,1535,1780
1802,1523,1799
1840,1535,1843
1870,1619,1903
1835,1535,1826
1761,1498,1739
1818,1535,1794
1895,1593,1869
1866,1559,1825
1836,1535,1772
1834,1559,1799
1878,1615,1875
1840,1610,1856
1791,1507,1791
1856,1535,1789
1872,1590,1843
1879,1584,1808
1825,1555,1776
1918,1581,1831
1840,1610,1863
1850,1585,1840
1830,1584,1826
1886,1607,1827
1869,1641,1856
1840,1605,1829
1825,1565,1793
1859,1615,1801
2014,1634,1775
1897,1611,1864
1723,1605,1866
1871,1664,1895
1917,1653,1872
1856,1591,1811
1838,1579,1775
1876,1617,1853
1915,1669,1914
1875,1644,1850
1843,1617,1791
1873,1648,1841
1904,1677,1886
1872,1648,1826
1849,1633,1799
1887,1662,1840
1933,1699,1879
1895,1683,1838
1858,1654,1793
1886,1683,1829
1911,1707,1872
1883,1672,1842
1882,1679,1837
1917,1715,1866
1939,1744,1882
1899,1724,1843
1867,1665,1813
1895,1677,1853
1953,1797,1904
1911,1781,1868
1886,1639,1837
1915,1654,1858
1936,1712,1913
1927,1701,1891
1919,1713,1856
1955,1766,1872
1975,1832,1893
1925,1808,1893
1888,1718,1886
1918,1657,1904
1962,1714,1915
1955,1791,1904
1909,1701,1856
1920,1671,1879
1955,1733,1927
1921,1758,1906
1872,1728,1834
1926,1794,1900
1968,1892,1971
1946,1747,1923
1910,1679,1863
1936,1713,1899
1955,1797,1951
1929,1840,1920
1903,1776,1872
1933,1773,1913
1968,1727,1967
1936,1709,1910
1904,1699,1857
1948,1723,1927
1974,1776,1958
1929,1770,1923
1911,1776,1886
1931,1797,1920
1959,1745,1946
1925,1746,1911
1899,1777,1898
1921,1755,1919
1936,1762,1934
1914,1769,1904
1891,1745,1884
1923,1787,1931
1957,1831,1969
1922,1838,1934
1884,1703,1872
1904,1674,1882
1945,1742,1935
1917,1738,1914
1880,1707,1860
1923,1733,1911
1968,1811,1979
1937,1814,1950
1889,1712,1881
1905,1726,1904
1935,1745,1937
1911,1726,1901
1905,1727,1876
1919,1775,1907
1970,1847,1965
1923,1699,1907
1884,1642,1861
1923,1694,1907
1953,1735,1949
1915,1702,1907
1889,1690,1875
1923,1714,1903
1951,1744,1936
1935,1712,1907
1907,1691,1878
1931,1705,1904
1949,1724,1945
1933,1698,1927
1910,1680,2226
1936,1697,2105
1952,1715,1807
1921,1678,1760
1902,1659,1803
1926,1712,1838
1968,1721,1835
1943,1686,1833
1923,1645,1837
1941,1677,1821
1968,1712,1825
1948,1709,1831
1924,1681,1834
1958,1691,1826
1984,1711,1829
1962,1728,1826
1929,1655,1830
1974,1675,1828
1999,1705,1829
1964,1691,1827
1936,1667,1830
1971,1694,1830
2000,1725,1829
1965,1697,1833
1942,1680,1827
1969,1713,1827
2001,1728,1829
1978,1712,1829
1947,1671,1825
1973,1694,1828
2013,1747,1826
1994,1744,1829
1979,1714,1827
2000,1785,1835
2032,1698,1845
2101,1623,1769
1995,1631,1679
1897,1637,1815
1971,1681,1901
2007,1837,1850
1920,1718,1808
1930,1561,1867
1987,1648,1884
2014,1648,1787
1951,1705,1759
1897,1647,1781
1937,1535,1934
1965,1663,1923
1923,1734,1783
1930,1595,1738
1977,1607,1918
1947,1638,1884
1907,1600,1770
1927,1579,1723
1951,1676,1794
1936,1629,1805
1915,1571,1794
1925,1597,1799
1967,1615,1835
1930,1598,1825
1902,1665,1804
1920,1695,1828
1955,1710,1872
1927,1485,1819
1897,1559,1787
1909,1489,1825
1962,1693,1895
1942,1655,1833
1887,1584,1761
1872,1524,1792
1904,1647,1887
1894,1648,1861
1901,1630,1832
1919,1627,1840
1940,1657,1882
1905,1648,1874
1861,1487,1789
1891,1407,1828
1938,1584,1861
1953,1630,1840
1857,1531,1819
1856,1484,1831
1914,1581,1901
1907,1578,1872
1881,1520,1824
1919,1486,1869
1946,1596,1903
1914,1622,1866
1893,1534,1828
1934,1533,1874
1994,1520,1933
1944,1553,1809
1851,1396,1750
1864,1445,1872
1926,1514,1942
1936,1493,1859
1887,1522,1811
1883,1458,1879
1930,1485,1917
1902,1487,1854
1883,1405,1840
1915,1575,1877
1906,1520,1872
1872,1360,1821
1863,1305,1820
1895,1481,1870
1966,1554,1953
1917,1424,1859
1862,1328,1785
1907,1367,1839
1970,1442,1865
1917,1535,1893
1874,1438,1904
1882,1362,1906
1909,1375,1884
1903,1424,1853
1890,1315,1831
1919,1310,1865
1938,1343,1904
1906,1335,1858
1899,1387,1831
1925,1373,1842
1977,1421,1856
1936,1344,1791
1875,1328,1817
1927,1187,1846
1925,1290,1904
1889,1267,1842
1878,1242,1835
1933,1290,1877
1968,1322,1936
1919,1321,1866
1904,1237,1834
1932,1295,1839
1930,1303,1840
1923,1302,1791
1879,1332,1771
1869,1274,1886
1881,1296,1904
1858,1310,1842
1861,1325,1805
1872,1255,1852
1868,1296,1890
1840,1342,1871
1814,1360,1836
1839,1238,1839
1867,1299,1856
1833,1269,1802
1820,1370,1794
1847,1293,1815
1882,1371,1841
1856,1313,1815
1840,1318,1825
1860,1327,1838
1885,1360,1829
1847,1313,1798
1779,1302,1838
1803,1424,1880
1869,1392,1874
1811,1360,1810
1732,1380,1811
1747,1427,1835
1779,1328,1853
1779,1408,1856
1742,1389,1798
1746,1370,1815
1763,1418,1835
1733,1339,1767
1717,1456,1755
1730,1478,1792
1740,1459,1827
1726,1373,1792
1680,1409,1754
1680,1467,1911
1378,1070,3788
784,486,2439
464,179,955
538,218,448
832,469,1456
1019,714,1999
1089,769,1969
1145,865,2811
1047,720,1657
1023,724,1314
1101,842,1518
1234,976,1778
1285,997,1874
1266,1010,1857
1314,1216,1827
1411,1188,1821
1467,1249,1822
1408,1253,1827
1429,1275,1830
1534,1359,1827
1591,1424,1830
1535,1370,1832
1535,1339,1830
1597,1494,1826
1633,1563,1831
1617,1456,1825
1632,1479,1829
1663,1596,1831
1680,1595,1831
1686,1505,1829
1699,1535,1831
1715,1638,1833
1742,1678,1820
1709,1609,1767
1677,1600,1716
1706,1697,1814
1763,1744,1831
1731,1759,1779
1738,1664,1766
1783,1733,1792
1806,1777,1806
1764,1725,1725
1746,1728,1698
1796,1732,1750
1808,1770,1770
1795,1785,1730
1798,1851,1722
1818,1744,1691
1834,1751,1719
1835,1814,1698
1791,1805,1725
1808,1829,1755
1850,1840,1733
1808,1851,1697
1797,1854,1676
1846,1927,1691
1876,1909,1728
1831,1792,1727
1814,1878,1701
1842,1835,1680
1830,1884,1713
1826,1879,1735
1827,1883,1706
1867,2019,1728
1886,2024,1776
1850,1933,1691
1824,1838,1679
1872,1879,1685
1857,1899,1712
1822,1967,1702
1842,2095,1729
1873,2015,1712
1891,1899,1681
1861,1886,1679
1846,1951,1679
1872,2032,1705
1871,2036,1766
1856,2083,1712
1833,1895,1683
1860,1937,1730
1877,2106,1782
1845,2128,1690
1852,1984,1680
1899,2061,1745
1897,2109,1775
1856,2057,1729
1834,1942,1658
1843,2009,1686
1863,2158,1744
1846,2096,1749
1863,2109,1725
1905,2096,1713
1871,2098,1706
1809,2019,1693
1808,2015,1705
1875,2150,1771
1917,2199,1793
1873,2094,1712
1824,2137,1664
1869,2163,1733
1904,2273,1808
1865,2080,1714
1827,2064,1686
1851,2097,1745
1863,2175,1773
1853,2196,1772
1815,2114,1680
1839,2135,1725
1855,2202,1758
1819,2096,1759
1833,2098,1690
1859,2160,1739
1893,2150,1779
1872,2145,1746
1800,2117,1689
1795,2218,1744
1849,2162,1809
1830,2089,1719
1817,2131,1671
1867,2173,1748
1862,2208,1791
1831,2096,1741
1790,2089,1709
1840,2192,1750
1886,2234,1779
1853,2111,1755
1837,2096,1730
1883,2218,1798
1842,2219,1760
1823,2154,1768
1812,2017,1747
1831,2090,1725
1847,2161,1807
1805,2165,1744
1789,2099,1683
1814,2154,1763
1866,2235,1855
1807,2096,1743
1801,2108,1723
1856,2153,1791
1868,2141,1791
1825,2122,1751
1821,2108,1695
1862,2205,1744
1867,2191,1840
1823,2102,1778
1803,2033,1717
1847,2096,1783
1844,2215,1837
1839,2093,1761
1788,1951,1746
1829,2096,1806
1868,2263,1835
1828,2133,1744
1804,2025,1719
1882,2095,1817
1893,2167,1856
1840,2123,1776
1839,2128,1801
1865,2138,1773
1845,2011,1815
1803,1994,1787
1808,2087,1767
1862,2126,1808
1937,2175,1838
1858,2176,1821
1808,2016,1729
1829,2002,1791
1875,2082,1851
1872,2094,1824
1840,2054,1778
1889,2037,1805
1867,2066,1859
1823,2149,1813
1819,2062,1806
1847,2065,1846
1877,2096,1872
1840,2108,1823
1841,2105,1783
1863,2031,1835
1884,2005,1840
1838,2128,1811
1807,2116,1797
1872,1986,1840
1898,2006,1843
1826,2065,1828
1839,1981,1786
1866,2130,1853
1903,2160,1915
1874,1945,1865
1831,1984,1808
1856,2053,1899
1851,2071,1861
1840,1997,1825
1872,2102,1890
1887,2019,1811
1857,1986,1854
1775,1975,1804
1824,2131,1836
1948,2058,1854
1867,2063,1888
1792,1943,1837
1793,1970,1833
1857,2015,1891
1892,2099,1904
1859,2027,1835
1837,1994,1808
1887,2002,1854
1914,2102,1899
1846,2003,1840
1827,1931,1792
1854,1975,1841
1916,2033,1875
1863,1984,1872
1813,1968,1840
1875,2027,1860
1902,2098,1919
1810,1984,1854
1807,1968,1842
1882,2021,1895
1904,2067,1931
1842,1915,1823
1826,1881,1796
1872,1968,1863
1930,2062,1932
1878,1962,1876
1808,1938,1785
1850,2013,1771
1887,2011,1923
1911,2022,1808
1838,2032,1833
1835,1995,1929
1855,1889,1872
1837,1915,1887
1833,1975,1847
1873,1968,1866
1887,1906,1895
1872,2000,1863
1840,2018,1808
1852,1982,1862
1861,1967,1931
1840,1950,1894
1840,1936,1854
1877,2096,1915
1893,2032,1936
1869,1953,1825
1841,1859,1808
1881,1901,1903
1874,1959,1938
1867,1877,1864
1852,1936,1843
1872,2007,1861
1873,2031,1861
1852,2026,1879
1840,1969,1867
1886,1906,1900
1910,1920,1918
1851,1887,1866
1855,1916,1858
1894,1957,1910
1901,2013,1889
1840,1929,1830
1835,1873,1828
1919,1982,1901
1926,2004,1899
1860,1989,1881
1824,1908,1851
1877,1959,1898
1890,1900,1934
1862,1871,1877
1855,1903,1795
1895,1989,1891
1895,1963,1920
1847,1910,1884
1859,1967,1893
1904,2063,1909
1885,1936,1898
1847,1827,1844
1839,1844,1786
1905,1923,1914
1913,1931,1935
1849,1898,1875
1824,1894,1926
1876,1955,1892
1910,1964,1936
1875,1946,1878
1852,1938,1893
1895,2055,1937
1943,1989,1937
1857,1825,1851
1808,1760,1823
1859,1867,1884
1905,1920,1907
1888,1930,1854
1850,1857,1872
1881,1906,1955
1921,2092,1952
1877,2097,1898
1826,1772,1775
1855,1731,1856
1889,1856,1922
1861,1934,1933
1866,1925,1890
1910,1808,1936
1904,1869,1883
1873,1963,1837
1845,1966,1851
1869,1865,1840
1923,1915,1936
1890,1910,1874
1864,1840,1873
1870,1840,1777
1899,1840,1867
1872,1904,1902
1867,1934,1924
1889,1963,1885
1891,1862,1904
1872,1791,1829
1869,1840,1843
1904,1833,1932
1919,1899,1932
1873,1951,1862
1837,1813,1805
1882,1791,1863
1914,1969,1904
1893,1905,1849
1865,1808,1811
1879,1852,1929
1903,1835,1938
1874,1840,1855
1873,1833,1872
1891,1856,1903
1904,1936,1909
1865,1818,1825
1856,1783,1813
1911,1889,1850
1904,1894,1903
1859,1858,1863
1862,1843,1829
1922,1827,1821
1901,1850,1840
1871,1865,1898
1888,1830,1882
1895,1915,1917
1904,1895,1905
1863,1777,1877
1885,1810,1843
1904,1882,1898
1920,1847,1936
1882,1859,1838
1872,1830,1839
1916,1863,1884
1915,1870,1906
1867,1826,1900
1867,1825,1857
1931,1914,1891
1919,1820,1898
1878,1798,1847
1871,1839,1859
1887,1929,1886
1919,1922,1904
1900,1777,1862
1904,1785,1861
1907,1832,1858
1903,1871,1889
1892,1817,1888
1910,1936,1863
1879,1866,1915
1885,1815,1910
1872,1795,1857
1897,1873,1860
1923,1901,1915
1925,1823,1906
1901,1775,1858
1887,1838,1817
1906,1850,1861
1923,1923,1930
1883,1861,1882
1881,1811,1842
1955,1834,1861
1890,1877,1929
1890,1868,1898
1855,1815,1858
1945,1870,1931
1976,1885,1940
1920,1862,1840
1836,1867,1868
1934,1893,1926
1946,1977,1918
1850,1909,1839
1902,1781,1830
1872,1883,1891
1921,1936,1918
1877,1879,1851
1860,1872,1831
1863,1978,1919
1890,1935,1937
1853,1823,1850
1842,1808,1820
1904,1901,1885
1897,1941,1874
1883,1924,1822
1851,1853,1840
1919,1925,1902
1873,1840,1894
1851,1884,1825
1822,1879,1830
1896,1986,1904
1890,1861,1871
1827,1840,1850
1871,1898,1856
1904,1875,1863
1904,1903,1904
1845,1856,1855
1839,1911,1829
1871,1840,1856
1886,1875,1895
1858,1894,1836
1840,1904,1816
1894,1893,1857
1930,1894,1899
1847,1877,1846
1876,1872,1831
1984,1947,1863
1842,1962,1906
1787,1875,1840
1818,1837,1794
1916,1795,1872
1897,1844,1904
1856,1887,1872
1794,1783,1846
1922,1888,1872
1834,1888,1851
1828,1846,1798
1839,1872,1824
1850,1875,1877
1866,1951,1878
1873,1899,1823
1855,1887,1847
1870,1891,1843
1865,1831,1856
1797,1804,1841
1851,1903,1838
1899,1814,1893
1898,1834,1897
1818,1852,1799
1869,1835,1808
1897,1936,1875
1942,2011,1924
1877,1887,1842
1808,1863,1813
1916,1808,1856
1903,1799,1863
1856,1802,1808
1872,1798,1826
1878,1892,1892
1906,1919,1905
1877,1856,1863
1904,1906,1835
1950,2001,1886
1893,1985,1922
1859,1840,1867
1866,1953,1852
1884,1904,1889
1904,1801,1877
1924,1763,1794
1926,1827,1792
1886,1883,1889
1904,1925,1904
1787,1900,1869
1857,1819,1840
1910,1847,1901
1916,1947,1918
1879,1893,1850
1863,1872,1856
1922,1872,1891
1910,1906,1887
1859,1849,1783
1839,1839,1787
1865,1943,1887
1897,1857,1919
1846,1856,1841
1808,1846,1808
1872,1861,1829
1861,1957,1879
1884,1892,1823
1837,1840,1808
1917,1898,1878
1904,1999,1871
1931,1798,1811
1905,1739,1808
1825,1802,1869
1917,1872,1861
1808,1823,1840
1806,1862,1808
1847,1917,1872
1842,1953,1888
1838,1910,1819
1885,1839,1808
1893,1843,1886
1845,1858,1856
1862,1788,1797
1821,1830,1805
1937,1815,1862
1872,1863,1853
1829,1851,1795
1808,1830,1777
1849,1830,1854
1845,1867,1861
1769,1908,1834
1889,1911,1846
1840,1795,1849
1853,1745,1805
1814,1783,1803
1835,1883,1811
1872,1918,1886
1857,1904,1913
1817,1762,1815
1841,1680,1778
1852,1818,1823
1856,1906,1863
1813,1837,1840
1830,1973,1849
1871,1823,1871
1856,1822,1856
1836,1875,1787
1840,1747,1792
1850,1763,1856
1840,1807,1846
1806,1826,1808
1785,1823,1839
1759,1726,1853
1797,1835,1856
1808,1895,1808
1782,1863,1830
1872,1879,1877
1876,1875,1871
1803,1739,1794
1789,1773,1794
1793,1783,1810
1841,1794,1840
1850,1818,1807
1797,1826,1840
1776,1744,1856
1813,1830,1851
1810,1879,1808
1814,1783,1818
1827,1853,1850
1810,1759,1834
1793,1785,1801
1791,1729,1788
1821,1767,1840
1821,1817,1872
1776,1789,1818
1791,1808,1811
1807,1799,1831
1839,1776,1847
1776,1770,1767
1735,1751,1751
1759,1803,1821
1776,1843,1863
1763,1755,1808
1787,1669,1798
1821,1776,1840
1765,1808,1793
1748,1837,1802
1744,1723,1807
1760,1711,1827
1779,1776,1843
1769,1727,1787
1766,1728,1781
1794,1805,1855
1808,1840,1834
1775,1807,1781
1769,1729,1780
1797,1703,1808
1798,1776,1842
1766,1789,1801
1776,1755,1803
1808,1765,1831
1842,1759,1856
1786,1675,1783
1760,1744,1791
1803,1833,1829
1795,1806,1825
1767,1712,1795
1785,1744,1797
1840,1777,1868
1810,1734,1831
1774,1711,1793
1770,1714,1809
1798,1863,1854
1840,1808,1847
1793,1711,1786
1778,1710,1808
1783,1676,1836
1794,1776,1836
1782,1762,1797
1805,1761,1837
1839,1853,1867
1813,1840,1845
1783,1680,1787
1788,1678,1767
1823,1740,1827
1843,1779,1843
1819,1799,1813
1826,1907,1840
1839,1700,1863
1807,1671,1825
1800,1728,1806
1818,1794,1847
1875,1808,1872
1866,1724,1826
1809,1765,1799
1794,1729,1807
1823,1719,1844
1851,1710,1857
1824,1749,1812
1835,1813,1811
1885,1799,1836
1888,1843,1870
1794,1751,1827
1794,1742,1795
1866,1791,1847
1857,1744,1859
1813,1699,1830
1821,1729,1817
1888,1824,1870
1857,1722,1856
1810,1759,1782
1807,1812,1757
1840,1805,1808
1872,1769,1869
1856,1782,1817
1867,1789,1792
1868,1791,1856
1892,1749,1891
1830,1695,1824
1808,1703,1815
1853,1799,1873
1849,1792,1873
1808,1813,1777
1850,1782,1800
1863,1743,1847
1854,1805,1854
1818,1781,1814
1837,1735,1821
1913,1765,1819
1874,1842,1839
1793,1738,1841
1821,1728,1817
1857,1775,1848
1871,1808,1877
1863,1872,1814
1808,1776,1779
1835,1744,1852
1859,1799,1870
1846,1821,1829
1850,1821,1814
1859,1789,1824
1856,1792,1856
1811,1764,1809
1827,1733,1808
1865,1792,1867
1875,1865,1888
1808,1865,1836
1817,1776,1822
1825,1727,1825
1847,1776,1862
1830,1779,1826
1862,1793,1830
1865,1801,1824
1843,1776,1849
1817,1809,1857
1824,1806,1840
1869,1839,1855
1853,1815,1879
1837,1788,1834
1836,1776,1823
1835,1808,1877
1829,1840,1897
1821,1787,1840
1867,1904,1859
1889,1907,1863
1840,1791,1815
1810,1713,1824
1850,1818,1867
1884,1781,1894
1872,1853,1861
1840,1759,1802
1843,1840,1818
1872,1952,1883
1872,1863,1881
1843,1808,1829
1856,1867,1854
1853,1734,1840
1863,1791,1850
1854,1887,1831
1842,1830,1835
1869,1783,1838
1859,1778,1840
1865,1951,1867
1859,1822,1870
1872,1785,1859
1872,1770,1819
1828,1766,1805
1815,1784,1826
1871,1845,1887
1872,1843,1881
1862,1874,1815
1856,1841,1813
1827,1817,1839
1842,1791,1859
1845,1853,1834
1866,1878,1821
1904,1903,1871
1886,1878,1872
1824,1747,1810
1828,1757,1827
1872,1855,1872
1896,1893,1853
1850,1773,1818
1807,1828,1821
1855,1793,1859
1856,1804,1840
1853,1826,1792
1857,1858,1837
1886,1916,1889
1855,1791,1909
1822,1722,1823
1847,1785,1808
1899,1929,1887
1894,1863,1877
1840,1790,1825
1870,1808,1839
1905,1840,1870
1885,1910,1865
1894,1831,1825
1860,1808,1825
1870,1827,1895
1864,1882,1904
1838,1858,1840
1877,1808,1855
1877,1790,1859
1873,1814,1882
1866,1900,1853
1869,1921,1841
1887,1833,1870
1881,1738,1869
1847,1792,1835
1870,1887,1846
1931,1840,1893
1879,1808,1886
1829,1757,1854
1846,1849,1830
1871,1913,1859
1879,1894,1876
1871,1825,1835
1873,1831,1851
1887,1819,1886
1875,1849,1871
1865,1833,1839
1856,1918,1840
1877,1878,1866
1861,1773,1846
1851,1712,1785
1872,1776,1793
1873,1946,1890
1885,1873,1873
1858,1811,1817
1831,1799,1797
1872,1809,1872
1901,1889,1904
1835,1820,1830
1851,1803,1803
1920,1853,1876
1913,1963,1886
1870,1847,1813
1845,1776,1791
1863,1840,1853
1872,1903,1875
1869,1869,1825
1869,1792,1821
1881,1891,1884
1879,1899,1895
1847,1844,1817
1845,1831,1811
1872,1891,1847
1885,1844,1830
1856,1863,1831
1851,1853,1853
1920,1909,1885
1900,1788,1840
1803,1777,1802
1814,1808,1812
1895,1841,1873
1906,1894,1904
1831,1840,1839
1844,1908,1845
1875,1903,1851
1867,1779,1841
1840,1788,1808
1909,1874,1857
1927,1963,1906
1887,1978,1871
1836,1722,1786
1837,1822,1840
1891,1831,1885
1918,1930,1876
1843,1886,1857
1847,1899,1834
1878,1796,1878
1889,1862,1847
1853,1915,1806
1870,1930,1851
1902,1825,1882
1892,1824,1847
1857,1806,1797
1855,1785,1826
1869,1950,1878
1857,1894,1846
1860,1865,1815
1856,1915,1861
1885,1942,1904
1902,1872,1834
1835,1770,1773
1819,1809,1808
1882,1958,1883
1951,1888,1854
1859,1877,1808
1787,1867,1823
1847,1865,1902
1906,1817,1911
1887,1958,1831
1868,1959,1827
1877,1858,1862
1873,1787,1860
1862,1883,1805
1843,1862,1806
1876,1806,1888
1883,1946,1883
1863,1929,1834
