1862,1898,1859
1831,1835,1837
1839,1931,1845
1883,1973,1863
1875,1805,1835
1837,1765,1805
1850,1763,1851
1889,1897,1910
1884,1975,1870
1827,1792,1755
1838,1773,1848
1869,1822,1876
1883,1903,1856
1811,1852,1791
1829,1904,1831
1863,1923,1872
1846,1847,1855
1854,1794,1822
1871,1817,1831
1874,1868,1853
1822,1811,1810
1787,1776,1799
1814,1763,1818
1872,1837,1869
1855,1855,1801
1814,1836,1797
1809,1957,1824
1866,1911,1872
1871,1696,1808
1790,1678,1745
1808,1795,1790
1865,1877,1849
1856,1794,1823
1841,1751,1792
1828,1744,1798
1833,1790,1814
1843,1911,1857
1832,1872,1814
1832,1788,1776
1865,1808,1827
1850,1923,1879
1815,1762,1805
1811,1711,1793
1856,1791,1850
1869,1777,1855
1840,1780,1801
1861,1793,1830
1887,1776,1872
1858,1840,1840
1834,1811,1821
1862,1821,1856
1891,1785,1888
1858,1781,1850
1840,1815,1813
1857,1778,1847
1891,1844,1871
1866,1731,1859
1845,1746,1856
1869,1712,1856
1897,1775,1868
1855,1810,1886
1808,1691,1827
1830,1711,1835
1886,1757,1899
1904,1760,1875
1846,1780,1847
1846,1793,1847
1859,1776,1886
1853,1791,1842
1823,1706,1807
1853,1744,1854
1859,1759,1901
1846,1834,1854
1839,1777,1806
1869,1682,1819
1862,1694,1855
1846,1698,1822
1808,1669,1783
1808,1680,1819
1831,1740,1857
1831,1746,1853
1820,1723,1795
1823,1749,1795
1856,1789,1846
1840,1738,1833
1806,1664,1792
1814,1663,1803
1851,1661,1822
1835,1682,1814
1828,1680,1779
1829,1709,1810
1847,1763,1894
1843,1781,1839
1828,1687,1791
1839,1685,1799
1849,1776,1840
1851,1805,1839
1834,1814,1825
1835,1699,1828
1873,1661,1881
1861,1677,1856
1852,1699,1820
1845,1739,1829
1857,1753,1873
1845,1723,1866
1856,1740,1849
1879,1728,1885
1894,1899,1905
1845,1785,1839
1836,1641,1819
1869,1622,1851
1917,1814,1894
1877,1856,1883
1827,1687,1840
1842,1712,1839
1903,1904,1898
1932,1936,1871
1851,1787,1825
1825,1682,1856
1870,1628,1883
1882,1797,1878
1865,1844,1840
1879,1775,1859
1913,1805,1917
1873,1805,1866
1831,1730,1799
1866,1744,1873
1920,1890,1933
1895,1920,1909
1879,1875,1845
1885,1839,1846
1873,1705,1862
1888,1674,1855
1857,1757,1800
1834,1755,1872
1855,1776,1886
1855,1857,1872
1861,1742,1809
1856,1742,1840
1854,1882,1840
1862,1913,1834
1838,1717,1781
1823,1692,1773
1856,1651,1830
1834,1715,1809
1817,1701,1777
1840,1739,1759
1851,1803,1826
1817,1759,1839
1805,1710,1795
1837,1751,1801
1855,1845,1829
1844,1845,1792
1817,1855,1757
1839,1727,1790
1878,1799,1861
1819,1754,1776
1791,1695,1735
1835,1819,1808
1875,1904,1870
1865,1859,1829
1821,1767,1803
1856,1855,1854
1856,1835,1887
1810,1925,1815
1786,1901,1789
1825,1779,1840
1839,1794,1881
1850,1771,1845
1825,1753,1812
1835,1817,1853
1855,1936,1887
1840,1936,1838
1808,1795,1807
1848,1909,1872
1874,1999,1907
1842,1883,1855
1820,1816,1815
1856,1829,1859
1877,1837,1907
1864,1841,1874
1837,1952,1809
1856,1936,1839
1892,2015,1886
1874,1840,1853
1877,1879,1833
1893,1886,1867
1903,1938,1873
1879,1755,1844
1838,1779,1824
1840,1893,1895
1859,2006,1902
1851,1964,1872
1834,1786,1818
1867,1856,1842
1902,1989,1889
1877,1793,1861
1872,1814,1840
1887,1921,1855
1906,1894,1879
1886,1861,1858
1877,1926,1846
1891,1958,1871
1908,1943,1891
1882,1893,1856
1871,1909,1846
1904,1936,1867
1931,1913,1907
1872,1871,1839
1840,1828,1799
1888,1904,1872
1908,1921,1935
1881,1904,1899
1877,1949,1841
1898,1964,1863
1918,1911,1860
1863,1887,1857
1843,1933,1849
1869,1884,1872
1913,1966,1920
1909,1879,1885
1889,1902,1838
1904,2036,1871
1899,1984,1885
1861,1872,1874
1842,1835,1855
1877,1922,1861
1929,1936,1907
1919,1975,1871
1879,1904,1841
1878,1937,1861
1904,1963,1873
1886,1954,1915
1875,1914,1872
1917,2067,1895
1907,1959,1901
1872,1842,1851
1850,1835,1831
1897,1911,1881
1931,1979,1927
1867,1961,1856
1872,1851,1812
1874,1907,1851
1903,1964,1931
1872,1926,1877
1858,1934,1810
1891,1994,1877
1899,1971,1907
1872,1804,1857
1856,1844,1824
1901,1904,1862
1895,1985,1886
1862,1875,1879
1842,1823,1834
1855,1967,1842
1898,2019,1883
1878,1904,1855
1856,1839,1808
1892,1863,1837
1874,1913,1891
1836,1833,1819
1826,1889,1818
1861,1920,1835
1867,1911,1860
1842,1891,1842
1862,1904,1835
1872,1916,1870
1877,1962,1887
1846,1854,1819
1840,1807,1813
1861,1869,1856
1887,1911,1895
1873,1872,1859
1844,1918,1822
1894,1974,1877
1909,1924,1869
1872,1884,1834
1856,1867,1842
1883,1934,1869
1903,1943,1888
1884,2023,1910
1851,1900,1872
1879,1806,1869
1904,1899,1872
1871,1950,1831
1863,1887,1835
1885,1959,1873
1888,1904,1889
1891,1823,1866
1873,1852,1819
1898,1958,1869
1923,1984,1899
1890,1922,1840
1873,1824,1827
1901,1842,1885
1936,1936,1919
1910,1934,1853
1879,1938,1807
1908,1863,1853
1936,1887,1904
1872,1936,1853
1856,1911,1819
1945,1904,1853
1911,2001,1901
1873,1857,1873
1854,1840,1840
1887,1903,1837
1907,1898,1854
1876,1906,1840
1861,1886,1827
1886,1855,1867
1904,1894,1890
1877,1917,1856
1871,1969,1817
1872,1842,1826
1899,1890,1870
1873,1840,1831
1843,1826,1778
1872,1909,1806
1927,1904,1871
1873,1907,1842
1841,1826,1793
1862,1840,1843
1919,1825,1872
1846,1837,1815
1850,1908,1783
1855,1914,1847
1874,1898,1893
1840,1834,1818
1807,1813,1753
1877,1884,1846
1888,1904,1881
1853,1872,1827
1823,1840,1782
1856,1867,1845
1883,1855,1846
1853,1849,1823
1843,1919,1819
1871,1898,1815
1870,1859,1878
1842,1834,1841
1861,1831,1819
1876,1855,1844
1893,1886,1885
1861,1840,1829
1852,1885,1805
1873,1929,1835
1895,1866,1867
1873,1934,1837
1838,1838,1806
1872,1865,1829
1899,1837,1866
1887,1889,1862
1918,1840,1793
1856,1822,1809
1844,1898,1857
1853,1913,1858
1875,1904,1828
1851,1933,1881
1870,1838,1881
1843,1840,1856
1840,1798,1776
1872,1837,1833
1886,1882,1906
1869,1899,1822
1851,1873,1794
1874,1861,1845
1920,1936,1925
1883,1901,1851
1851,1842,1831
1887,1844,1872
1890,1895,1885
1840,1963,1830
1835,1795,1769
1877,1856,1840
1893,1886,1872
1873,1818,1885
1887,1859,1840
1887,1927,1839
1850,1884,1872
1840,1838,1848
1846,1808,1814
1869,1854,1840
1885,1913,1861
1870,1848,1858
1872,1875,1848
1895,1957,1846
1889,1857,1878
1859,1856,1856
1865,1865,1789
1904,1875,1843
1906,2011,1907
1859,1859,1854
1861,1808,1830
1883,1840,1883
1925,1866,1895
1895,1849,1863
1890,1877,1834
1920,1904,1851
1885,1977,1897
1873,1844,1840
1872,1859,1870
1865,1891,1863
1883,1917,1923
1883,1872,1874
1878,1882,1847
1882,1819,1872
1898,1857,1890
1869,1856,1846
1873,1863,1853
1918,1856,1870
1937,1984,1918
1882,1958,1865
1867,1850,1795
1906,1801,1827
1904,1838,1871
1899,1888,1846
1839,1842,1855
1873,1888,1876
1921,1871,1917
1863,1879,1845
1831,1872,1809
1887,1850,1886
1911,1932,1893
1879,1943,1819
1841,1792,1807
1879,1789,1845
1917,1875,1904
1874,1866,1849
1855,1923,1840
1890,1968,1853
1904,1933,1870
1872,1782,1815
1857,1785,1804
1893,1872,1811
1935,1866,1860
1862,1857,1885
1840,1898,1853
1881,1879,1855
1901,1810,1872
1873,1840,1795
1850,1872,1755
1868,1925,1835
1892,1905,1937
1865,1830,1899
1856,1878,1856
1872,1850,1827
1887,1847,1847
1872,1839,1830
1856,1839,1810
1879,1846,1833
1898,1879,1898
1889,1904,1870
1853,1878,1794
1872,1854,1819
1865,1840,1861
1850,1841,1840
1871,1811,1785
1876,1856,1827
1881,1890,1872
1845,1828,1821
1830,1811,1808
1856,1825,1829
1888,1896,1857
1859,1840,1795
1821,1787,1810
1850,1869,1862
1879,1874,1856
1840,1838,1839
1845,1771,1835
1856,1761,1731
1842,1847,1815
1839,1862,1763
1812,1781,1835
1835,1837,1801
1875,1967,1826
1837,1873,1793
1795,1744,1712
1846,1772,1895
1872,1861,1840
1846,1886,1865
1821,1685,1854
1844,1809,1818
1866,1890,1821
1847,1858,1795
1831,1808,1776
1866,1872,1827
1873,1943,1867
1848,1808,1814
1860,1810,1776
1862,1843,1824
1872,1786,1810
1859,1770,1823
1860,1823,1811
1862,1903,1817
1851,1933,1861
1814,1827,1809
1808,1822,1777
1846,1808,1744
1883,1872,1818
1889,1911,1867
1854,1862,1819
1852,1769,1762
1872,1781,1875
1861,1852,1790
1839,1856,1729
1863,1895,1797
1859,1894,1878
1825,1823,1825
1863,1845,1835
1902,1975,1854
1867,1915,1827
1805,1692,1872
1797,1712,1821
1851,1813,1831
1870,1908,1867
1845,1904,1839
1830,1843,1807
1846,1840,1825
1855,1846,1856
1814,1831,1787
1841,1939,1808
1846,1783,1830
1847,1774,1872
1837,1835,1830
1829,1764,1814
1865,1829,1856
1867,1861,1802
1839,1865,1808
1832,1858,1833
1850,1827,1862
1863,1830,1855
1862,1851,1827
1808,1867,1790
1806,1808,1808
1834,1823,1855
1825,1875,1819
1829,1805,1801
1834,1777,1807
1856,1855,1871
1840,1826,1851
1823,1840,1833
1830,1859,1846
1845,1902,1853
1808,1776,1795
1791,1840,1765
1803,1821,1792
1843,1843,1855
1851,1857,1840
1784,1802,1801
1795,1830,1793
1826,1839,1815
1855,1865,1805
1833,1776,1779
1833,1799,1813
1883,1830,1835
1804,1851,1778
1781,1858,1791
1835,1767,1826
1881,1840,1859
1834,1821,1801
1804,1817,1776
1808,1820,1798
1846,1803,1838
1763,1770,1774
1787,1826,1775
1815,1866,1845
1843,1808,1857
1830,1759,1817
1799,1785,1791
1820,1878,1827
1891,1861,1841
1822,1730,1782
1769,1781,1776
1829,1920,1840
1834,1887,1871
1815,1773,1802
1753,1755,1776
1840,1850,1821
1840,1831,1841
1814,1789,1805
1838,1821,1811
1870,1830,1817
1863,1799,1818
1863,1819,1807
1840,1789,1793
1803,1840,1829
1821,1903,1872
1827,1813,1858
1830,1902,1811
1839,1904,1835
1801,1812,1823
1802,1733,1808
1794,1762,1799
1808,1808,1831
1841,1837,1863
1854,1835,1845
1855,1874,1830
1873,1868,1851
1885,1869,1850
1829,1886,1831
1826,1875,1811
1787,1729,3468
717,697,4095
0,0,4095
0,0,4095
0,0,4095
0,0,4095
0,0,4095
0,0,4095
0,0,4095
0,0,4095
0,0,4095
0,0,4095
0,0,4095
0,0,4095
0,0,4095
0,0,4095
0,0,4095
0,0,4095
0,0,4095
0,0,4095
0,0,4095
0,0,4095
0,0,4095
0,0,4095
0,0,4095
0,0,2691
0,0,1744
0,0,1615
0,0,1775
0,0,1861
0,0,1863
0,0,1842
0,0,1835
0,0,1834
0,869,1836
0,1601,1837
787,2047,1837
1518,2246,1829
1729,2254,1834
1801,2389,1838
1904,2626,1827
2107,2973,1837
2186,3003,1834
2308,3088,1839
2448,3330,1834
2602,3696,1839
2683,3721,1837
2763,3690,1929
2806,3921,2593
2690,3712,2559
2436,3276,3415
2011,2797,2259
1776,2464,1371
1645,2432,1739
1838,2585,717
2227,2921,1219
2603,3319,1837
2915,3616,1969
3119,3775,1891
3221,4086,1830
3286,4095,1838
3294,4095,2289
3408,4095,2114
3463,4095,1664
3681,4095,1619
3675,4095,1744
3706,4095,1842
3799,4095,1860
3984,4095,1840
4095,4095,1834
4067,4095,1834
4095,4095,1840
4095,4095,1839
4095,4095,1839
4095,4095,1838
4095,4095,1837
4095,4095,1838
4095,4095,1840
4095,4095,1838
4095,4095,1839
4095,4095,1838
4095,4095,1837
4095,4095,1835
4095,4095,1840
4095,4095,1843
4095,4095,1824
4095,4095,1910
4095,4095,2128
4095,4095,1981
4095,4095,1883
4095,4095,1798
4095,4095,1775
4095,4095,1817
4095,4095,1852
4095,4095,1835
0,4095,1879
0,4095,1939
0,4095,1932
0,4095,1903
0,4095,1936
0,4095,1953
0,4095,1970
0,4095,1942
0,4095,1926
0,4095,1951
0,4095,1964
0,4095,1943
0,4095,1945
0,4095,1968
0,4095,1932
0,4095,1850
0,4095,1846
0,4095,1902
0,4095,1907
0,4095,1889
0,4095,1915
0,4095,1931
0,4095,1931
0,4095,1899
1248,4095,1865
2000,4095,1942
2002,4095,1968
1845,4095,1937
1777,4095,1860
1793,4095,1858
1809,4095,1889
1822,4095,1856
1820,4095,1835
1822,4095,1857
1823,4095,1873
1825,4010,1851
1826,3949,1840
1826,3945,1879
1825,3805,1850
1824,3739,1809
1830,3815,1802
1830,3599,1813
1830,3548,1850
1826,3575,1802
1829,3554,1804
1815,3475,1830
1743,3462,1867
1625,3471,1808
1525,3393,1776
1456,3274,1826
1392,3236,1861
1328,3262,1834
1313,3228,1824
1263,3261,1869
1200,3281,1873
1147,3247,1842
1121,3127,1807
1136,3169,1882
1117,3115,1905
1090,3149,1879
1050,3203,1850
1055,3087,1884
1076,3120,1925
1050,3025,1861
1002,2949,1852
1034,2923,1907
1058,2919,1969
1033,2957,1911
1039,2983,1886
1065,3105,1933
1088,3018,1949
1072,2799,1873
1040,2823,1917
1040,2800,1957
1095,2774,1984
1063,2790,1916
1052,2782,1907
1085,2809,1936
1105,2765,1978
1105,2803,1963
1103,2638,1926
1125,2633,1936
1125,2646,1931
1124,2701,1924
1153,2607,1932
1200,2665,1964
1187,2608,1942
1172,2515,1897
1186,2484,1889
1200,2499,1913
1235,2499,1981
1234,2512,1923
1235,2432,1903
1261,2395,1883
1270,2449,1919
1275,2416,1936
1294,2423,1920
1319,2411,1943
1338,2416,1953
1339,2346,1937
1334,2265,1892
1377,2320,1920
1415,2330,1947
1383,2256,1898
1379,2154,1856
1440,2162,1889
1445,2310,1958
1444,2226,1936
1431,2204,1889
1484,2311,1913
1507,2178,1941
1487,2113,1891
1501,2185,1891
1535,2088,1878
1535,2039,1894
1521,2074,1919
1523,2102,1898
1567,2103,1893
1580,2047,1907
1572,2022,1884
1584,2082,1863
1611,2055,1877
1643,2039,1894
1655,2068,1869
1637,2103,1883
1648,1907,1904
1659,1818,1904
1680,1822,1837
1669,1962,1825
1666,1955,1891
1713,1972,1913
1705,1937,1887
1696,1872,1828
1744,1907,1866
1748,1929,1902
1719,1847,1845
1742,1790,1833
1774,1810,1872
1765,1792,1866
1754,1834,1826
1776,1827,1826
1786,1783,1870
1802,1753,1904
1795,1778,1857
1785,1813,1840
1806,1846,1855
1885,1825,1871
1831,1776,1845
1783,1679,1808
1795,1666,1803
1848,1745,1846
1856,1694,1815
1826,1617,1791
1843,1658,1823
1876,1683,1823
1872,1697,1787
1895,1767,1808
1867,1659,1790
1872,1611,1831
1890,1664,1837
1899,1744,1811
1901,1601,2033
1895,1535,2000
1888,1515,1817
1903,1584,1735
1919,1616,1743
1923,1717,1808
1904,1535,1762
1902,1521,1712
1924,1535,1760
1936,1535,1788
1947,1569,1746
1952,1535,1751
1942,1513,1757
1985,1599,1829
1938,1523,1730
1909,1479,1702
1949,1499,1744
1966,1499,1794
1984,1557,1751
1978,1627,1747
1782,1559,1774
0,1471,1817
3328,1471,1723
3330,1499,1719
0,1600,1796
0,1657,1857
0,1658,1786
0,1468,1718
0,1451,1757
0,1535,1750
0,1555,1767
0,1535,1744
0,1520,1749
0,1521,1735
0,1529,1703
0,1453,1685
0,1375,1742
0,1459,1729
0,1488,1685
0,1447,1712
0,1465,1767
608,1498,1763
1803,1456,1734
2096,1404,1705
1933,1533,1742
1810,1533,1781
1793,1497,1737
1813,1502,1713
1833,1475,1743
1819,1502,1776
1823,1438,1712
1839,1424,1673
1830,1469,1723
1827,1533,1771
1826,1511,1770
1829,1585,1737
1831,1614,1776
1833,1503,1792
1830,1462,1730
1828,1514,1728
1835,1424,1757
1833,1506,1795
1829,1554,1753
1831,1501,1706
1834,1565,1743
1830,1587,1798
1841,1611,1780
1919,1503,1759
2018,1520,1769
2112,1595,1751
2133,1426,1755
2159,1481,1763
2215,1531,1769
2293,1666,1795
2328,1562,1771
2365,1462,1775
2415,1535,1773
2434,1453,1737
2455,1535,1712
2508,1535,1718
2531,1458,1747
2594,1568,1751
2559,1594,1711
2640,1516,1712
2657,1415,1712
2650,1436,1743
2669,1482,1737
2703,1535,1726
2758,1568,1745
2754,1498,1712
2737,1535,1690
2743,1501,1650
2779,1397,1697
2822,1509,1714
2819,1520,1698
2827,1577,1709
2829,1488,1705
2871,1472,1703
2864,1493,1667
2864,1489,1694
2926,1519,1726
2927,1535,1745
2886,1523,1687
2896,1587,1665
2945,1589,1693
2965,1567,1741
2946,1477,1696
2932,1426,1675
2949,1456,1690
2991,1568,1718
2991,1630,1710
3007,1597,1693
3005,1490,1695
2992,1579,1705
3009,1469,1681
3023,1535,1655
2992,1573,1712
2983,1580,1754
3003,1595,1723
3035,1599,1674
3017,1565,1707
3037,1559,1747
3012,1519,1715
3012,1563,1683
3047,1630,1728
3050,1485,1716
3014,1633,1707
3012,1557,1724
3015,1499,1750
3020,1662,1770
2998,1667,1711
3014,1655,1709
3018,1599,1750
3021,1596,1771
2992,1590,1731
3008,1584,1715
3008,1596,1729
2986,1609,1750
2962,1698,1761
2993,1619,1727
2979,1489,1751
2975,1669,1775
2954,1695,1761
2958,1653,1744
2947,1613,1787
2915,1606,1778
2902,1682,1765
2901,1653,1756
2909,1570,1745
2933,1743,1787
2923,1664,1795
2863,1604,1744
2879,1625,1765
2871,1620,1773
2864,1671,1774
2843,1746,1766
2855,1693,1775
2849,1635,1779
2845,1707,1767
2844,1793,1789
2783,1680,1776
2774,1616,1776
2791,1626,1742
2781,1734,1780
2799,1699,1794
2797,1659,1824
2770,1748,1821
2741,1679,1803
2750,1679,1814
2735,1741,1791
2735,1712,1795
2736,1694,1778
2736,1708,1793
2719,1746,1779
2691,1726,1771
2697,1741,1744
2686,1614,1781
2679,1673,1827
2670,1812,1809
2662,1792,1840
2637,1651,1819
2647,1680,1825
2615,1677,1772
2599,1719,1787
2595,1733,1808
2619,1777,1847
2611,1833,1833
2594,1744,1782
2583,1713,1802
2559,1676,1827
2559,1740,1803
2522,1729,1780
2526,1746,1809
2537,1767,1851
2500,1677,1831
2492,1730,1791
2505,1771,1818
2483,1670,1842
2465,1718,1806
2451,1680,1786
2470,1664,1813
2451,1631,1834
2416,1632,1825
2405,1628,1785
2407,1653,1799
2403,1680,1834
2383,1669,1828
2395,1712,1831
2438,1683,1850
2394,1679,1863
2351,1713,1835
2383,1664,1827
2382,1673,1868
2357,1665,1873
2338,1632,1838
2345,1586,1808
2373,1652,1841
2368,1717,1862
2330,1709,1803
2339,1675,1884
2397,1761,1941
2332,1741,1933
2288,1664,1871
2302,1623,1872
2345,1646,1914
2321,1747,1917
2290,1712,1893
2263,1565,1854
2274,1614,1873
2295,1695,1911
2258,1621,1870
2239,1680,1849
2271,1745,1904
2288,1658,1919
2256,1594,1866
2256,1619,1854
2214,1696,1889
2150,1687,1949
2159,1723,1905
2195,1706,1933
2215,1620,1972
2198,1629,1965
2175,1699,1937
2191,1698,1947
2208,1814,2000
2165,1701,1950
2129,1681,1918
2155,1654,1938
2175,1665,1987
2181,1707,2023
2160,1749,1970
2167,1735,1923
2155,1684,1952
2123,1718,2034
2096,1712,1995
2105,1705,1959
2151,1776,2010
2153,1783,2032
2129,1813,1978
2088,1687,1975
2091,1655,1989
2095,1717,2031
2072,1791,1993
2078,1808,1989
2091,1804,2032
2081,1726,2015
2062,1755,1985
2065,1722,1984
2092,1759,1995
2033,1821,2052
2007,1915,2000
2078,1812,2005
2041,1712,2046
2014,1699,2027
2003,1769,1958
2034,1836,1968
2000,1840,2001
1975,1797,2027
1968,1733,1995
1973,1811,1971
1983,1806,2005
1974,1808,2001
1955,1806,1969
1951,1822,1957
1968,1862,2000
1963,1776,2029
1937,1791,2000
1965,1799,1973
1936,1818,1920
1857,1740,1938
1853,1765,1957
1920,1883,1990
1941,1840,1997
1911,1808,1977
1863,1803,1925
1869,1875,1939
1922,2011,1982
1866,1858,1969
1808,1686,1913
1809,1723,1929
1842,1819,1965
1869,1881,2007
1837,1915,1968
1826,1975,1948
1808,1808,1915
1809,1747,1926
1793,1808,1907
1795,1866,1906
1812,1943,1968
1803,1914,1936
1762,1877,1871
1716,1769,1842
1736,1837,1918
1746,1951,1966
1714,1769,1855
1707,1767,1794
1741,1828,1836
1725,1817,1882
1687,1794,1824
1696,1884,1808
1678,1891,1871
1694,1925,1891
1663,1857,1833
1673,1806,1857
1691,1783,1902
1687,1856,1867
1679,1786,1840
1693,1840,1824
1707,1922,1881
1699,1922,1891
1680,1881,1856
1699,1956,1872
1686,1885,1837
1681,1909,1861
1664,1888,1834
1681,1893,1852
1725,1949,1879
1741,1872,1859
1648,1856,1869
1628,1833,1840
1669,1847,1870
1745,1936,1866
1651,1906,1837
1589,1850,1841
1642,1930,1856
1727,2035,1926
1668,1895,1858
1653,1860,1845
1705,1834,1911
1683,1866,1856
1616,1927,1872
1632,1884,1872
1651,1898,1895
1647,1910,1856
1621,1881,1776
1652,1886,1853
1684,1872,1808
1637,1861,1801
1593,1831,1796
1610,1850,1818
1643,1897,1849
1645,1904,1855
1610,1853,1773
1593,1865,1770
1615,1863,1837
1609,1835,1856
1563,1839,1771
1574,1860,1781
1613,1942,1819
1617,1831,1841
1567,1808,1739
1569,1904,1769
1635,2097,1869
1602,1860,1835
1581,1661,1741
1584,1762,1744
1615,1841,1831
1606,1891,1885
1584,1844,1822
1575,1879,1795
1610,1925,1830
1613,1920,1872
1582,1889,1730
1622,1807,1780
1409,1664,4095
0,295,4095
0,0,4095
0,0,4095
0,0,4095
0,0,4095
0,0,4095
0,0,3906
0,0,2284
0,0,1616
0,0,1683
0,0,1797
0,0,1854
0,581,1845
96,933,1779
597,1081,1837
851,1088,1834
899,1157,1734
902,1262,1829
993,1389,1823
1116,1507,1824
1187,1611,1826
1200,1618,1831
1265,1737,1829
1370,1834,1834
1409,1762,1831
1444,1820,1828
1503,1863,1843
1562,1923,1834
1591,2080,1761
1587,2031,1834
1634,1993,1844
1683,2047,1798
1698,2123,1859
1710,2145,1827
1739,2176,1872
1779,2244,1951
1809,2327,1890
1803,2242,1904
1822,2240,1865
1861,2234,1857
1874,2303,1923
1872,2320,1827
1887,2357,1834
1928,2286,1907
1963,2327,1926
1933,2321,1856
1936,2363,1809
1958,2387,1789
1997,2455,1929
1979,2434,1853
1951,2307,1841
1990,2339,1901
2037,2490,1883
2009,2419,1826
1993,2416,1835
2019,2417,1861
2047,2421,1897
2032,2423,1799
2033,2438,1792
2069,2472,1852
2065,2487,1874
2062,2482,1853
2071,2425,1809
2085,2513,1814
2095,2559,1854
2069,2458,1786
2093,2431,1791
2109,2608,1831
2095,2542,1781
2071,2383,1774
2102,2403,1817
2179,2471,1829
2131,2474,1887
2092,2486,1853
2103,2507,1802
2116,2455,1838
2157,2435,1847
2099,2502,1814
2094,2582,1781
2122,2527,1855
2098,2345,1806
2065,2319,1721
2112,2387,1793
2173,2416,1875
2170,2466,1861
2116,2417,1807
2111,2370,1779
2142,2471,1813
2156,2479,1841
2118,2442,1794
2133,2433,1723
2156,2481,1789
2152,2588,1887
2107,2489,1796
2098,2375,1742
2138,2381,1765
2144,2469,1799
2089,2444,1773
2093,2320,1751
2150,2381,1809
2135,2459,1808
2128,2450,1773
2119,2387,1764
2137,2406,1813
2126,2477,1807
2096,2447,1776
2085,2411,1776
2141,2407,1843
2146,2427,1851
2123,2540,1826
2112,2559,1783
2130,2448,1747
2163,2434,1859
2112,2415,1856
2128,2625,1850
2193,2538,1890
2145,2396,1847
2130,2410,1772
2118,2442,1799
2197,2489,1840
2175,2592,1850
2157,2551,1823
2151,2535,1866
2138,2505,1894
2155,2533,1872
2179,2486,1794
2109,2485,1775
2102,2496,1889
2170,2509,1924
2128,2466,1861
2112,2540,1840
2192,2559,1889
2154,2515,1863
2110,2390,1814
2133,2417,1796
2179,2519,1867
2224,2522,1905
2197,2453,1808
2133,2415,1821
2102,2442,1904
2168,2501,1903
2209,2498,1872
2185,2341,1839
2183,2382,1857
2189,2384,1881
2162,2383,1857
2166,2399,1875
2223,2434,1873
2240,2423,1839
2190,2351,1865
2176,2351,1875
2224,2447,1909
2197,2437,1919
2251,2435,1835
2235,2341,1840
2215,2320,1907
2262,2389,1914
2220,2489,1840
2225,2356,1846
2287,2320,1885
2306,2343,1877
2243,2333,1829
2176,2353,1843
2203,2439,1846
2298,2474,1931
2225,2266,1857
2209,2251,1821
2299,2347,1906
2256,2401,1936
2219,2395,1894
2228,2422,1878
2225,2475,1925
2225,2407,1933
2204,2368,1914
2226,2342,1906
2240,2458,1951
2074,2485,1968
1825,2438,1978
2023,2355,1959
2269,2416,1999
2260,2368,1985
2178,2323,1933
2200,2359,1926
2227,2352,1978
2203,2387,2007
2211,2354,1985
2174,2432,1953
2333,2510,1967
2242,2433,2015
2197,2412,1995
2154,2407,2002
2234,2481,2029
2211,2486,2027
2151,2384,2032
2145,2432,2043
2192,2422,2079
2229,2455,2093
2122,2416,2071
2197,2453,2059
2224,2559,2106
2194,2559,2101
2128,2492,2033
2100,2428,2090
2105,2446,2201
2288,2519,2211
2177,2547,2117
2159,2525,2113
2211,2523,2160
2177,2517,2183
2147,2388,2175
2159,2431,2171
2198,2506,2218
2205,2459,2246
2161,2437,2167
2179,2444,2179
2192,2462,2192
2198,2480,2257
2255,2496,2237
2176,2641,2225
2215,2368,2221
2195,2331,2231
2209,2347,2182
2208,2479,2218
2224,2492,2288
2239,2477,2270
2273,2365,2186
2221,2352,2199
2176,2384,2323
2286,2417,2336
2222,2386,2219
2197,2336,2207
2250,2303,2288
2223,2395,2307
2290,2449,2267
2198,2444,2237
2279,2311,2258
2290,2261,2274
2224,2179,2219
2165,2229,2267
2256,2309,2303
2273,2304,2302
2273,2199,2181
2215,2213,2197
2290,2365,2336
2348,2295,2352
2279,2196,2227
2263,2166,2246
2273,2206,2307
2287,2160,2301
2255,2205,2254
2257,2243,2235
2318,2186,2298
2320,2186,2307
2249,2147,2231
2261,2165,2234
2343,2178,2298
2290,2175,2289
2268,2125,2209
2259,2162,2221
2192,2182,2314
2177,2082,2284
2223,2017,2255
2311,2161,2271
2357,2111,2272
2291,2125,2270
2197,2071,2208
2237,2039,2223
2276,2059,2270
2326,2077,2284
2279,2089,2197
2258,2101,2196
2278,2062,2227
2261,2038,2246
2222,1994,2197
2240,2039,2150
2288,2026,2192
2282,2064,2273
2215,1993,2192
2242,1989,2179
2240,1967,2208
2125,1887,2211
2115,1902,2154
2220,1981,2133
2291,2004,2170
2237,1938,2190
2209,1981,2171
2192,1875,2082
2197,1911,2160
2198,1872,2241
2173,1849,2149
2181,1803,2114
2214,1855,2143
2224,1830,2135
2187,1823,2044
2138,1819,2078
2167,1840,2158
2193,1882,2169
2150,1854,2038
2127,1793,2064
2129,1777,2112
2143,1779,2121
2113,1753,2058
2128,1763,2021
2182,1712,2063
2128,1686,2071
2064,1713,2003
2085,1723,2031
2112,1694,2087
2096,1769,2054
2061,1709,1991
2114,1610,1982
2112,1648,2035
2069,1641,2043
2041,1687,1997
2066,1684,1951
2079,1677,1991
2057,1635,1994
1996,1650,1918
1985,1489,1920
2044,1506,1981
2066,1599,1995
2055,1638,1932
2010,1616,1940
2039,1567,1939
2006,1535,1935
1978,1520,1920
1985,1562,1927
2010,1620,1958
1995,1535,1936
1968,1520,1856
1984,1598,1863
2002,1650,1941
2026,1580,1927
1971,1459,1859
1910,1455,1827
1954,1516,1873
1965,1535,1919
1936,1563,1871
1949,1504,1853
1971,1535,1888
1967,1599,1897
1929,1518,1814
1911,1502,1769
1948,1517,1879
1963,1525,1911
1936,1505,1840
1941,1570,1803
1940,1569,1819
1950,1557,1840
1863,1504,1770
1862,1489,1783
1894,1442,1817
1917,1565,1808
1875,1559,1731
1873,1488,1751
1887,1527,1840
1887,1525,1872
1865,1511,1799
