1922,1834,1894
1875,1789,1825
1920,1923,1838
1936,1999,1885
1963,1882,1877
1903,1858,1815
1907,1759,1818
1927,1856,1843
1857,1924,1887
1877,1926,1873
1881,1907,1866
1869,1888,1869
1920,1879,1850
1893,1904,1841
1920,1827,1820
1918,1877,1871
1966,1926,1874
1909,1886,1824
1874,1852,1827
1941,1914,1874
1939,1919,1862
1901,1830,1818
1937,1808,1829
1920,1850,1889
1980,1894,1908
1907,1928,1812
1907,1918,1817
1981,1891,1869
1975,1893,1868
1886,1871,1839
1883,1929,1834
1903,1860,1882
1977,1857,1891
1904,1840,1830
1922,1862,1834
1935,1898,1870
1933,1929,1873
1950,1853,1810
1923,1811,1815
1951,1843,1856
1920,1872,1886
1886,1844,1842
1871,1911,1834
1920,1942,1874
1915,1889,1885
1878,1845,1825
1890,1757,1790
1932,1814,1845
1909,1901,1867
1910,1840,1841
1904,1872,1840
2027,1904,1847
1843,1871,1860
1827,1883,1837
1869,1872,1846
1890,1821,1855
1907,1875,1850
1862,1856,1808
1876,1855,1817
1894,1827,1870
1892,1901,1872
1857,1859,1811
1862,1813,1792
1887,1856,1853
1899,1860,1872
1887,1866,1834
1875,1825,1838
1958,1856,1876
1893,1847,1845
1846,1849,1808
1871,1859,1808
1854,1859,1841
1926,1834,1848
1841,1863,1828
1911,1939,1814
1885,1833,1877
1830,1751,1855
1801,1796,1787
1827,1861,1838
1966,1917,1904
1839,1909,1872
1867,1817,1791
1837,1838,1808
1862,1847,1887
1911,1863,1895
1879,1851,1844
1867,1888,1793
1828,1825,1839
1871,1777,1856
1893,1806,1831
1879,1871,1840
1861,1870,1869
1890,1861,1845
1899,1815,1826
1881,1831,1828
1890,1859,1891
1884,1852,1877
1843,1833,1806
1869,1810,1831
1897,1856,1875
1893,1861,1856
1841,1853,1818
1899,1856,1829
1902,1877,1869
1914,1857,1874
1855,1851,1840
1870,1901,1816
1933,1857,1837
1881,1810,1854
1967,1847,1849
1865,1924,1843
1878,1855,1872
1845,1798,1870
1850,1874,1821
1897,1909,1835
1870,1794,1850
1890,1830,1840
1845,1776,1787
1863,1798,1831
1885,1819,1879
1895,1861,1856
1878,1875,1814
1857,1808,1820
1906,1862,1887
1874,1773,1872
1840,1776,1814
1869,1819,1809
1906,1861,1846
1887,1866,1874
1842,1855,1838
1865,1909,1847
1907,1920,1882
1895,1867,1870
1840,1818,1792
1855,1806,1808
1898,1966,1834
1901,1965,1891
1849,1738,1841
1840,1767,1827
1875,1840,1843
1872,1856,1861
1855,1840,1815
1867,1872,1826
1902,1894,1891
1875,1872,1863
1856,1872,1822
1878,1814,1829
1895,1842,1856
1891,1838,1847
1866,1872,1808
1867,1839,1826
1878,1840,1889
1894,1869,1871
1891,1839,1818
1875,1840,1827
1893,1873,1874
1872,1841,1886
1840,1909,1846
1845,1840,1819
1879,1823,1863
1883,1933,1872
1866,1921,1830
1857,1787,1824
1873,1808,1875
1894,1840,1892
1872,1888,1839
1872,1879,1834
1878,1800,1860
1899,1918,1875
1872,1946,1849
1866,1808,1812
1889,1778,1857
1870,1810,1871
1863,1900,1849
1923,1943,1866
1909,1867,1867
1885,1840,1871
1821,1847,1804
1863,1854,1839
1872,1883,1890
1884,1927,1894
1853,1839,1827
1847,1791,1804
1891,1862,1841
1898,1835,1870
1853,1856,1835
1856,1815,1829
1891,1849,1887
1891,1922,1871
1856,1904,1833
1872,1872,1830
1902,1851,1873
1903,1891,1870
1856,1841,1817
1858,1838,1831
1901,1849,1898
1904,1934,1899
1855,1867,1807
1842,1798,1796
1872,1810,1859
1936,1845,1842
1875,1883,1786
1866,1968,1869
1881,1872,1906
1872,1831,1856
1846,1808,1787
1843,1859,1826
1872,1891,1895
1887,1903,1893
1862,1866,1821
1866,1897,1817
1874,1901,1873
1867,1840,1856
1838,1837,1808
1854,1805,1827
1889,1840,1884
1901,1904,1887
1853,1793,1795
1852,1776,1805
1890,1841,1881
1901,1872,1892
1869,1867,1834
1872,1846,1803
1891,1831,1856
1904,1825,1846
1921,1799,1810
1843,1857,1859
1845,1937,1891
1851,1809,1870
1840,1815,1818
1872,1781,1835
1903,1834,1871
1879,1840,1853
1843,1799,1808
1860,1776,1819
1892,1839,1891
1887,1833,1874
1854,1807,1814
1872,1837,1799
1903,1883,1868
1891,1887,1906
1867,1777,1855
1868,1824,1835
1878,1831,1872
1887,1883,1891
1887,1869,1854
1898,1817,1820
1904,1802,1858
1869,1782,1853
1858,1824,1835
1874,1875,1843
1891,1923,1873
1867,1813,1869
1856,1843,1838
1873,1854,1836
1922,1881,1885
1899,1786,1873
1873,1776,1837
1873,1804,1829
1891,1835,1845
1914,1866,1842
1868,1844,1829
1897,1887,1852
1894,1885,1858
1895,1850,1854
1857,1818,1827
1834,1802,1840
1873,1852,1887
1904,1898,1871
1863,1914,1829
1859,1816,1822
1895,1755,1865
1886,1776,1840
1840,1789,1806
1860,1844,1842
1894,1893,1893
1886,1969,1883
1868,1904,1821
1861,1801,1803
1884,1893,1858
1887,1918,1871
1861,1840,1805
1858,1783,1808
1895,1767,1863
1900,1779,1869
1857,1851,1840
1890,1846,1840
1924,1862,1856
1863,1909,1874
1818,1835,1840
1851,1840,1845
1899,1920,1874
1881,1839,1870
1840,1802,1797
1852,1777,1826
1895,1947,1894
1903,1968,1881
1841,1809,1791
1847,1786,1801
1873,1867,1867
1886,1862,1871
1855,1777,1829
1867,1871,1835
1903,1906,1876
1916,1903,1872
1856,1753,1787
1823,1815,1773
1872,1870,1873
1897,1898,1895
1870,1875,1845
1858,1808,1814
1883,1835,1830
1853,1792,1855
1835,1867,1831
1867,1866,1837
1902,1851,1862
1897,1872,1854
1840,1801,1807
1845,1765,1821
1890,1797,1856
1894,1857,1871
1843,1904,1838
1836,1870,1813
1869,1807,1835
1875,1856,1841
1837,1898,1811
1846,1840,1819
1885,1874,1843
1893,1968,1857
1866,1844,1821
1872,1891,1841
1904,1856,1887
1900,1836,1870
1836,1790,1794
1855,1846,1810
1880,1854,1829
1874,1887,1852
1862,1920,1815
1886,1872,1810
1888,1877,1857
1856,1952,1874
1847,1872,1808
1858,1784,1817
1874,1776,1840
1888,1878,1867
1870,1918,1851
1865,1815,1835
1890,1825,1837
1865,1865,1840
1850,1884,1815
1890,1872,1810
1872,1947,1838
1869,1850,1837
1847,1884,1828
1866,1837,1846
1895,1810,1887
1874,1898,1850
1818,1861,1792
1830,1923,1801
1902,1829,1863
1877,1843,1841
1817,1872,1783
1830,1850,1809
1877,1922,1875
1895,1904,1871
1853,1814,1802
1865,1853,1797
1875,1934,1838
1883,1941,1841
1820,1749,1790
1836,1837,1825
1891,1843,1856
1897,1965,1863
1840,1849,1764
1841,1799,1793
1872,1850,1850
1872,1868,1874
1852,1898,1830
1843,1881,1796
1893,1939,1855
1872,1939,1877
1851,1851,1805
1865,1829,1795
1885,1966,1837
1863,1769,1871
1863,1773,1819
1834,1856,1808
1873,1981,1881
1906,1852,1872
1841,1938,1790
1850,1826,1776
1878,1796,1830
1842,1854,1863
1857,1904,1861
1855,1994,1855
1862,1863,1845
1854,1794,1823
1815,1808,1802
1847,1809,1827
1877,1890,1863
1873,1872,1840
1834,1874,1785
1857,1844,1808
1884,1853,1856
1873,1879,1858
1863,1895,1793
1847,1848,1798
1874,1857,1841
1869,1817,1857
1840,1983,1834
1824,1920,1823
1888,1795,1818
1839,1727,1836
1794,1756,1809
1836,1847,1814
1861,1923,1853
1867,1936,1858
1847,1830,1806
1859,1823,1793
1857,1837,1859
1844,1931,1841
1837,1846,1767
1860,1827,1787
1867,1855,1840
1862,1791,1855
1815,1847,1819
1829,1837,1821
1856,1853,1839
1886,1942,1831
1849,1876,1793
1828,1847,1809
1839,1811,1851
1838,1831,1857
1817,1903,1793
1830,1930,1802
1876,1840,1850
1863,1791,1840
1811,1822,1806
1840,1893,1819
1850,1866,1860
1845,1855,1858
1820,1883,1829
1861,1872,1808
1861,1859,1833
1838,1791,1843
1818,1820,1773
1831,1929,1825
1846,1872,1871
1840,1806,1851
1812,1805,1770
1840,1859,1834
1904,1945,1872
1877,1946,1872
1792,1863,1813
1793,1768,1789
1840,1850,1851
1862,1915,1856
1807,1874,1791
1813,1829,1808
1857,1862,1841
1850,1850,1863
1856,1855,1825
1819,1869,1820
1839,1904,1862
1853,1936,1879
1841,1861,1810
1859,1847,1806
1853,1840,1874
1825,1827,1840
1797,1820,1786
1840,1877,1781
1848,1871,1846
1830,1875,1864
1799,1920,1817
1843,1858,1801
1859,1840,1839
1855,1837,1870
1817,1934,1835
1812,1927,1831
1837,1789,1840
1840,1856,1842
1817,1863,1826
1831,1816,1827
1850,1809,1840
1838,1866,1820
1851,1920,1789
1840,1968,1808
1853,1884,1857
1824,1755,1825
1798,1785,1810
1858,1886,1833
1873,1878,1863
1856,1872,1817
1808,1810,1777
1808,1831,1811
1842,1844,1859
1855,1861,1856
1862,1911,1812
1872,2028,1837
1843,1808,1840
1835,1778,1843
1797,1823,1797
1813,1830,1793
1890,1895,1853
1870,1920,1867
1813,1893,1837
1824,1901,1825
1865,1855,1831
1841,1841,1836
1808,1855,1799
1830,1924,1818
1871,1920,1872
1851,1822,1843
1820,1776,1778
1847,1801,1823
1873,1869,1847
1882,1909,1844
1847,1872,1808
1840,1891,1797
1825,1867,1863
1829,1925,1882
1808,1937,1839
1823,1825,1821
1858,1790,1830
1856,1821,1833
1849,1839,1802
1869,1786,1809
1848,1846,1846
1818,1931,1852
1827,1901,1825
1859,1903,1805
1861,1863,1852
1851,1835,1868
1829,1849,1806
1863,1894,1811
1878,1936,1846
1851,1873,1831
1818,1830,1804
1840,1801,1834
1865,1807,1849
1866,1843,1856
1826,1945,1827
1840,1935,1812
1861,1793,1811
1840,1808,1835
1821,1846,1833
1851,1917,1841
1882,1936,1889
1872,1857,1849
1825,1778,1781
1853,1805,1820
1889,1888,1870
1861,1891,1856
1838,1937,1833
1877,1875,1850
1906,1815,1872
1869,1813,1841
1830,1826,1763
1821,1886,1835
1879,1834,1877
1866,1924,1885
1831,1936,1823
1849,1884,1822
1871,1858,1837
1874,1888,1860
1862,1874,1814
1864,1797,1810
1873,1855,1878
1862,1934,1886
1822,1862,1806
1853,1781,1831
1936,1904,1894
1873,1851,1859
1802,1891,1781
1846,1913,1845
1905,1823,1907
1891,1805,1859
1808,1805,1821
1830,1847,1842
1872,1873,1876
1879,1881,1897
1853,1897,1880
1858,1879,1840
1872,1831,1873
1872,1856,1875
1854,1900,1814
1906,1904,1824
1893,1903,1855
1858,1899,1882
1851,1776,1876
1860,1856,1827
1904,1893,1855
1930,1843,1840
1837,1848,1814
1825,1828,1810
1858,1841,1851
1872,1902,1893
1854,1936,1804
1857,1867,1783
1884,1776,1831
1883,1802,1877
1842,1861,1815
1871,1935,1837
1887,1905,1862
1887,1846,1893
1851,1835,1840
1859,1925,1847
1881,1877,1875
1873,1879,1878
1850,1846,1835
1866,1840,1819
1861,1842,1838
1862,1856,1869
1859,1821,1846
1895,1835,1855
1914,1927,1897
1904,1968,1895
1826,1875,1808
1855,1760,1837
1905,1814,1855
1884,1853,1877
1850,1845,1858
1867,1907,1861
1898,1913,1911
1897,1883,1872
1836,1876,1819
1838,1801,1830
1887,1808,1842
1874,1846,1854
1849,1850,1805
1860,1837,1829
1868,1962,1908
1863,1936,1871
1853,1861,1806
1878,1828,1796
1879,1839,1899
1870,1919,1872
1844,1920,1855
1859,1830,1807
1887,1803,1825
1874,1848,1841
1850,1885,1800
1881,1913,1845
1879,1892,1877
1849,1890,1861
1846,1819,1822
1883,1826,1828
1873,1901,1882
1861,1952,1883
1826,1790,1793
1860,1819,1818
1893,1903,1874
1855,1863,1865
1820,1834,1835
1855,1860,1817
1898,1918,1847
1888,1984,1906
1850,1854,1840
1858,1881,1844
1872,1904,1815
1874,1834,1872
1836,1808,1793
1840,1837,1853
1873,1981,1883
1868,1884,1857
1840,1783,1789
1869,1831,1815
1909,1918,1879
1920,1904,1846
1825,1856,1767
1829,1856,1835
1871,1917,1875
1878,1890,1926
1843,1852,1829
1838,1808,1808
1882,1861,1855
1870,1875,1846
1840,1840,1797
1862,1943,1809
1886,1935,1873
1891,1882,1872
1851,1857,1832
1857,1901,1818
1859,1909,1870
1845,1840,1827
1839,1824,1767
1852,1793,1773
1861,1863,1902
1893,1985,1883
1840,1873,1813
1840,1891,1834
1872,1872,1872
1878,1810,1823
1853,1872,1795
1863,1901,1811
1898,1874,1863
1879,1875,1844
1858,1872,1808
1872,1901,1774
1906,1914,1836
1891,1898,1826
1837,1851,1822
1848,1822,1827
1895,1854,1929
1924,1945,1906
1886,1910,1829
1867,1842,1839
1858,1850,1845
1856,1877,1855
1851,1909,1797
1856,1851,1809
1892,1905,1881
1874,1884,1865
1862,1947,1872
1847,1822,1791
1881,1792,1813
1871,1831,1829
1855,1877,1843
1865,1905,1839
1891,1955,1872
1903,1904,1883
1849,1844,1805
1855,1809,1776
1874,1874,1855
1883,1930,1883
1842,1834,1819
1861,1874,1813
1916,1933,1871
1878,1857,1814
1840,1835,1771
1872,1868,1830
1893,1877,1869
1849,1881,1788
1798,1849,1806
1855,1904,1871
1889,1931,1889
1875,1831,1829
1841,1886,1737
1871,1875,1831
1899,1787,1838
1873,1861,1840
1831,1857,1805
1840,1852,1801
1874,1866,1846
1879,1905,1869
1841,1872,1815
1866,1812,1791
1901,1884,1844
1856,1881,1850
1823,1822,1819
1872,1899,1822
1934,1981,1913
1889,1886,1887
1823,1823,1794
1836,1802,1775
1881,1845,1842
1883,1873,1857
1867,1882,1827
1871,1861,1823
1916,1907,1859
1869,1847,1833
1837,1841,1792
1857,1887,1818
1902,1936,1838
1920,1885,1860
1860,1821,1834
1856,1825,1851
1872,1911,1855
1789,1906,1853
1856,1841,1785
1915,1850,1837
1851,1855,1872
1862,1889,1867
1819,1887,1814
1862,1873,1801
1931,1921,1857
1920,1901,1865
1827,1813,1814
1897,1840,1815
1947,1914,1863
1921,1931,1893
1867,1874,1840
1840,1823,1779
1905,1822,1848
1868,1818,1875
1888,1867,1835
1894,1900,1815
1904,1923,1859
1891,1885,1857
1841,1919,1811
1863,1872,1808
1898,1808,1863
1920,1874,1871
1881,1894,1822
1895,1915,1829
1903,1903,1876
1930,1870,1871
1873,1842,1837
1870,1843,1813
1919,1911,1862
1855,1945,1863
1863,1878,1795
1910,1867,1814
1901,1891,1877
1894,1927,1885
1823,1840,1825
1874,1841,1822
1936,1877,1856
1891,1899,1873
1842,1837,1837
1862,1893,1833
1939,1858,1877
1863,1830,1863
1847,1853,1799
1861,1936,1840
1867,1875,1881
1886,1881,1861
1879,1882,1821
1845,1856,1823
1893,1859,1880
1902,1895,1872
1880,1786,1817
1872,1859,1819
1915,1955,1891
1872,1870,1861
1822,1842,1822
1904,1840,1843
1921,1909,1882
1911,1968,1856
1881,1968,1820
1840,1793,1835
1852,1813,1893
1926,1801,1870
1871,1830,1815
1883,1883,1840
1935,1888,1884
1883,1904,1871
1874,1865,1834
1847,1936,1840
1927,1935,1866
1882,1856,1862
1849,1808,1813
1863,1878,1831
1910,1873,1879
1903,1833,1872
1842,1835,1837
1834,1841,1840
1922,1859,1889
1894,1904,1898
1862,1943,1838
1853,1902,1849
1901,1873,1887
1863,1815,1868
1835,1860,1835
1883,1824,1822
1894,1871,1872
1920,1890,1861
1859,1871,1803
1873,1840,1835
1904,1829,1886
1872,1899,1885
1838,2070,1855
1842,1832,1808
1863,1751,1863
1897,1819,1871
1872,1843,1829
1859,1861,1831
1887,1893,1863
1895,1925,1862
1870,1872,1849
1879,1843,1852
1895,1913,1892
1904,1936,1876
1873,1834,1801
1813,1858,1808
1881,1904,1893
1901,1879,1899
1898,1798,1846
1883,1863,1843
1878,1922,1888
1911,1860,1867
1858,1860,1818
1833,1860,1820
1920,1906,1885
1859,1891,1890
1811,1839,1831
1846,1899,1835
1872,1893,1881
1906,1883,1877
1892,1874,1835
1838,1898,1822
1873,1891,1839
1906,1840,1879
1874,1803,1839
1942,1856,1837
1901,1968,1873
1914,1887,1863
1871,1859,1827
1867,1882,1838
1886,1799,1852
1851,1843,1866
1818,1872,1834
1850,1862,1855
1895,1904,1879
1871,1893,1858
1840,1856,1803
1841,1860,1824
1899,1936,1904
1893,1903,1920
1862,1904,1840
1918,1837,1827
1918,1867,1868
1873,1819,1872
1846,1827,1823
1829,1847,1821
1876,1920,1857
1907,1961,1821
1851,1833,1821
1868,1870,1873
1875,1872,1872
1874,1840,1843
1901,1840,1806
1895,1918,1840
1893,1895,1885
1808,1866,1863
1850,1765,1801
1858,1799,1813
1926,1920,1869
1872,1954,1882
1831,1860,1812
1843,1840,1810
1870,1837,1837
1883,1893,1871
1870,1834,1823
1868,1846,1854
1893,1936,1904
1875,1877,1872
1869,1845,1805
1872,1840,1818
1851,1872,1859
1866,2032,1847
1855,1946,1823
1856,1723,1826
1883,1781,1856
1880,1949,1851
1857,1922,1829
1883,1835,1829
1872,1805,1849
1881,1847,1850
1867,1984,1794
1860,1921,1813
1875,1807,1873
1863,1829,1867
1872,1840,1857
1892,1831,1834
1877,1920,1863
1858,1879,1876
1843,1789,1824
1871,1843,1828
1903,1857,1866
1923,1918,1881
1881,1942,1823
1847,1870,1814
1868,1813,1851
1887,1847,1859
1844,1840,1835
1866,1877,1829
1899,1872,1857
1882,1874,1875
1849,1806,1824
1872,1824,1808
1917,1843,1873
1902,1968,1871
1867,1945,1840
1878,1837,1824
1890,1798,1839
1875,1841,1856
1851,1872,1839
1853,1927,1827
1872,1872,1867
1877,1789,1859
1850,1809,1808
1887,1869,1809
1890,1934,1894
1870,1898,1904
1844,1819,1814
1862,1857,1815
1895,1831,1865
1892,1867,1850
1911,1850,1825
1833,1869,1834
1842,1895,1857
1865,1843,1859
1857,1814,1811
1873,1839,1817
1902,1874,1862
1882,1918,1857
1870,1925,1807
1871,1743,1858
1874,1801,1887
1869,1911,1863
1855,1943,1821
1886,1890,1829
1909,1809,1815
1887,1853,1855
1791,1806,1815
1818,1815,1835
1883,1846,1872
1893,1870,1856
1846,1902,1808
1854,1808,1822
1902,1815,1867
1878,1792,1858
1855,1875,1821
1875,1898,1818
1907,1950,1870
1879,1811,1872
1837,1776,1826
1873,1845,1807
1894,1870,1851
1854,1826,1844
1833,1843,1819
1856,1863,1859
1882,1847,1879
1840,1837,1830
1840,1830,1793
1856,1847,1818
1887,1827,1875
1897,1927,1869
1840,1894,1817
1859,1929,1849
1879,1894,1849
1869,1766,1839
1835,1728,1796
1851,1759,1821
1872,1856,1870
1877,1865,1871
1850,1898,1824
1871,1875,1808
1891,1857,1866
1874,1845,1851
1821,1850,1778
1853,1825,1811
1884,1882,1881
1930,1983,1895
1853,1901,1787
1842,1821,1808
1872,1828,1866
1858,1779,1841
1841,1793,1799
1881,1882,1810
1879,1904,1842
1868,1904,1872
1825,1798,1806
1841,1781,1817
1890,1839,1862
1904,1920,1883
1857,1898,1815
1889,1858,1806
1862,1842,1839
1849,1886,1883
1842,1892,1847
1888,1883,1840
1885,1853,1872
1866,1886,1871
1841,1809,1811
1852,1847,1806
1874,1841,1840
1882,1856,1870
1854,1867,1802
1849,1885,1825
1870,1933,1882
1858,1831,1868
1828,1782,1808
1854,1826,1803
1902,1936,1870
1879,1879,1887
1835,1808,1809
1829,1844,1795
1915,1915,1894
1904,1967,1899
1826,1872,1797
1822,1713,1793
1862,1821,1869
1879,1841,1915
1851,1901,1827
1840,1886,1802
1861,1863,1851
1862,1846,1866
1858,1786,1840
1858,1905,1842
1911,1929,1881
1875,1952,1883
1819,1811,1821
1825,1776,1815
1883,1837,1862
1903,1875,1861
1823,1843,1793
1823,1859,1833
1875,1891,1891
1877,1935,1857
1840,1786,1789
1853,1791,1819
1872,1889,1869
1864,1923,1869
1845,1894,1826
1859,1869,1823
1881,1932,1872
1877,1918,1847
1846,1815,1778
1856,1855,1813
1876,1911,1873
1859,1878,1876
1875,1776,1809
1872,1876,1826
1843,1947,1840
1849,1930,1875
1845,1895,1834
1838,1770,1827
1851,1808,1873
1858,1975,1883
1835,1942,1826
1838,1856,1802
1872,1855,1856
1881,1887,1862
1854,1877,1838
1852,1837,1823
1882,1861,1872
1883,1924,1890
1847,1905,1837
1830,1770,1798
1861,1823,1840
1873,1910,1899
1871,1931,1853
1856,1879,1824
1869,1899,1877
1860,1910,1882
1836,1869,1838
1843,1787,1829
1877,1815,1842
1872,1858,1861
1837,1853,1814
1849,1860,1823
1885,1919,1918
1870,1857,1910
1825,1840,1850
1849,1855,1817
1875,1861,1860
1866,1858,1865
1830,1853,1797
1850,1826,1838
1881,1920,1899
1863,1872,1881
1839,1778,1807
1840,1774,1809
1870,1822,1855
1882,1982,1877
1858,1911,1833
1856,1904,1837
1863,1835,1866
1888,1754,1861
1835,1802,1809
1845,1825,1810
1895,1921,1872
1877,1890,1904
1840,1877,1840
1858,1836,1840
1888,1869,1882
1872,1917,1861
1873,1841,1834
1870,1808,1830
1851,1805,1833
1866,1767,1862
1849,1819,1840
1857,1871,1830
1873,1887,1887
1874,1837,1886
1861,1838,1814
1847,1805,1825
1909,1959,1871
1876,1891,1883
1824,1827,1820
1855,1840,1835
1903,1884,1875
1891,1851,1863
1855,1776,1819
1871,1811,1850
1909,1891,1889
1878,1872,1872
1862,1820,1821
1859,1893,1815
1872,1884,1877
1873,1886,1874
1850,1766,1834
1877,1860,1809
1885,1892,1903
1872,1878,1891
1856,1904,1838
1871,1901,1835
1904,1813,1872
1887,1893,1870
1872,1918,1823
1875,1899,1835
1904,1869,1887
1915,1802,1885
1863,1899,1821
1863,1803,1807
1904,1920,1879
1879,1955,1903
1831,1856,1811
1839,1772,1805
1895,1841,1870
1895,1861,1863
1843,1856,1823
1867,1911,1863
1899,1943,1895
1877,1919,1845
1840,1733,1792
1867,1772,1822
1904,1817,1903
1916,2022,1878
1873,1935,1838
1852,1808,1811
1883,1805,1875
1870,1883,1886
1838,1899,1835
1869,1954,1827
1901,1843,1858
1882,1814,1853
1847,1920,1813
1870,2002,1851
1891,1872,1879
1871,1857,1853
1839,1778,1808
1853,1822,1823
1886,1823,1866
1872,1872,1853
1859,1904,1818
1881,1974,1840
1902,1872,1878
1883,1857,1873
1845,1899,1809
1862,1875,1791
1936,1886,1838
1883,1858,1879
1867,1892,1808
1856,1872,1838
1904,1872,1922
1891,1927,1902
1823,1869,1802
1844,1808,1815
1875,1831,1870
1874,1856,1857
1858,1904,1821
1883,2016,1843
1915,1920,1888
1881,1817,1872
1840,1783,1792
1863,1871,1817
1891,1887,1873
1896,1882,1858
1875,1904,1802
1880,1859,1837
1910,1883,1889
1883,1873,1876
1844,1869,1835
1874,1901,1845
1885,1997,1885
1877,1863,1872
1866,1721,1807
1871,1863,1837
1903,1904,1870
1881,1872,1853
1844,1890,1803
1862,1926,1822
1899,1887,1881
1894,1886,1860
1861,1871,1815
1866,1875,1842
1901,1887,1889
1877,1922,1868
1840,1856,1808
1874,1837,1809
1904,1830,1856
1890,1840,1878
1863,1968,1856
1867,1936,1855
1883,1862,1855
1879,1862,1830
1854,1829,1808
1879,1956,1857
1911,1906,1887
1909,1824,1862
1840,1766,1792
1855,1814,1805
1920,1878,1858
1881,1991,1869
1846,1896,1840
1847,1772,1849
1874,1861,1879
1872,1913,1893
1859,1922,1846
1867,1853,1819
1876,1827,1842
1887,1872,1850
1856,1808,1838
1858,1853,1850
1899,1893,1872
1903,1910,1887
1850,1911,1807
1836,1813,1793
1887,1872,1856
1886,1883,1873
1855,1824,1814
1872,1812,1815
1894,1915,1872
1904,1959,1872
1833,1853,1808
1846,1823,1818
1887,1823,1851
1889,1904,1856
1857,1859,1824
1871,1825,1838
1894,1990,1874
1906,1858,1850
1821,1759,1789
1859,1824,1797
1913,1823,1875
1875,1915,1855
1831,1872,1792
1851,1837,1837
1886,1865,1891
1893,1904,1866
1856,1869,1818
1868,1887,1828
1918,1889,1895
1872,1872,1867
1840,1874,1809
1859,1859,1808
1898,1851,1886
1887,1846,1867
1863,1847,1809
1871,1856,1817
1882,1865,1846
1876,1889,1851
1871,1862,1820
1873,1862,1805
1887,1853,1872
1886,1842,1893
1861,1904,1826
1878,1865,1819
1915,1887,1891
1883,1856,1885
1845,1882,1838
1859,1870,1837
1881,1877,1867
1872,1871,1854
1840,1878,1823
1866,1891,1856
1878,1799,1859
1881,1841,1845
1851,1872,1799
1850,1829,1814
1904,1872,1874
1923,1904,1873
1853,1902,1834
1872,1831,1854
1874,1838,1885
1875,1840,1886
1856,1884,1837
1866,1873,1840
1919,1903,1885
1920,2032,1881
1840,1835,1840
1839,1744,1820
1882,1790,1855
1888,1831,1878
1869,1872,1843
1873,1907,1840
1893,1923,1872
1894,1951,1870
1869,1808,1813
1890,1888,1840
1904,1776,1866
1885,1778,1857
1844,1826,1836
1865,1866,1840
1905,1873,1875
1903,1826,1918
1854,1891,1808
1867,1885,1827
1872,1870,1874
1867,1889,1887
1850,1899,1872
1865,1889,1847
1904,1845,1876
1885,1875,1841
1845,1862,1848
1873,1885,1857
1888,1861,1920
1877,1865,1841
1842,1820,1837
1847,1868,1837
1883,1851,1867
1890,1904,1881
1853,1861,1868
1859,1872,1841
1890,1934,1895
1873,1905,1899
1843,1856,1796
1859,1857,1811
1897,1953,1866
1889,1853,1843
1829,1777,1844
1850,1809,1808
1872,1839,1867
1873,1866,1829
1845,1868,1788
1878,1887,1782
1908,1881,1881
1904,1925,1885
1839,1902,1808
1862,1904,1827
1897,1862,1872
1890,1859,1867
1872,1929,1828
1872,1916,1799
1887,1866,1872
1883,1901,1875
1871,1930,1870
1861,1807,1798
1898,1813,1852
1885,1868,1869
1847,1825,1805
1871,1859,1808
1885,1891,1920
1898,1877,1840
1859,1930,1819
1862,1903,1822
1904,1863,1839
1894,1897,1904
1854,1831,1837
1878,1887,1826
1910,1981,1936
1906,2007,1904
1841,1788,1793
1847,1712,1758
1882,1814,1879
1893,1872,1857
1870,1903,1823
1894,1935,1834
1899,1946,1899
1868,1814,1872
1844,1826,1783
1883,1883,1808
1907,1993,1856
1890,1970,1925
1857,1840,1777
1869,1822,1821
1904,1818,1851
1893,1882,1858
1869,1840,1831
1877,1853,1867
1905,1902,1894
1870,1886,1879
1843,1895,1841
1861,1860,1824
1894,1936,1898
1893,1969,1864
1847,1872,1849
1857,1776,1842
1891,1782,1887
1903,1879,1871
1872,1979,1822
1862,1872,1799
1892,1856,1875
1911,1859,1888
1867,1815,1808
1860,1844,1786
1891,1935,1845
1901,1916,1877
1827,1863,1810
1856,1797,1744
1875,1854,1889
1873,1883,1869
1851,1914,1819
1865,1809,1878
1900,1920,1891
1886,1937,1877
1856,1869,1797
1871,1899,1811
1885,1818,1862
1885,1831,1873
1851,1872,1834
1879,1839,1811
1950,1859,1792
1887,1857,1835
1839,1899,1893
1840,1858,1873
1872,1893,1856
1904,1916,1941
1854,1872,1859
1844,1821,1825
1884,1842,1858
1898,1846,1871
1851,1863,1831
1856,1873,1854
1894,1833,1895
1887,1845,1825
1856,1859,1876
1889,1891,1887
1885,1897,1843
1871,1891,1904
1879,1898,1854
1865,1817,1850
1859,1822,1858
1872,1809,1895
1874,1843,1827
1894,1795,1847
1904,1884,1871
1853,1893,1926
1830,1829,1797
1863,1810,1827
1915,1951,1910
1907,1902,1876
1851,1872,1821
1843,1775,1808
1883,1821,1871
1901,1883,1841
1858,1842,1777
1854,1776,1806
1887,1828,1808
1885,1887,1902
1837,1841,1805
1873,1861,1782
1877,1898,1927
1862,1850,1847
1840,1841,1826
1882,1887,1827
1878,1835,1779
1854,1839,1855
1826,1867,1811
1861,1917,1871
1887,1945,1862
1867,1807,1859
1845,1723,1806
1867,1857,1817
1882,1913,1840
1867,1840,1874
1840,1795,1837
1854,1855,1851
1918,1950,1890
1886,1923,1849
1822,1808,1806
1827,1762,1825
1874,1944,1873
1867,1881,1853
1831,1746,1805
1840,1778,1814
1872,1835,1855
1859,1870,1872
1818,1863,1823
1840,1885,1824
1884,1957,1885
1885,1863,1862
1830,1782,1808
1862,1815,1808
1883,1886,1845
1873,1927,1876
1843,1844,1844
1843,1902,1839
1872,1839,1872
1872,1877,1858
1859,1807,1802
1872,1872,1834
1855,1909,1875
1856,1857,1863
1863,1808,1798
1844,1762,1792
1856,1862,1842
1840,2000,1901
1838,1973,1846
1818,1776,1806
1860,1735,1853
1826,1782,1861
1847,1904,1801
1857,1920,1803
1865,1953,1886
1841,1876,1883
1867,1783,1810
1838,1778,1795
1909,1814,1854
1870,1950,1876
1887,1886,1808
1850,1856,1803
1936,1957,1861
1878,1815,1869
1838,1779,1801
1865,1823,1806
1916,1869,1847
1902,1936,1896
