1901,1995,1985
1905,2003,1943
1862,1983,1910
1862,1979,1907
1888,2019,1954
1881,2005,1950
1841,1985,1921
1869,2000,1889
1909,2037,1930
1901,2031,1975
1867,1995,1913
1869,1994,1961
1888,2033,1950
1893,2039,1922
1858,1998,1900
1869,1996,1872
1908,2023,1910
1904,2019,1949
1859,1995,1893
1857,1984,1894
1890,2000,1954
1895,1995,1935
1851,1968,1867
1853,1957,1871
1886,1984,1933
1901,1990,1922
1868,1966,1905
1877,1957,1877
1907,1983,1968
1899,1984,1945
1859,1937,1874
1860,1923,1887
1902,1968,1946
1884,1963,1921
1826,1895,1831
1843,1885,1792
1910,1922,1933
1910,1936,1949
1857,1893,1861
1860,1875,1862
1892,1911,1891
1887,1977,1927
1847,1936,1919
1850,1825,1890
1887,1806,1907
1885,1839,1926
1839,1819,1878
1839,1844,1858
1883,1873,1872
1904,1955,1910
1851,1853,1847
1857,1786,1889
1885,1761,1944
1879,1825,1922
1840,2026,1903
1808,1858,1830
1861,1616,1904
1893,1621,1917
1852,1655,1821
1853,1676,1873
1863,1801,1881
1855,1744,1879
1827,1661,1839
1837,1641,1840
1871,1713,1892
1865,1815,1872
1840,1711,1823
1820,1647,1762
1844,1770,1852
1825,1648,1853
1771,1488,1776
1799,1520,1744
1857,1627,1883
1850,1729,1887
1776,1671,1737
1755,1561,1749
1789,1482,1845
1782,1427,1814
1744,1471,1718
1799,1520,1847
1837,1639,1886
1811,1459,1727
1684,1373,1711
1673,1392,1772
1742,1472,1820
1702,1458,1797
1678,1386,1794
1728,1392,1817
1680,1402,1765
1637,1359,1836
1616,1344,1770
1611,1396,1766
1647,1353,1752
1619,1317,1761
1553,1230,1687
1553,1166,1677
1584,1157,1712
1594,1216,1766
1574,1200,1770
1568,1230,1757
1584,1242,1754
1583,1227,1762
1535,1200,1744
1559,1192,1734
1584,1233,1808
1571,1249,1825
1513,1186,1723
1505,1201,1678
1591,1429,1746
1681,1535,1886
1584,950,1722
1535,883,1623
1531,1069,1767
1477,1195,1796
1478,1218,1767
1490,1197,1686
1530,1223,1740
1553,1231,1763
1488,1186,1742
1490,1177,1671
1564,1248,1762
1571,1298,1775
1503,1183,1694
1515,1178,1717
1535,1199,1791
1535,1275,1731
1515,1290,1712
1531,1347,1714
1535,1363,1797
1516,1245,1793
1482,1171,1691
1520,1221,1717
1571,1298,1758
1531,1318,1747
1467,1328,1680
1527,1369,1763
1599,1363,1840
1576,1349,1813
1516,1296,1743
1533,1323,1741
1582,1370,1785
1585,1415,1830
1535,1362,1750
1553,1358,1822
1595,1438,1833
1584,1477,1863
1554,1457,1722
1557,1475,1776
1603,1478,1808
1651,1513,1837
1623,1535,1754
1598,1561,1781
1595,1391,1840
1575,1397,1819
1520,1414,1774
1577,1581,1776
1627,1535,1817
1632,1514,1823
1616,1577,1798
1586,1526,1774
1616,1508,1797
1634,1535,1805
1600,1553,1739
1574,1584,1703
1673,1605,1846
1709,1637,1891
1651,1582,1830
1682,1559,1779
1718,1587,1806
1718,1618,1831
1662,1619,1727
1569,1621,1810
1616,1632,1909
1661,1670,1924
1643,1606,1804
1643,1617,1746
1675,1680,1808
1712,1713,1870
1667,1687,1776
1685,1661,1802
1755,1664,1844
1727,1696,1871
1611,1667,1830
1614,1739,1821
1685,1830,1879
1733,1771,1902
1703,1664,1803
1651,1611,1741
1741,1644,1783
1785,1709,1792
1665,1715,1783
1681,1697,1830
1685,1744,1891
1743,1776,1904
1697,1739,1790
1746,1742,1760
1748,1763,1825
1701,1790,1873
1670,1747,1827
1713,1747,1779
1715,1786,1821
1680,1803,1883
1635,1715,1821
1664,1712,1806
1721,1773,1839
1764,1803,1840
1769,1794,1765
1776,1771,1830
1703,1763,1898
1722,1782,1911
1667,1751,1785
1718,1775,1735
1769,1808,1833
1764,1807,1886
1734,1803,1837
1680,1770,1808
1680,1778,1851
1649,1796,1871
1725,1779,1777
1731,1783,1763
1714,1835,1855
1693,1862,1913
1669,1795,1792
1629,1754,1781
1698,1779,1856
1706,1814,1872
1675,1808,1807
1713,1809,1798
1750,1833,1849
1680,1840,1882
1680,1857,1819
1699,1808,1791
1726,1836,1831
1723,1831,1859
1682,1795,1797
1661,1797,1773
1794,1840,1840
1707,1858,1863
1665,1822,1853
1626,1799,1809
1699,1841,1853
1719,1841,1850
1746,1826,1814
1702,1811,1840
1766,1829,1879
1723,1850,1894
1722,1850,1821
1738,1803,1757
1740,1782,1787
1802,1793,1849
1724,1798,1839
1707,1815,1834
1776,1827,1853
1842,1829,1857
1735,1801,1835
1712,1808,1843
1699,1831,1844
1680,1813,1877
1679,1778,1835
1720,1775,1811
1774,1808,1855
1838,1797,1870
1733,1761,1794
1744,1744,1781
1758,1764,1825
1808,1781,1882
1765,1782,1856
1808,1773,1835
1774,1776,1856
1858,1806,1908
1719,1803,1766
1712,1712,1723
1783,1728,1824
1792,1755,1879
1751,1706,1783
1744,1711,1797
1792,1749,1867
1803,1779,1863
1708,1716,1771
1767,1693,1847
1803,1742,1869
1821,1760,1863
1744,1738,1806
1745,1671,1777
1796,1715,1872
1808,1728,1891
1745,1667,1777
1757,1679,1787
1803,1713,1856
1800,1735,1903
1835,1731,1845
1755,1681,1827
1803,1750,1885
1819,1744,1837
1734,1677,1770
1776,1680,1797
1837,1753,1879
1793,1752,1842
1778,1698,1805
1802,1673,1834
1764,1743,1874
1787,1762,1856
1766,1701,1822
1753,1715,1781
1759,1777,1813
1763,1756,1788
1728,1678,1766
1744,1759,1810
1793,1823,1884
1808,1715,1889
1763,1680,1808
1785,1724,1733
1812,1745,1813
1811,1725,1861
1777,1758,1814
1776,1762,1786
1799,1799,1809
1841,1784,1819
1738,1737,1783
1728,1748,1817
1802,1809,1847
1799,1804,1825
1840,1782,1724
1778,1783,1734
1683,1789,1842
1724,1776,1926
1718,1794,1807
1787,1840,1758
1767,1830,1808
1778,1808,1762
1791,1783,1733
1876,1797,1769
1765,1840,1863
1728,1875,1867
1682,1837,1761
1855,1819,1753
1897,1888,1797
1962,1951,1857
1810,1818,1781
1729,1811,1769
1712,1886,1797
1814,1918,1840
1744,1921,1799
1770,1958,1794
1843,1910,1825
1815,1927,1805
1790,1863,1781
1790,1861,1792
1827,1915,1803
1861,1963,1830
1831,1958,1808
1827,1937,1824
1894,1969,1872
1920,1997,1839
1899,1973,1809
1799,1955,1795
1905,1981,1840
1889,2022,1856
1806,1950,1823
1825,1950,1810
1893,2007,1874
1954,2032,1893
1929,1981,1856
1866,1979,1846
1867,1999,1888
1883,2034,1885
1868,1984,1815
1886,1985,1803
1927,2018,1867
1947,2032,1872
1938,1978,1841
1957,1968,1774
2000,2012,1846
2071,2021,1916
1904,1984,1871
1862,1973,1871
1875,2022,1926
1976,2043,1950
1882,1982,1846
1894,1975,1821
1951,2001,1872
1970,2011,1879
1904,1971,1839
1894,1968,1855
1980,2044,1917
2003,2023,1917
1934,1978,1819
2029,1991,1795
1981,2033,1868
1900,2046,1911
1943,2014,1906
1918,2011,1872
1958,2043,1868
2035,2063,1915
2018,2011,1853
1930,2007,1808
1945,2062,1909
1974,2083,1932
1967,2037,1840
1941,2055,1793
1981,2081,1866
2000,2087,1936
1959,2054,1859
1953,2067,1828
2000,2110,1891
2027,2103,1903
1971,2090,1867
1974,2087,1859
2009,2112,1910
2013,2118,1918
1968,2096,1845
1956,2079,1858
1984,2077,1877
1993,2107,1881
1959,2095,1859
1929,2078,1839
1978,2107,1862
2015,2117,1890
1957,2081,1843
1916,2021,1808
1963,2057,1878
1983,2059,1884
1930,2061,1791
1904,2058,1751
1930,2032,1834
1975,2043,1969
1919,2015,1863
1899,2018,1757
1941,2059,1840
1936,2032,1884
1909,2002,1831
1904,1984,1813
1936,2007,1883
1915,2032,1842
1883,2006,1782
1887,2009,1803
1946,1999,1852
1951,1982,1856
1872,1954,1762
1876,1956,1712
1915,1998,1751
1903,2001,1795
1878,1947,1819
1853,1919,1771
1889,1927,1774
1875,1883,1799
1812,1936,1712
1822,1951,1713
1879,1968,1779
1856,1931,1773
1805,1901,1728
1825,1895,1651
1841,1884,1747
1891,1886,1779
1793,1870,1754
1755,1899,1653
1808,1939,1724
1886,1961,1792
1849,1905,1735
1829,1891,1735
1907,1875,1753
1891,1892,1744
1865,1869,1653
1724,1874,1702
1710,1904,1853
1790,1933,1855
1922,1918,1737
1875,1903,1715
1789,1922,1747
1719,1936,1808
1720,1915,1763
1779,1907,1767
1870,1926,1814
1829,1917,1806
1759,1886,1759
1778,1909,1740
1867,1950,1840
1968,2025,1843
1904,1947,1731
1734,1878,1733
1673,1903,1844
1767,1949,1875
1838,1953,1802
1931,1951,1778
1836,1967,1854
1855,1992,1895
1809,1971,1841
1806,1954,1808
1859,1979,1842
1887,1997,1872
1889,1975,1813
1989,1965,1773
1892,2019,1875
1815,2021,1933
1858,2030,1877
1883,2004,1857
1917,2029,1910
1968,2034,1931
1897,2009,1862
1968,1978,1815
1891,2021,1914
1875,2047,1989
1872,2026,1893
1917,2039,1865
1985,2027,1916
2167,2090,1911
1995,2043,1797
1767,1997,1887
1846,2081,1993
1951,2065,2011
1937,2069,1908
1927,1983,1859
1963,2079,1931
1973,2077,1959
1930,2077,1919
1918,2021,1883
1963,2053,1940
1971,2098,1962
1927,2029,1888
1927,2072,1879
1969,2075,1934
1974,2067,1951
1914,2035,1886
1919,2038,1882
1982,2068,1952
1986,2083,1971
1936,2085,1901
1923,2015,1873
1956,2039,1925
1967,2096,1939
1920,2038,1889
1933,2086,1904
1968,2126,1951
1969,2130,1968
1929,2087,1907
1927,2091,1898
1954,2160,1951
1954,2132,1956
1905,2085,1878
1935,2160,1898
1983,2141,1962
1984,2176,1957
1939,2133,1909
1931,2081,1872
1969,2059,1910
1987,2118,1953
1963,2096,1923
1970,2067,1895
2025,2102,1936
2053,2110,1968
2035,2126,1904
2039,2096,1873
2099,2074,1927
2135,2098,1968
2117,2113,1909
2128,2002,1893
2189,2065,1935
2201,2109,1965
2170,2081,1919
2177,2062,1903
2231,2064,1937
2254,2112,1978
2224,2027,1918
2224,2021,1890
2270,2125,1934
2292,2096,1961
2242,2000,1891
2261,2032,1882
2294,2019,1927
2289,2075,1964
2256,1991,1920
2253,2071,1908
2294,2046,1946
2297,2096,1967
2245,2010,1905
2249,2032,1899
2285,2071,1941
2282,2032,1963
2254,2012,1917
2250,1984,1909
2281,2080,1952
2288,2105,1970
2255,2047,1926
2253,2074,1919
2287,2083,1967
2285,1985,1978
2255,1946,1923
2243,2032,1919
2278,2074,1968
2285,2061,1988
2237,2002,1923
2224,2020,1894
2289,2047,1961
2295,2061,1999
2250,2027,1954
2235,2005,1931
2273,2029,1973
2271,2031,1970
2235,1989,1927
2243,1991,1920
2281,2011,1961
2288,1991,1977
2247,2021,1934
2243,1936,1923
2276,1992,1967
2281,2031,1979
2237,1982,1925
2235,2015,1911
2258,1997,1955
2274,2017,1983
2242,2000,1936
2237,1936,1938
2257,1983,1971
2256,1982,1982
2227,1987,1951
2242,1929,1950
2268,1973,1949
2257,1959,1962
2215,1955,1921
2206,1936,1903
2253,1990,1978
2264,1979,1991
2222,1965,1945
2209,1958,1934
2245,1921,1978
2244,1951,1986
2198,1923,1921
2193,1933,1915
2242,1920,1978
2253,1968,2002
2209,1943,1941
2207,1968,1932
2246,1921,1950
2247,2055,1968
2219,1973,1953
2207,2010,1903
2223,1833,1948
2191,1827,1974
2182,1936,2021
2202,1922,1952
2193,1842,1949
2216,1831,2093
2164,1847,1979
2147,1802,1918
2180,1777,1968
2190,1857,1988
2181,1839,1933
2160,1904,1899
2138,1833,1973
2151,1876,1999
2127,1825,1927
2123,1897,1928
2159,1914,1963
2143,1823,1973
2112,1763,1942
2128,1769,2042
2146,1823,2032
2123,1838,2014
2078,1829,1923
2097,1792,1827
2137,1806,1872
2121,1840,1934
2070,1806,1931
2079,1811,1927
2115,1823,1957
2123,1822,1982
2089,1792,1920
2071,1787,1904
2114,1808,1951
2118,1824,1966
2069,1779,1903
2054,1773,1885
2095,1801,1950
2098,1813,1987
2066,1779,1917
2058,1770,1879
2057,1776,1919
2077,1781,1962
2061,1744,1920
2064,1744,1884
2079,1766,1927
2087,1803,1951
2074,1763,1879
2027,1730,1847
2023,1771,1934
2041,1795,1986
1999,1687,1898
2007,1683,1888
2045,1732,1927
2035,1745,1928
1997,1712,1871
1995,1728,1872
2030,1743,1903
2020,1727,1910
1968,1652,1858
1983,1731,1878
2044,1873,1950
2017,1795,1922
1965,1611,1945
1959,1615,1992
1974,1687,1771
1987,1726,1776
1952,1702,1790
1968,1723,1842
1989,1731,1887
1975,1691,1885
1943,1659,1833
1947,1668,1823
1959,1680,1844
1987,1719,1901
1952,1698,1889
1925,1665,1847
1936,1683,1853
1939,1702,1861
1935,1648,1840
1921,1635,1815
1938,1659,1846
1939,1668,1855
1885,1646,1797
1879,1643,1784
1945,1680,1857
1937,1671,1852
1895,1647,1805
1879,1632,1776
1917,1663,1833
1910,1678,1854
1877,1664,1819
1868,1651,1771
1911,1664,1820
1921,1678,1840
1851,1643,1776
1845,1642,1789
1885,1642,1817
1887,1663,1842
1851,1627,1791
1846,1641,1785
1884,1665,1820
1886,1680,1840
1849,1638,1770
1858,1661,1789
1886,1680,1835
1887,1666,1841
1833,1638,1787
1834,1664,1783
1891,1735,1859
1922,1694,1882
1854,1665,1808
1827,1562,1774
1868,1584,1809
1890,1645,1857
1857,1625,1817
1831,1616,1766
1893,1623,1827
1911,1663,1842
1856,1680,1834
1843,1667,1839
1885,1790,1884
1882,1678,1860
1827,1517,1776
1842,1611,1791
1890,1691,1843
1872,1658,1854
1821,1584,1779
1841,1600,1778
1876,1647,1890
1894,1670,1920
1872,1637,1846
1863,1590,1825
1915,1723,1814
1943,1658,1747
1830,1649,1804
1805,1687,1895
1857,1767,1923
1878,1701,1888
1835,1586,1797
1830,1591,1792
1872,1663,1869
1895,1715,1855
1826,1619,1794
1809,1628,1837
1906,1694,1862
1893,1649,1841
1790,1535,1755
1797,1555,1798
1893,1561,1856
1862,1606,1913
1776,1582,1827
1776,1563,1786
1835,1615,1846
1849,1616,1867
1811,1619,1826
1797,1605,1811
1794,1535,1797
1951,1648,1861
1968,1680,1711
1662,1456,1730
1681,1423,1920
1981,1562,1977
1822,1513,1650
1706,1441,1815
1769,1478,1907
1797,1554,1927
1776,1535,1857
1798,1511,1797
1827,1535,1871
1809,1574,1875
1763,1535,1861
1769,1515,1835
1796,1583,1881
1793,1535,1904
1753,1499,1793
1761,1481,1872
1787,1469,1897
1776,1511,1851
1757,1522,1845
1759,1517,1840
1791,1557,1906
1791,1506,1895
1750,1440,1819
1750,1458,1841
1776,1488,1889
1791,1437,1907
1887,1486,1849
1791,1502,1787
1671,1475,1825
1686,1452,1942
1745,1529,1926
1776,1520,1869
1734,1406,1918
1733,1415,1949
1715,1443,1893
1761,1479,1869
1744,1467,1816
1731,1443,1936
1700,1425,1889
1701,1456,1854
1765,1501,1926
1767,1514,1923
1743,1405,1846
1719,1430,1855
1744,1470,1925
1763,1535,1939
1725,1507,1853
1713,1444,1790
1749,1509,1905
1755,1493,1979
1710,1398,1823
1703,1465,1854
1744,1474,1839
1762,1424,1885
1742,1527,1902
1755,1520,1849
1775,1368,1922
1744,1431,1921
1683,1467,1856
1693,1434,1857
1743,1437,1878
1722,1489,1936
1697,1510,1838
1708,1459,1856
1755,1535,1901
1744,1563,1873
1709,1588,1902
1687,1458,1840
1735,1413,1896
1769,1517,1982
1731,1468,1837
1726,1436,1733
1705,1414,1817
1730,1479,1911
1791,1491,1930
1751,1449,1840
1723,1469,1815
1686,1462,1933
1723,1485,1882
1717,1472,1878
1724,1493,1914
1744,1534,1891
1742,1626,1866
1721,1635,1921
1728,1489,1962
1710,1456,1905
1711,1460,1900
1709,1454,1843
1742,1487,1955
1751,1503,1951
1730,1570,1856
1775,1578,1811
1714,1620,1914
1696,1553,1927
1710,1525,1870
1717,1581,1901
1771,1632,1856
1794,1661,1925
1719,1616,1871
1676,1553,1861
1730,1559,1936
1807,1603,1978
1717,1615,1897
1676,1518,1840
1734,1600,1920
1765,1642,1971
1702,1602,1840
1697,1605,1817
1746,1584,1891
1748,1562,1926
1683,1535,1879
1702,1600,1867
1777,1632,1936
1776,1638,1861
1713,1614,1813
1684,1604,1854
1701,1653,1929
1717,1707,1947
1699,1655,1910
1689,1667,1809
1781,1767,1963
1776,1651,2018
1691,1586,1872
1651,1510,1893
1711,1591,1858
1723,1633,1921
1720,1625,1895
1728,1629,1840
1746,1811,1914
1744,1666,1894
1728,1600,1809
1685,1589,1798
1728,1660,1893
1770,1657,1938
1678,1595,1900
1677,1664,1847
1738,1744,1895
1717,1710,1837
1686,1629,1808
1702,1684,1872
1764,1685,1903
1749,1754,1894
1697,1738,1841
1703,1648,1808
1744,1623,1869
1731,1698,1917
1707,1698,1882
1754,1826,1845
1725,1661,1832
1719,1648,1882
1701,1709,1869
1713,1644,1854
1740,1648,1925
1806,1761,1913
1755,1674,1819
1712,1647,1863
1698,1680,1879
1726,1729,1839
1726,1745,1831
1738,1710,1847
1763,1717,1840
1750,1781,1861
1712,1649,1824
1719,1648,1840
1770,1746,1931
1783,1799,1931
1738,1675,1861
1728,1686,1805
1765,1726,1821
1780,1717,1893
1757,1771,1840
1739,1727,1808
1775,1775,1858
1798,1808,1872
1756,1810,1829
1752,1883,1856
1770,1703,1884
1776,1642,1843
1746,1664,1791
1766,1766,1814
1801,1808,1882
1824,1860,1885
1745,1839,1827
1722,1857,1798
1744,1764,1813
1783,1744,1857
1769,1765,1853
1774,1775,1846
1781,1859,1840
1775,1882,1856
1729,1791,1790
1755,1745,1793
1798,1792,1845
1799,1825,1859
1759,1840,1834
1771,1850,1824
1862,1893,1858
1807,1886,1865
1683,1761,1767
1715,1764,1781
1840,1923,1861
1856,1881,1831
1804,1856,1804
1793,1793,1797
1803,1859,1830
1824,1926,1872
1766,1872,1809
1803,1763,1787
1797,1787,1838
1808,1919,1834
1793,1909,1810
1783,1877,1787
1839,1899,1819
1841,1923,1839
1808,1928,1793
1789,1971,1774
1797,2032,1858
1814,1914,1865
1764,1771,1815
1765,1818,1758
1815,1925,1831
1835,1955,1872
1836,1914,1839
1802,1891,1793
1841,1983,1843
1853,1969,1841
1763,1986,1771
1819,2028,1798
1831,1990,1853
1850,1872,1828
1817,1887,1747
1802,1869,1758
1842,1953,1845
1857,2023,1883
1842,2027,1803
1792,1953,1738
1820,1949,1840
1872,2019,1883
1838,2015,1776
1815,1979,1775
1843,2000,1866
1867,1960,1865
1838,2044,1779
1791,1978,1793
1840,1926,1819
1814,1993,1844
1835,1984,1799
1855,2007,1814
1871,2091,1849
1857,2128,1799
1822,1883,1751
1846,1840,1753
1877,1938,1801
1867,2031,1840
1831,2071,1817
1849,1995,1785
1856,2026,1823
1873,2015,1866
1834,2000,1799
1853,2004,1731
1875,2031,1780
1825,1978,1850
1840,2017,1807
1827,2032,1792
1871,2028,1845
1907,2117,1872
1934,2038,1823
1802,1904,1742
1809,1963,1758
1894,2029,1846
1878,1970,1843
1878,2119,1797
1885,2043,1776
1889,2011,1837
1808,1965,1806
1819,1971,1794
1836,2000,1835
1910,2064,1877
1865,2018,1814
1903,1990,1782
1894,2064,1829
1887,1999,1849
1852,1962,1819
1872,2178,1820
1903,2128,1830
1861,1954,1808
1771,1872,1767
1859,1973,1789
1861,2114,1818
1935,2068,1866
1780,1979,1807
1823,1943,1794
1839,1983,1813
1936,2111,1865
1856,2023,1821
1821,1971,1798
1870,1945,1834
1874,1966,1843
1857,1999,1796
1858,2032,1750
1936,2012,1807
1904,2007,1875
1872,2046,1826
1823,2118,1781
1892,1999,1859
1907,1863,1862
1853,2009,1814
1874,1983,1781
1923,1935,1801
1919,2007,1845
1874,2000,1835
1877,1985,1834
1917,1986,1823
1967,2005,1841
1913,2022,1808
1950,2042,1764
1883,2002,1808
1919,1991,1874
1882,1990,1857
1904,1942,1808
1867,2011,1842
1950,2053,1882
1939,1968,1825
1871,1966,1790
1908,1968,1841
1919,2032,1852
1872,1994,1795
1903,1956,1809
1936,2083,1861
1901,1990,1840
1885,1955,1829
1904,1931,1804
1926,1961,1856
1953,2015,1881
1899,2002,1839
1881,1964,1754
1936,1961,1846
1957,1959,1872
1913,1995,1814
1903,2029,1823
1901,1965,1839
1941,2055,1874
1883,2018,1840
1904,1914,1811
1979,1949,1841
1936,1962,1895
1869,1951,1840
1883,1966,1809
1869,2035,1856
1930,2045,1856
1846,1907,1799
1920,1920,1806
1924,2000,1878
1926,2126,1883
1951,1934,1821
1819,1812,1779
1931,1958,1826
1951,2032,1872
1919,2032,1830
1907,1961,1797
1885,1900,1821
1895,1965,1864
1917,1963,1867
1904,1927,1822
1920,1993,1857
1936,1967,1891
1917,1934,1831
1911,1959,1797
1931,2007,1872
1947,1969,1893
1904,1936,1842
1888,1899,1770
1922,1970,1824
1941,1987,1861
1906,2000,1840
1899,1824,1806
1936,1879,1863
1958,1977,1886
1911,2014,1819
1922,1968,1855
1936,1954,1831
1929,1920,1866
1915,1920,1819
1903,1905,1810
1931,1917,1887
1929,1942,1901
1894,1952,1840
1919,1974,1826
1936,1967,1863
1938,1966,1920
1909,1893,1840
1904,1926,1840
1952,2013,1909
1946,2000,1903
1904,2005,1814
1890,1906,1789
1927,1874,1846
1937,1808,1888
1916,1926,1833
1919,2000,1825
1939,1915,1837
1972,1953,1901
1906,1949,1863
1890,1948,1828
1904,1883,1834
1936,1972,1872
1927,1975,1850
1955,1968,1905
1968,2009,1887
1936,1910,1840
1883,1871,1778
1883,1872,1809
1925,1919,1872
1973,1994,1920
1926,2071,1837
1872,1907,1808
1894,1841,1875
1926,1933,1922
1917,1902,1866
1904,1868,1808
1954,1919,1910
1937,2000,1916
1867,1884,1771
1893,1891,1793
1948,1920,1880
1938,1937,1906
1908,1920,1847
1913,1893,1843
1965,2045,1903
1936,1998,1904
1887,1838,1840
1900,1897,1821
1935,1875,1863
1955,1953,1890
1953,1919,1855
1895,1874,1813
1915,1931,1843
1946,1938,1887
1932,1957,1845
1917,1901,1840
1927,1872,1861
1941,1889,1891
1919,1901,1850
1914,1903,1803
1915,1915,1861
1915,1904,1887
1889,1921,1848
1895,1889,1813
1951,1910,1889
1938,1958,1918
1906,1871,1825
1887,1802,1807
1920,1883,1819
1910,1933,1888
1873,1950,1831
1872,1868,1825
1935,1888,1855
1937,1936,1887
1897,1958,1841
1894,1905,1825
1934,1936,1873
1947,1869,1882
1869,1835,1851
1917,1856,1822
1919,1819,1853
1883,1968,1864
1859,1935,1844
1873,1863,1807
1913,1915,1841
1926,1900,1891
1901,1911,1861
1885,1894,1797
1916,1866,1842
1909,1927,1890
1889,1890,1856
1903,1977,1830
1931,1997,1859
1919,1906,1870
1840,1760,1791
1855,1813,1782
1910,1906,1858
1910,1935,1875
1888,1909,1863
1903,1872,1791
1906,1961,1837
1877,1815,1898
1881,1928,1857
1890,1840,1802
1925,1882,1866
1910,1901,1827
1838,1841,1834
1850,1861,1863
1931,1995,1891
1893,1866,1835
1847,1789,1788
1854,1802,1835
1920,1968,1885
1966,2045,1874
1871,1859,1808
1833,1756,1776
1895,1809,1846
1927,1867,1905
1926,1949,1833
1855,1954,1811
1826,1823,1808
1856,1841,1874
1866,1870,1869
1867,1887,1841
1905,1961,1859
1884,1985,1823
1852,1886,1787
1856,1809,1823
1872,1820,1860
1892,1936,1867
1870,1945,1808
1855,1878,1803
1886,1911,1866
1906,1947,1902
1865,1857,1769
1840,1853,1779
1872,1879,1871
1911,1893,1894
1845,1782,1797
1795,1707,1749
1850,1901,1799
1887,1897,1882
1854,1856,1860
1840,1843,1826
1875,1867,1856
1877,1866,1855
1861,1946,1809
1855,1915,1809
1897,1936,1883
1875,1743,1872
1828,1766,1808
1817,1872,1735
1870,1878,1868
1888,1895,1899
1878,1808,1837
1840,1802,1783
1853,1908,1823
1863,1933,1872
1835,1874,1857
1845,1783,1835
1888,1841,1886
1890,1914,1896
1809,1843,1783
1808,1829,1750
1867,1889,1839
1903,1875,1906
1913,1894,1872
1830,1896,1779
1814,1889,1847
1822,1807,1885
1811,1770,1796
1836,1755,1808
1874,1840,1872
1879,1870,1907
1840,1930,1833
1842,1903,1831
1872,1885,1862
1872,1899,1867
1845,1899,1841
1840,1830,1798
1882,1885,1840
1901,1849,1858
1856,1879,1799
1845,1895,1771
1869,1766,1824
1888,1845,1872
1840,1803,1845
1826,1853,1797
1870,1913,1834
1893,1909,1886
1867,1881,1859
1863,1867,1844
1855,1936,1835
1858,1948,1864
1840,1819,1824
1837,1783,1804
1869,1858,1827
1869,1907,1855
1847,1951,1839
1850,1795,1805
1856,1797,1840
1872,1866,1886
1847,1922,1840
1848,1981,1793
1876,1789,1856
1869,1819,1858
1849,1878,1806
1845,1893,1809
1905,1988,1875
1914,2000,1894
1865,1912,1762
1808,1709,1766
1846,1806,1914
1867,1840,1925
1847,1894,1834
1845,1881,1808
1891,1869,1873
1899,1911,1907
1840,1920,1821
1832,1859,1776
1871,1920,1838
1883,1856,1862
1850,1856,1845
1839,1877,1837
1889,1897,1895
1904,1959,1903
1840,1856,1797
1835,1842,1790
1872,1867,1837
1882,1929,1887
1872,1916,1815
1867,1866,1798
1856,1825,1894
1870,1890,1933
1840,1931,1882
1843,1965,1845
1870,1950,1850
1879,1858,1839
1862,1926,1828
1872,1874,1840
1882,1830,1915
1888,1855,1926
1851,1929,1839
1814,1874,1764
1881,1916,1859
1895,1907,1903
1853,1907,1840
1840,1856,1813
1898,1893,1869
1927,1983,1909
1855,1863,1848
1821,1803,1827
1860,1867,1863
1891,1883,1920
1872,1926,1848
1872,1997,1815
1860,1840,1846
1875,1795,1886
1859,1861,1840
1868,1921,1867
1891,1872,1883
1899,1939,1891
1879,1927,1840
1854,1825,1804
1869,1904,1845
1919,1903,1909
1904,1810,1824
1825,1818,1776
1856,1911,1838
1872,1905,1910
1840,1967,1875
1841,1844,1840
1899,1853,1871
1904,1952,1889
1857,1966,1837
1846,1855,1822
1904,1805,1859
1931,1893,1854
1872,1891,1814
1815,1859,1821
1840,1762,1878
1879,1933,1938
1869,1934,1870
1819,1910,1792
1875,1824,1863
1920,1882,1954
1898,1955,1840
1841,1883,1776
1861,1846,1833
1877,1835,1878
1872,1830,1840
1918,1882,1835
1906,2016,1863
1845,1923,1874
1824,1849,1883
1854,1876,1869
1907,1853,1855
1958,1974,1868
1839,1840,1823
1803,1796,1849
1872,1861,1873
1872,1883,1846
1862,1907,1826
1844,1951,1833
1833,1812,1840
1849,1849,1898
1856,1919,1909
1849,1950,1810
1873,1834,1825
1929,1993,1879
1827,1905,1847
1808,1762,1831
1878,1794,1873
1906,1936,1883
1840,1915,1809
1795,1819,1795
1879,1855,1886
1898,1933,1887
1827,1926,1830
1836,1885,1826
1889,1816,1878
1846,1973,1882
1808,1831,1795
1831,1778,1809
1919,1907,1920
1934,2003,1854
1795,1809,1800
1778,1822,1804
1840,1811,1845
1873,1840,1911
1887,1827,1859
1853,1907,1754
1831,1868,1801
1850,1855,1893
1968,2029,1919
1823,1921,1712
1751,1718,1795
1808,1755,1898
1840,1855,1951
1847,1984,1839
1840,1838,1761
1834,1827,1802
1829,1808,1811
1815,1847,1807
1853,1840,1840
1882,1919,1915
1901,2035,1833
1859,2003,1759
1797,1837,1829
1856,1794,1927
1837,1838,1835
1798,1826,1790
1814,1809,1831
1870,1898,1875
1920,1985,1865
1779,1817,1776
1774,1725,1834
1840,1808,1883
1833,1837,1883
1831,1870,1858
1850,1894,1843
1842,1909,1805
1810,1832,1761
1843,1808,1760
1879,1922,1849
1866,1855,1931
1820,1863,1883
1816,1905,1863
1914,2027,1909
1929,2123,1807
1745,1758,1779
1747,1698,1840
1815,1745,1840
1838,1767,1870
1928,1829,1860
1877,1931,1743
1747,1808,1807
1779,1803,1913
1806,1836,1873
1813,1831,1817
1847,1910,1849
1859,1933,1897
1866,1923,1877
1808,1878,1753
1804,1711,1806
1826,1796,1854
1827,1870,1847
1899,1888,1902
1902,1966,1864
1787,1793,1855
1750,1742,1782
1791,1808,1776
1858,1843,1849
1866,1877,1884
1876,1988,1840
1872,1934,1777
1773,1705,1792
1785,1735,1911
1807,1787,1854
1823,1838,1808
1951,1877,1887
1873,1954,1892
1761,1815,1815
1771,1787,1802
1847,1824,1863
1882,1856,1905
1851,1860,1890
1871,1872,1859
1849,1870,1808
1825,1833,1803
1820,1825,1803
1858,1840,1822
1873,1834,1886
1870,1906,1949
1839,1879,1948
1834,1906,1827
1866,1914,1821
1878,1870,1856
1849,1810,1840
1833,1797,1855
1868,1895,1927
