1808,1819,1843
1783,1833,1882
1836,1829,1859
1808,1828,1814
1845,1841,1835
1886,1855,1872
1853,1824,1842
1807,1794,1826
1825,1819,1847
1849,1843,1861
1817,1819,1836
1793,1810,1824
1830,1825,1854
1853,1822,1879
1830,1825,1857
1803,1774,1821
1821,1807,1850
1847,1829,1872
1818,1779,1837
1856,1750,1813
1854,1793,1835
1850,1840,1857
1774,1818,1835
1767,1781,1811
1852,1799,1842
1826,1831,1869
1818,1782,1809
1734,1744,1787
1801,1792,1847
1911,1829,1891
1828,1806,1854
1824,1777,1818
1811,1799,1841
1856,1836,1872
1858,1817,1843
1764,1763,1807
1806,1781,1839
1854,1808,1870
1841,1807,1846
1807,1772,1808
1842,1781,1833
1905,1808,1857
1847,1794,1834
1811,1769,1819
1839,1782,1851
1883,1807,1879
1791,1797,1845
1803,1761,1821
1859,1753,1844
1859,1790,1874
1830,1802,1841
1808,1758,1808
1751,1778,1840
1871,1818,1879
1761,1767,1856
1808,1730,1820
1821,1744,1829
1846,1776,1861
1843,1771,1855
1815,1744,1828
1811,1759,1848
1904,1781,1867
1845,1761,1827
1821,1730,1805
1850,1758,1861
1855,1782,1883
1818,1767,1834
1806,1728,1815
1855,1741,1846
1831,1768,1856
1819,1764,1837
1799,1723,1808
1840,1744,1840
1847,1793,1874
1822,1757,1845
1808,1734,1818
1840,1745,1836
1858,1774,1867
1822,1746,1839
1805,1719,1809
1831,1743,1835
1850,1773,1869
1821,1747,1813
1812,1728,1818
1829,1749,1840
1854,1776,1866
1825,1746,1830
1816,1731,1808
1827,1738,1825
1844,1761,1859
1842,1757,1859
1822,1749,1835
1840,1750,1850
1845,1776,1860
1822,1757,1829
1811,1712,1809
1835,1730,1833
1851,1766,1855
1827,1760,1852
1809,1727,1840
1840,1730,1845
1865,1764,1870
1838,1747,1861
1808,1730,1838
1831,1744,1845
1856,1763,1871
1843,1746,1849
1829,1726,1844
1843,1744,1855
1856,1787,1865
1841,1739,1839
1819,1706,1824
1840,1738,1853
1866,1771,1904
1808,1733,1827
1833,1727,1839
1871,1729,1873
1885,1775,1898
1842,1765,1853
1815,1712,1824
1841,1728,1856
1872,1774,1888
1855,1747,1853
1837,1723,1826
1854,1744,1853
1879,1760,1879
1856,1741,1850
1828,1717,1808
1862,1750,1847
1879,1793,1899
1842,1759,1866
1828,1698,1827
1854,1723,1853
1877,1763,1883
1851,1747,1861
1840,1723,1843
1859,1755,1869
1875,1785,1873
1851,1757,1851
1842,1728,1818
1860,1754,1861
1887,1776,1879
1869,1749,1853
1843,1728,1840
1863,1778,1873
1882,1793,1891
1854,1763,1856
1840,1733,1840
1874,1735,1867
1892,1773,1898
1871,1762,1875
1854,1742,1843
1865,1755,1855
1894,1776,1869
1855,1761,1826
1826,1738,1803
1889,1778,1877
1910,1808,1927
1874,1795,1887
1849,1791,1844
1872,1771,1856
1890,1793,1877
1884,1776,1870
1877,1790,1861
1895,1791,1878
1911,1815,1881
1887,1809,1858
1856,1779,1830
1881,1775,1841
1902,1796,1894
1866,1789,1868
1861,1780,1843
1902,1819,1873
1904,1819,1892
1881,1792,1870
1863,1778,1847
1902,1809,1879
1913,1821,1908
1877,1792,1871
1857,1811,1838
1882,1811,1870
1893,1817,1878
1857,1807,1840
1858,1811,1843
1899,1823,1910
1910,1836,1911
1879,1817,1858
1839,1780,1798
1857,1798,1806
1924,1851,1921
1895,1836,1904
1863,1815,1847
1881,1841,1867
1909,1872,1881
1876,1829,1841
1856,1821,1814
1881,1811,1847
1889,1809,1869
1890,1829,1884
1870,1839,1847
1877,1840,1861
1892,1841,1881
1872,1837,1843
1852,1805,1813
1871,1833,1847
1890,1846,1874
1863,1815,1837
1867,1792,1819
1876,1808,1824
1904,1825,1871
1872,1831,1853
1859,1824,1838
1881,1802,1844
1891,1807,1858
1859,1783,1830
1847,1770,1808
1863,1774,1807
1887,1809,1863
1872,1747,1853
1843,1808,1808
1868,1795,1819
1876,1810,1841
1854,1744,1822
1847,1766,1803
1881,1765,1835
1888,1781,1869
1859,1845,1837
1846,1777,1799
1859,1785,1819
1872,1773,1841
1855,1733,1845
1845,1766,1827
1863,1829,1842
1886,1767,1853
1856,1783,1823
1843,1753,1801
1858,1779,1831
1879,1801,1854
1865,1815,1839
1843,1811,1817
1869,1763,1838
1883,1759,1860
1853,1776,1824
1833,1782,1808
1871,1776,1838
1894,1808,1870
1858,1782,1845
1836,1769,1810
1868,1792,1840
1883,1827,1872
1862,1783,1838
1845,1735,1810
1858,1806,1848
1901,1790,1888
1879,1869,1842
1866,1814,1818
1888,1776,1847
1911,1786,1870
1885,1791,1840
1866,1833,1827
1881,1815,1856
1907,1818,1892
1878,1761,1835
1861,1763,1809
1879,1795,1847
1915,1851,1873
1895,1816,1846
1881,1792,1826
1914,1897,1875
1927,1908,1925
1909,1870,1907
1869,1679,1811
1881,1711,1823
1911,1782,1873
1893,1793,1859
1882,1834,1840
1909,1792,1858
1924,1855,1888
1881,1791,1862
1885,1776,1827
1913,1813,1859
1927,1872,1870
1895,1834,1851
1892,1781,1860
1920,1841,1889
1933,1854,1903
1893,1830,1837
1886,1832,1820
1927,1851,1856
1951,1881,1884
1916,1874,1859
1898,1835,1834
1920,1855,1869
1936,1845,1907
1902,1787,1871
1897,1853,1840
1920,1808,1872
1936,1841,1904
1907,1878,1871
1893,1814,1842
1891,1805,1838
1922,1811,1869
1920,1846,1878
1914,1847,1874
1920,1821,1890
1925,1927,1904
1904,1843,1862
1900,1839,1843
1921,1840,1873
1933,1871,1901
1892,1922,1851
1898,1783,1857
1915,1850,1881
1940,1867,1897
1911,1838,1867
1891,1820,1851
1913,1870,1872
1949,1884,1896
1921,1811,1888
1879,1777,1851
1904,1797,1857
1930,1828,1873
1909,1808,1862
1876,1845,1834
1902,1809,1852
1936,1843,1923
1898,1821,1863
1872,1749,1836
1886,1777,1873
1915,1885,1892
1902,1841,1852
1882,1735,1840
1904,1845,1870
1923,1815,1897
1887,1727,1861
1875,1737,1834
1905,1767,1858
1919,1809,1883
1886,1816,1840
1875,1782,1841
1899,1840,1867
1920,1792,1877
1891,1793,1844
1872,1799,1824
1901,1843,1846
1920,1813,1871
1902,1808,1867
1885,1793,1851
1894,1815,1866
1914,1841,1872
1879,1755,1850
1871,1769,1829
1891,1783,1845
1911,1841,1874
1872,1840,1840
1863,1776,1825
1883,1817,1845
1904,1824,1862
1878,1805,1840
1861,1802,1815
1875,1791,1841
1906,1838,1870
1887,1761,1842
1866,1744,1818
1889,1835,1843
1904,1902,1872
1871,1839,1841
1865,1759,1821
1898,1790,1849
1898,1859,1857
1874,1873,1843
1868,1926,1831
1874,1755,1839
1906,1783,1869
1889,1774,1840
1872,1802,1818
1892,1789,1847
1893,1840,1867
1861,1824,1837
1861,1765,1814
1883,1756,1839
1901,1793,1859
1882,1786,1839
1878,1790,1831
1904,1810,1859
1916,1827,1878
1879,1813,1842
1872,1826,1824
1905,1799,1851
1936,1830,1878
1906,1843,1857
1877,1777,1829
1914,1819,1867
1921,1808,1872
1886,1762,1831
1877,1751,1829
1907,1801,1872
1922,1843,1887
1901,1845,1853
1877,1798,1846
1899,1809,1862
1927,1892,1895
1904,1861,1872
1895,1913,1855
1918,1824,1862
1935,1758,1879
1899,1727,1855
1897,1782,1843
1931,1867,1885
1951,1998,1923
1905,1773,1843
1905,1664,1826
1958,1728,1879
2031,1942,2000
2032,2006,1996
1964,1873,1808
1867,1931,1775
1965,2029,1942
2085,1712,2022
1946,1535,1803
1785,1721,1689
1776,1776,1749
1774,1594,1743
1808,1665,1790
1914,1792,1868
1905,1744,1855
1796,1600,1783
1843,1710,1751
1981,2160,1839
1920,1769,1821
1862,1466,1795
1904,1526,1777
1845,1584,1843
1824,1693,1856
1805,1723,1808
1862,1873,1844
1963,1904,1981
1904,1999,1995
1703,1587,1792
1647,1369,1668
1730,1535,1744
1835,1906,1838
1845,1792,1799
1776,1757,1794
1743,1681,1793
1899,1678,1803
1843,1490,1709
1645,1464,1808
1714,1845,1845
1840,1899,1743
1710,1509,1758
1617,1535,1851
1677,1625,1795
1732,1754,1767
1749,1893,1797
1759,1904,1803
1726,1716,1819
1722,1486,1791
1691,1651,1677
1768,1787,1646
1728,1973,1757
1638,1936,1814
1644,1633,1687
1637,1534,1789
1713,1871,1773
1731,1936,1751
1703,1904,1719
1691,2018,1753
1623,1904,1875
1639,1847,1862
1663,2134,1696
1618,1866,1632
1707,1966,1719
1755,2117,1807
1618,1982,1744
1633,1930,1733
1682,1861,1786
1649,1957,1785
1659,2097,1792
1731,2177,1858
1724,2160,1824
1723,1960,1823
1706,1961,1710
1680,2111,1618
1642,2150,1697
1693,2134,1786
1645,2103,1764
1617,2201,1738
1682,2416,1786
1707,2219,1802
1671,2215,1731
1664,2471,1690
1678,2313,1763
1666,2269,1772
1680,2374,1907
1686,2479,1698
1694,2530,1689
1694,2598,1746
1673,2526,1699
1653,2580,1745
1679,2670,1816
1710,2756,1792
1664,2559,1737
1661,2547,1780
1723,2738,1883
1698,2594,1744
1661,2492,1669
1681,2543,1776
1700,2587,1970
1681,2559,1774
1664,2598,1590
1669,2541,1667
1730,2530,1803
1760,2553,1806
1693,2655,1793
1638,2483,1747
1677,2351,1753
1722,2351,1787
1729,2415,1794
1712,2466,1792
1728,2455,1784
1744,2385,1826
1699,2352,1836
1712,2414,1803
1793,2353,1856
1768,2405,1829
1686,2212,1723
1712,2291,1755
1771,2321,1827
1799,2239,1867
1776,2269,1846
1731,2227,1791
1751,2306,1807
1906,2385,1945
1919,2261,1986
1711,2224,1803
1648,2041,1668
1693,2017,1734
1744,2031,1747
1828,2055,1839
1878,2149,1904
1898,2201,1971
1875,2096,2013
1874,2096,1943
1872,2055,1871
1920,1931,1902
1828,1979,1853
1856,2073,1842
1951,2109,1899
1863,1963,1847
1808,1791,1829
1783,1643,1734
2007,1923,1936
2159,2119,2121
1899,2413,1856
1856,1658,1606
1847,1314,1638
1691,1420,1717
1733,1586,1821
1856,1675,1891
1947,1727,1930
1808,1712,1810
1717,1595,1630
1821,1582,1773
1984,1614,1935
1904,1713,1872
1728,1445,1689
1744,1377,1667
1840,1514,1790
1826,1629,1773
1747,1406,1648
1910,1385,1779
2096,1520,2020
1778,1467,1763
1571,1458,1488
1664,1661,1593
1719,1213,1622
1774,1151,1712
1812,1264,1721
1804,1353,1737
1872,1429,1840
1819,1456,1854
1799,1646,1702
1821,1336,1503
1667,1143,1616
1653,1230,1733
1711,1360,1798
1744,1423,1728
1925,1411,1666
1940,1498,1702
1623,1168,1714
1574,1241,1658
1714,1360,1680
1763,1487,1750
1695,1534,1697
1689,1126,1850
1811,1248,1840
1841,1346,1510
1776,1299,1456
1647,1392,1645
1727,1458,1762
1872,1583,1809
1846,1498,1746
1805,1214,1690
1618,1264,1692
1618,1414,1746
1712,1578,1685
1819,1574,1584
1775,1560,1665
1744,1259,1811
1742,1373,1746
1712,1514,1774
1818,1695,1710
1870,1699,1664
2005,1741,1670
1792,1885,1776
1600,1774,1822
1665,1803,1870
1770,1765,1734
1791,1906,1714
1811,1983,1740
1847,2037,1791
2099,2090,1750
1842,2023,1779
1501,2090,1968
1739,2109,1852
1856,2287,1730
1857,2018,1759
1791,2111,1815
1680,2145,1827
1637,2123,1843
1744,2209,1773
1777,2096,1810
1914,2160,1795
1871,2207,1899
1648,2301,1925
1855,2327,1796
1811,2163,1759
1615,1998,1830
1671,2177,1869
1773,2251,1813
1871,2162,1948
1825,2128,1783
1775,2256,1935
1773,2222,1954
1809,2032,1932
1798,2079,1904
1647,2112,1846
1777,2256,1954
1837,2189,1833
1679,2114,2002
1694,2058,1952
1794,2107,2062
1747,2245,1936
1687,2046,1808
1747,2079,1814
1856,2209,1934
1777,2177,2009
1839,2196,1941
1882,2197,1865
1783,2160,2003
1728,2074,1926
1729,1967,1854
1754,2053,1851
1709,2231,1993
1712,2223,2032
1732,2241,2000
1727,2176,1853
1781,2044,1879
1871,1991,1899
1784,1965,1894
1595,2015,1903
1730,2176,1931
1825,2298,1931
1705,2165,1973
1744,1970,1915
1796,1967,1917
1872,2175,1877
1766,2121,1936
1655,1978,1963
1804,2213,2041
1733,2205,1935
1594,2010,1855
1678,2015,1883
1741,2143,1981
1744,2265,2015
1664,1927,1872
1820,2095,1920
1863,2003,1930
1665,1930,1954
1520,2029,1932
1746,2109,1943
1712,2179,1966
1735,2230,1971
1821,2082,1854
1671,1941,1978
1639,2011,1955
1680,2179,1995
1695,2123,1910
1697,1995,1826
1714,2000,1930
1820,2164,1963
1644,2023,1895
1565,2110,1975
1676,2026,1977
1759,2068,1905
1691,2170,1922
1680,2032,1925
1712,2062,1965
1664,2183,1974
1638,2160,1919
1678,2091,1918
1801,2450,1907
1728,1990,1921
1671,1845,1900
1655,1974,1906
1639,2103,1951
1680,2130,1985
1760,2192,1951
1758,2128,1903
1731,1984,1858
1703,2031,1930
1683,2146,2000
1719,2197,1910
1691,1993,1942
1711,1936,1968
1718,1986,1958
1738,2025,1936
1714,2112,1945
1791,2150,1994
1691,2059,1897
1721,1971,1870
1776,2036,1935
1838,2065,1978
1750,2198,2019
1747,2063,1899
1792,1865,1840
1673,1862,1894
1694,1899,1903
1707,1972,1927
1821,2079,2000
1850,2105,2027
1846,2067,1919
1712,1851,1823
1723,1822,1854
1749,1915,1968
1746,1955,1968
1856,1979,1952
1979,2162,2069
1837,2144,2021
1659,1776,1835
1707,1737,1825
1831,1905,1891
1791,1984,1997
1843,1962,2000
1830,1837,1863
1792,1893,1874
1799,1940,1903
1751,1904,1898
1818,1876,1918
1825,1963,1957
1872,1954,1965
1841,1862,1953
1859,1979,1968
1892,1946,1919
1854,1844,1945
1891,1792,1872
1910,1889,1841
1819,1849,1921
1867,1822,2011
1778,1840,1903
1845,1861,1869
1888,1907,1990
1937,1936,1957
1893,1887,1868
1875,1828,1872
1910,1936,1951
1988,2195,2039
1871,1743,1945
1822,1616,1823
1862,1745,1867
1918,1886,2014
1953,2102,2043
1989,1917,1818
1837,1686,1854
1781,1655,1877
1810,1751,1885
1889,1821,1898
1941,1870,1939
1926,1870,1943
1899,1840,1918
1892,1834,1906
1926,1871,1998
1984,2090,2059
1961,1875,1863
1873,1593,1798
1902,1675,1883
1959,1933,1937
2086,1855,1874
2175,1839,1794
1834,1792,2085
1714,1824,1999
1808,1791,1830
1773,1680,1789
1942,1761,1882
1985,1842,1938
1899,1808,1894
1919,1819,1871
1983,1845,1945
1971,1827,2032
1921,1774,1845
1920,1776,1776
1968,1862,1856
2037,2321,1983
1968,1863,1868
1895,1367,1813
1890,1510,1870
1940,1735,1902
1902,1795,1858
1941,1786,1855
2162,1815,1872
2209,1990,2032
1838,1744,1920
1810,1659,1907
1863,1741,1856
2091,1854,1824
2015,1883,1815
1965,1857,1922
2036,2112,1995
1963,1609,1890
1927,1415,1792
1904,1614,1833
1966,1810,1889
2086,1981,1935
2042,1778,1887
1931,1727,1906
1895,1782,1871
2055,1641,1823
1936,1713,1835
2000,1817,1923
2279,2023,1950
1956,1761,1929
2176,1769,1777
1904,1709,1797
1782,1697,1963
1925,1613,1988
1939,1875,1857
2064,1855,1952
1987,1715,1792
1937,1871,1827
2191,1663,1863
1999,1641,1753
1931,1859,1852
1933,1806,1880
2075,1741,1843
1980,1775,1857
1785,1669,1897
1858,1683,1898
1940,1722,1881
2039,1708,1805
1954,1741,1801
2289,1990,1868
1863,1939,1978
1679,1442,1873
1883,1459,1793
2234,1712,1756
2009,1827,1840
1875,1922,1869
1878,2043,1995
1998,1600,1775
1845,1362,1654
2015,1688,1841
2017,2433,2029
1840,1776,1872
1792,1317,1813
1873,1383,1661
1936,1601,1751
2019,1882,1856
1904,1837,1824
1810,1706,1838
1881,1822,1955
1870,1600,1859
1886,1709,1790
2039,1712,1744
1786,1738,1858
1680,1760,1876
1677,1649,1842
1744,1680,1772
1745,1661,1822
1776,1777,1846
1697,1617,1785
1719,1718,1803
1701,1872,1873
1636,1648,1903
1639,1650,1841
1653,1654,1801
1616,1691,1778
1680,1774,1837
1729,1786,1775
1648,1741,1887
1561,1744,1875
1664,1649,1791
1699,1686,1782
1706,1727,1854
1596,1804,1789
1446,1774,1870
1492,1753,1871
1585,1815,1870
1685,1787,1839
1680,1699,1820
1458,1685,1830
1389,1734,1820
1477,1663,1833
1693,1989,1975
1717,1883,1762
1553,1744,1847
1642,1817,1831
1555,1617,1678
1409,1566,1789
1535,1701,1869
1687,1777,1874
1714,1975,1866
1492,1776,1847
1415,1744,1824
1587,1839,1804
1648,1830,1777
1534,1661,1815
1499,1669,1785
1610,1937,1846
1765,2061,1855
1616,1872,1836
1570,1729,1721
1425,1584,1802
1423,1632,1859
1503,1783,1855
1602,1971,1898
1637,1867,1802
1627,1730,1801
1627,1893,1791
1599,1877,1930
1694,1645,1768
1625,1761,1776
1678,1843,1794
1527,1859,1822
1517,1830,1845
1679,1901,1839
1635,1794,1791
1711,1680,1747
1645,1779,1875
1535,1884,1965
1603,2091,1847
1650,1900,1740
1621,1596,1763
1627,1802,1834
1656,1808,1806
1581,1712,1789
1608,1962,1829
1667,1887,1843
1714,1792,1793
1808,2000,1838
1802,1744,1790
1575,1694,1923
1515,2003,1955
1812,1851,1725
1815,1920,1776
1535,1640,1735
1511,1816,1751
1686,1866,1809
1778,2022,1894
1650,1823,1855
1575,1653,1820
1625,1741,1766
1730,2181,1840
1711,1915,1840
1686,1732,1808
1759,1774,1824
1721,1807,1859
1709,1853,1841
1712,1847,1831
1832,1998,1818
1691,1792,1791
1744,1734,1775
1840,1777,1776
1675,1805,1771
1628,2006,1904
1709,1972,1929
1717,1758,1781
1735,1750,1872
1868,1968,1817
1788,1969,1782
1663,1667,1744
1689,1863,1833
1770,2096,1889
1770,1791,1867
1744,1680,1783
1785,1817,1808
1865,1897,1808
1783,1979,1831
1885,2093,1853
1903,2080,1918
1744,1680,1881
1713,1659,1871
1778,1843,1759
1968,1954,1744
2061,2107,1808
1796,1879,1795
1583,1661,1821
1645,1748,1895
1998,1968,1883
1847,2016,1882
1729,1876,1845
1779,1872,1857
1856,1987,1856
1872,1891,1959
1799,1831,1863
1806,1901,1693
1877,1834,1751
1884,1813,1851
1982,2015,1847
1872,1838,1747
1982,1891,1790
1888,1783,1830
1691,1786,1929
1767,2015,1983
1943,1855,1907
2057,1909,1861
1919,1964,1665
1850,1716,1715
1771,1726,1867
1840,1937,1906
1959,2128,1798
1914,1787,1804
1839,1715,1881
1840,1871,1946
1931,1905,1838
1971,2222,1841
1959,1845,1791
1766,1808,1879
1776,1806,1841
1874,2041,1830
2013,1853,1878
1921,1776,1839
1852,1808,1805
2109,2000,1755
1889,2020,1907
1776,1967,1947
1831,1840,1872
1911,1712,1791
1963,1856,1826
1975,1951,1841
1958,1859,1780
1807,1888,1825
1851,1954,1904
1913,1939,1929
1921,2113,1874
1915,1880,1808
1908,1694,1803
1922,1839,1827
1920,1856,1822
1965,1979,1843
2101,2009,1901
2043,1940,1808
1821,1922,1847
1949,2042,1879
1952,1809,1851
1867,1865,1919
1793,1872,1886
1871,1833,1872
2037,1845,1901
2037,2043,1905
2011,2028,1802
1941,1782,1744
1904,1872,1776
1803,1897,1915
1824,1856,1866
1904,1808,1812
2021,1957,1872
2042,2291,1990
1936,1947,1830
1809,1511,1837
1899,1574,1788
1946,1813,1805
1970,1975,1845
2259,2273,1907
2215,1843,1819
1842,1871,1847
1757,1870,1829
1810,1714,1785
1942,1807,1910
2091,1958,1905
1852,1949,1888
1805,1654,1795
1955,1782,1792
1939,2022,1901
1987,2061,1794
1968,1891,1847
2090,1863,1867
1904,1829,1869
2003,1937,1767
1937,1968,1731
1846,1872,1922
1872,1716,1903
1936,1889,1805
2077,1969,1766
2007,1991,1868
1977,1873,1901
1891,1697,1840
1964,1794,1875
1986,1973,1919
1968,1930,1895
1988,1894,1755
2034,1888,1770
1921,1974,1867
1855,1941,1904
1873,1730,1805
2000,1865,1791
2001,1872,1843
1970,1936,1904
1899,1936,1845
1875,1712,1938
1949,1826,1851
2018,1870,1791
2017,2061,1834
1975,2102,1888
2347,1709,1751
1847,1680,1801
1691,1731,1941
1907,2122,1966
2019,1792,1828
2095,1950,1860
1904,1998,1830
1808,1711,1808
1904,1840,1862
2037,1984,1845
2026,1926,1835
1906,1803,1817
1907,1840,1904
1951,1796,1931
1999,1841,1778
2064,1905,1723
1919,1988,1903
1895,1921,1970
1968,2003,1857
1951,1728,1846
2005,1819,1891
2000,1962,1875
1853,1903,1804
1828,1735,1739
1910,1797,1807
2043,2275,1920
2018,1795,1866
1937,1792,1820
1885,1931,1856
1859,1790,1855
1872,1739,1821
1957,1811,1842
1984,1882,1904
2094,2073,1878
2123,1809,1732
1941,1878,1772
1972,2005,1840
1969,1765,1952
1762,1663,1798
1808,1811,1833
1888,1904,1901
1998,1872,1872
2087,1935,1904
2070,2017,1826
1901,1783,1798
1802,1700,1834
1854,1765,1842
1941,2087,1857
2042,1925,1895
2034,1754,1837
1973,1808,1905
1831,1905,1840
2139,2032,1872
1981,1847,1703
1761,1766,1843
1758,1764,1895
1914,1981,1881
1978,1837,1840
2021,1774,1831
1891,1808,1808
1839,1936,1869
1877,1938,1899
1915,1802,1825
1979,1808,1854
2093,2021,1989
2057,1974,1863
1825,1699,1717
1927,1695,1806
1884,1879,1891
1987,2062,1873
2041,1893,1803
1927,1845,1741
1799,1826,1979
1836,1894,2009
2091,1831,1808
1931,1683,1730
1822,2064,1885
1958,1827,1810
1897,1677,1780
1872,1872,1891
1988,1950,1906
1959,1951,1853
1853,1910,1831
1874,1806,1858
1972,1920,1840
2077,1893,1831
1907,1805,1853
1874,1812,1840
2097,1999,1899
1981,1920,1851
1864,1662,1744
1826,1650,1754
2005,1898,1873
2045,1997,1870
1955,1859,1833
1759,1872,1946
1831,2000,1957
1973,2101,1870
2047,1897,1776
1950,1718,1810
1919,1815,1934
2045,1878,1867
1984,1946,1808
1866,1953,1791
1908,1826,1845
1866,1684,1830
1933,1853,1843
1892,1813,1831
1904,2167,1969
2015,1949,1824
1965,1697,1671
1851,1683,1799
1987,1852,1858
2054,2182,1986
1946,2167,1935
1743,1801,1839
1777,1495,1835
1974,1802,1794
1955,1890,1776
1851,1823,1826
1964,2032,1892
2003,2029,1894
1903,1838,1786
1852,1738,1796
1930,1881,1856
2029,1937,1904
1993,1857,1840
1983,1935,1782
1846,2046,1903
1879,1861,1882
1921,1817,1891
1853,1959,1872
1910,2031,1951
1942,1806,1793
1927,1815,1767
1877,1872,1826
1898,1908,1875
1991,1872,1840
2077,1843,1791
1868,1963,1885
1947,2096,1968
2083,1974,1893
2036,1851,1764
1861,1888,1899
1814,1790,1938
1840,1808,1819
1930,1883,1795
1913,1987,1877
1990,2069,1969
1938,2077,1831
1890,1981,1763
1891,1688,1787
1946,1746,1859
1933,1971,1872
2027,1877,1823
1951,1849,1919
1879,2001,1936
1920,2019,1853
1904,1805,1763
2131,1949,1803
1886,1923,1840
1760,1807,1936
1834,1845,1873
1984,2213,1873
2075,1893,1912
1942,1698,1837
1841,1763,1822
1959,1943,1921
1937,1903,1888
1913,1921,1791
1878,1932,1811
2015,1885,1815
1977,2043,1901
1895,1933,1854
1931,1822,1815
1892,1746,1831
1883,1808,1891
2046,1885,1868
1904,2033,1803
1818,2014,1853
1897,1855,1936
1978,1902,1891
1902,1936,1882
1840,1811,1838
1873,1803,1822
2013,2069,1835
2064,1938,1862
1898,1738,1908
2027,1815,1881
1903,2125,1834
1918,1905,1849
1973,1699,1846
1840,1785,1869
1865,1882,1881
1883,1921,1839
1878,2167,1886
2013,2213,1962
1982,1700,1808
1822,1631,1663
1863,1936,1887
1968,2112,1893
1999,1941,1776
1949,1941,1803
1793,1855,1837
1919,1767,1840
1920,1871,1831
1827,1887,1907
1824,1638,1840
1961,1841,1874
2134,2017,1918
1978,1861,1857
1919,1798,1701
1856,1913,1904
1840,1934,1872
1831,1871,1908
1814,1849,1788
1877,1888,1887
2031,1955,1832
1881,1844,1827
1840,1861,1843
1797,1755,1858
1862,1942,1827
1922,2006,1778
1950,2039,1776
2021,1840,1847
1885,1872,2001
1837,1861,1997
1751,1681,1791
1885,2054,1979
1934,2087,1904
1872,1815,1691
1984,1984,1716
1866,1817,1776
1999,1810,1883
1879,1983,1901
1984,1968,1803
1891,1833,1741
1647,1894,1817
1705,1872,1824
1840,2204,1863
1890,1931,1825
1813,1799,1817
1840,1936,1931
1892,2247,1831
1917,2306,1892
1834,1662,1840
1887,1887,1758
1910,2146,1824
2173,2069,1746
1815,1874,1812
1564,1907,1901
1738,2096,1906
1881,2192,1875
1888,2256,1861
1808,2032,1780
1882,2022,1761
1895,2096,1779
1808,2112,1808
1797,2214,1867
1801,2192,1893
1879,2111,1872
2000,2299,1855
1859,2011,1741
1899,1935,1683
1814,2064,1919
1739,1959,1872
1767,2240,1977
1908,2083,1763
1878,2067,1744
1855,2027,1807
1801,2015,1859
1899,2207,1936
1911,2272,1874
1821,2047,1885
1807,1957,1872
1830,1936,1722
1840,2102,1827
1936,2164,1887
1926,2189,1968
1904,2425,1883
1846,1922,1755
1819,1808,1801
1822,1905,1825
1943,2034,1855
1981,2122,1872
1808,2221,1875
1786,2017,1861
1913,1951,1866
1951,2122,1853
1808,2101,1825
1829,1895,1899
1852,1883,1819
1811,2058,1789
1903,2117,1867
1877,2006,1873
1870,2241,1937
1902,2041,1888
1819,1927,1859
1798,1808,1773
1825,1882,1793
1904,2017,1871
1985,2270,1997
1889,1994,1810
1978,1939,1863
2030,1957,1828
1833,2191,1841
1811,1912,1777
1914,1793,1839
1815,1963,1904
1937,2197,1952
1877,2000,1827
1888,1861,1872
1962,2114,1886
1998,2083,1853
1987,2038,1858
1861,1758,1753
1797,1879,1877
1792,1962,1908
1867,2023,1885
1897,1981,1872
1920,1956,1899
1915,2127,1872
1857,2071,1851
1852,1921,1783
1951,2102,1945
1966,1863,1946
1824,1837,1776
1856,1969,1900
1945,2193,2000
1957,2053,1881
1968,1748,1712
1961,1913,1911
1758,1949,1920
1814,1898,1883
1965,2013,1795
1929,2000,1898
1867,2061,1903
1870,2007,1854
1849,1829,1807
1904,1887,1872
2002,2151,1905
2005,2167,1854
1879,1990,1727
1840,1808,1863
1970,2003,1968
1992,2162,1853
1863,2282,1719
1797,1925,1869
1936,1806,1905
2143,1889,1856
1804,1922,1777
1776,1941,1837
1856,2320,1952
1877,2192,1895
1890,1691,1883
1968,1677,1749
2020,1755,1834
2007,1822,1883
1787,1902,1876
1770,1927,1829
1894,1978,1838
1943,2015,1888
1869,1988,1856
1940,1787,1670
1817,1892,1779
1740,1940,1941
1875,1979,1945
1986,2043,1754
1919,2057,1831
1771,1840,1942
1865,1766,1891
1938,1859,1808
1823,1631,1823
1818,1965,1891
1861,2084,1903
1874,1535,1762
2014,1535,1681
1970,1968,1868
1904,1866,1854
1706,1627,1770
1808,1791,1935
1879,1844,1984
1862,1831,1853
1853,1979,1835
2027,1771,1807
1856,1728,1840
1833,1820,1850
1920,1988,1841
1904,2298,1964
1776,1611,1858
1899,1658,1790
1799,1582,1720
1858,1837,1835
1936,1934,1861
1878,1669,1814
1872,1781,1943
1879,1975,1934
1936,1627,1743
2006,1616,1726
1821,1761,1865
1835,2143,1984
2006,1815,1920
1802,1629,1894
1784,1921,1861
1951,2032,1791
1802,1741,1760
1743,1579,1836
1872,1762,1875
1950,1924,1924
1950,2174,1950
1923,1727,1777
1802,1719,1786
1745,1726,1794
1822,1838,1879
1924,1849,1787
1998,1995,1858
2004,2033,2000
1874,1667,1936
1802,1782,1712
1744,1456,1683
1843,1607,1888
1950,1847,1952
2098,1902,1883
1878,1949,1857
1882,1870,1849
1875,2277,1893
1808,1773,1765
1811,1535,1776
1905,1813,1840
1845,1974,1840
1873,2129,1861
1906,1763,1798
1799,1635,1797
1810,1749,1874
1855,1955,1909
1887,1843,1856
1997,2067,1915
1892,1866,1902
1917,1707,1866
1840,1758,1791
1931,1854,1831
1917,1897,1808
1845,1983,1825
1810,1894,1806
1923,2006,1968
1856,1851,1846
1733,1661,1807
1807,1724,1751
1879,1823,1892
1904,1996,1984
1872,1888,1799
1898,1921,1795
1843,1806,1840
1773,1744,1859
1788,1904,1855
1939,1953,1855
2164,2010,1878
1847,1930,1872
1800,1787,1843
1772,1919,1862
1827,1774,1863
1884,1804,1914
1920,1957,1873
1834,1941,1781
1823,2065,1871
1846,1839,1881
1851,1911,1957
1921,1857,1897
1972,1968,1805
1834,1779,1819
1810,1627,1829
1942,1840,1808
1958,1856,1847
1854,1871,1904
1900,1888,1855
1777,1747,1831
1860,1818,1871
