1819,1721,1847
1820,1856,1815
1895,2005,1867
1966,2055,1915
1825,1746,1802
1804,1728,1855
1886,1833,1872
1879,1843,1868
1902,1868,1870
1874,1942,1823
1867,2001,1898
1844,1759,1840
1843,1806,1838
1915,1987,1843
1905,1899,1856
1888,1757,1859
1862,1822,1810
1882,1808,1840
1910,1834,1888
1954,1868,1861
1907,1952,1811
1791,1913,1865
1822,1786,1872
1853,1950,1870
1840,1824,1824
1881,1696,1786
1893,1783,1856
1845,1863,1893
1839,1959,1861
1862,2032,1825
1904,1808,1856
1904,1751,1879
1871,1894,1849
1875,1897,1796
1889,1822,1844
1951,1958,1918
1840,1799,1830
1775,1793,1802
1861,1824,1872
1893,1920,1889
1882,1963,1808
1847,1785,1790
1983,1979,1879
1882,1979,1921
1750,1727,1813
1799,1712,1767
1867,1694,1858
1866,1929,1871
1839,1931,1827
1854,1845,1808
1939,1751,1882
1910,1968,1908
1818,1967,1845
1844,1797,1823
1904,1776,1854
1875,1859,1883
1857,1937,1845
1840,1891,1865
1856,1848,1887
1841,1753,1856
1839,1829,1851
1872,1985,1841
1866,1842,1834
1878,1819,1844
1877,1966,1831
1818,1825,1814
1905,1743,1872
1904,1730,1872
1817,1789,1798
1904,1867,1811
2056,1991,1829
1801,1861,1873
1741,1756,1837
1808,1782,1840
1886,1950,1930
1875,1984,1875
1839,1815,1793
1858,1808,1757
1913,1820,1804
1888,1911,1903
1872,1763,1803
1859,1781,1836
1856,1911,1917
1872,1933,1859
1894,1893,1813
1845,1914,1840
1811,1718,1892
1883,1725,1834
1865,1826,1803
1879,1853,1829
1934,1903,1949
1869,1801,1829
1872,1978,1767
1933,1782,1770
1831,1782,1838
1820,1850,1856
1891,1766,1808
1916,1847,1911
1854,1910,1841
1843,1815,1898
1869,1781,1828
1866,1936,1853
1910,2000,1886
1911,1809,1840
1840,1773,1765
1872,1838,1840
1883,1856,1876
1892,1889,1834
1903,1775,1827
1958,1773,1805
1875,1942,1853
1853,1857,1850
1885,1840,1870
1826,1835,1827
1847,1815,1878
1905,1936,1839
1883,1809,1776
1851,1745,1850
1867,1919,1905
1881,1899,1858
1877,1797,1829
1872,1841,1813
1904,1904,1883
1897,1913,1872
1863,1827,1820
1893,1889,1855
1907,1872,1891
1872,1794,1773
1865,1883,1791
1915,1821,1805
1969,1985,1859
1930,1843,1856
1911,1924,1851
1825,1759,1813
1899,1814,1897
1854,1840,1875
1814,1757,1838
1840,1776,1815
1926,1959,1906
1885,1903,1859
1834,1805,1820
1834,1793,1794
1903,2006,1911
1926,1909,1867
1921,1760,1767
1847,1703,1776
1859,1846,1872
1911,1856,1916
1884,1904,1840
1936,1982,1861
1941,1794,1859
1863,1794,1857
1899,1931,1818
1854,1914,1854
1866,1729,1846
1893,1862,1846
1875,1695,1811
1856,1710,1793
1830,1900,1870
1880,2019,1885
1874,1814,1751
1881,1772,1817
1954,1862,1871
2000,2081,1956
1903,1856,1809
1760,1680,1785
1807,1834,1875
1878,1745,1871
1879,1776,1798
1914,1890,1840
1893,1985,1895
1871,1936,1891
1873,1834,1822
1925,1858,1827
1862,1760,1855
1828,1782,1849
1862,1797,1830
1903,1861,1841
1935,1979,1902
1987,2013,1904
2009,1805,1778
1802,1648,1756
1761,1839,1865
1829,1856,1932
1890,1807,1846
1879,1811,1837
1893,2000,1900
1873,2032,1891
1879,1826,1862
1859,1717,1797
1907,1828,1791
1907,1983,1869
1874,1902,1878
1859,1747,1878
1920,1747,1919
1950,1883,1818
1934,1883,1778
1983,1833,1791
1902,1886,1924
1792,1904,1883
1813,1931,1872
1835,1869,1861
1874,1918,1840
1879,1872,1782
1872,1819,1815
1872,1798,1827
1943,1956,1921
1959,1950,1934
1840,1835,1903
1840,1757,1798
1904,1827,1834
1949,1903,1856
1911,1895,1857
1873,1850,1888
1839,1936,1915
1877,1829,1855
1846,1734,1807
1862,1812,1841
1948,1968,1921
1871,1873,1891
1866,1840,1808
1905,1894,1826
1904,1837,1891
1905,1983,1872
1873,1929,1773
1864,1857,1792
1874,1787,1888
1884,1750,1846
1903,1792,1820
1950,1856,1799
2005,1987,1898
1907,1911,1889
1909,1957,1840
1812,1841,1811
1823,1745,1859
1841,1831,1852
1901,2185,1895
1985,1846,1827
1872,1618,1819
1831,1690,1824
1802,2021,1889
1903,2112,1886
1878,1735,1850
1859,1776,1870
1830,1699,1855
1855,1814,1806
1903,2013,1840
1923,1851,1833
1866,1811,1764
1937,1770,1777
1978,1920,1904
1915,1867,1917
1846,1891,1857
1761,1807,1840
1808,1803,1859
1904,1879,1857
1877,1984,1856
1840,1956,1883
1823,1842,1848
1840,1687,1802
1858,1776,1791
1925,1897,1838
1943,1898,1882
1889,1895,1897
1757,1999,1808
1840,1933,1838
1869,1787,1838
1859,1859,1845
1907,1827,1808
1870,1840,1846
1910,1949,1923
1837,1915,1895
1744,1728,1787
1840,1812,1823
1913,2069,1886
1879,1903,1835
1899,1667,1803
1904,1729,1840
1886,1966,1881
1941,1941,1903
1967,1865,1798
1826,1947,1830
1813,1909,1840
1847,1789,1865
1835,1799,1827
1840,1916,1903
1906,2016,1903
1855,1969,1901
1865,1879,1845
1933,1743,1823
1871,1792,1844
1749,1922,1823
1810,1779,1808
1851,1820,1825
2001,1861,1838
1974,2113,1921
1826,1933,1833
1779,1771,1837
1806,1935,1911
1870,1877,1853
1837,1790,1790
1808,1836,1851
1917,1893,1870
1887,1808,1877
1809,1819,1844
1858,1984,1897
2000,1870,1845
1981,1860,1762
1791,1939,1831
1728,1840,1907
1826,1888,1889
1840,1840,1822
1852,1890,1813
1914,1835,1843
1939,1825,1865
1870,1872,1844
1830,1939,1826
1907,1872,1836
1899,1829,1821
1888,1899,1848
1872,2064,1917
1758,1871,1839
1849,1729,1837
1890,1871,1845
1852,1839,1825
1840,1830,1807
1943,1917,1859
1799,1899,1867
1795,1775,1834
1818,1778,1841
1888,1872,1874
1828,1971,1875
1873,1970,1856
1887,1863,1875
1973,1856,1866
1889,1883,1851
1809,2032,1834
1872,1840,1837
1873,1904,1872
1904,1893,1861
1915,1878,1790
1953,1803,1781
1791,1721,1851
2000,1805,1831
1790,1995,1818
1772,1820,1872
1789,1734,1874
1857,1776,1872
1929,1985,1898
1911,1967,1873
1826,1931,1829
1817,1870,1809
1833,1930,1810
1872,1942,1814
1966,1795,1815
1839,1814,1840
1862,1870,1856
1874,1855,1876
1845,1710,1809
1836,1808,1790
1840,1930,1819
1840,2096,1850
1874,1903,1856
1918,1742,1838
1863,1775,1855
1840,1809,1836
1844,1853,1872
1946,1872,1819
2047,2081,1831
1854,1983,1872
1765,1997,1914
1773,1770,1799
1827,1621,1737
1851,1779,1840
1936,1968,1919
1943,1951,1904
1839,1913,1808
1728,1847,1789
1855,1868,1840
1872,1745,1856
1911,1843,1810
1926,1953,1857
1898,1937,1905
1861,1793,1864
1773,1830,1840
1862,1829,1819
1870,1868,1871
1863,1982,1866
1872,1910,1811
1895,1762,1814
1936,1852,1861
1920,2046,1904
1853,1891,1840
1863,1825,1825
1920,1931,1805
1834,1813,1835
1778,1872,1867
1840,1920,1875
1872,1745,1859
1956,1761,1835
1917,1942,1851
1956,2064,1869
1840,1886,1853
1787,1725,1830
1839,1778,1846
1885,2045,1855
1897,1951,1847
1834,1782,1838
1842,1819,1856
1968,1907,1834
1969,1914,1863
1968,1866,1833
1875,1902,1808
1850,1742,1786
1909,1801,1856
1969,2019,1903
1893,2090,1840
1806,1688,1761
1967,1739,1875
1907,1904,1872
1819,1857,1835
1885,1898,1867
1899,1839,1901
1872,1933,1856
1821,1939,1829
1845,1859,1882
1875,1829,1856
1863,1784,1840
1861,1886,1824
1895,1991,1826
1921,2037,1894
1904,1872,1866
1851,1790,1771
1968,1787,1786
1909,1803,1834
1865,1910,1909
1827,1955,1849
1886,1840,1818
1935,1983,1842
1819,1893,1871
1824,1773,1833
1819,1835,1829
1889,1808,1863
1904,1834,1843
1856,1878,1799
1860,1855,1840
1956,1919,1871
1991,2045,1840
1869,2075,1843
1776,1698,1823
1792,1712,1820
1829,1765,1852
1872,1941,1876
1939,2031,1855
1872,1867,1863
1829,1845,1843
1825,1749,1839
1865,1793,1847
1886,1889,1853
1885,1952,1854
1888,1949,1840
1943,1902,1813
1895,1827,1847
1936,1803,1828
1954,1797,1809
1777,1904,1859
1821,2175,1936
1933,2266,1894
1863,1731,1756
1775,1605,1808
1825,1728,1879
1857,1813,1875
1835,1805,1811
1903,1906,1845
1936,2086,1904
1903,1909,1870
1841,1735,1789
1840,1791,1791
1911,1882,1861
2128,1946,1825
1898,1936,1840
1722,1855,1855
1775,1794,1873
1853,1791,1815
1822,1811,1823
1889,1940,1879
1931,2082,2001
1933,1998,1883
1822,1775,1751
1835,1727,1760
1889,1919,1870
1872,1851,1862
1847,1986,1870
1883,1903,1904
1901,1815,1814
1979,1772,1795
1933,1825,1775
1824,1979,1904
1790,1788,1923
1823,1857,1871
1922,2128,1829
1935,1854,1792
1833,1670,1872
1821,1743,1872
1833,1845,1807
1872,2007,1871
1921,1846,1887
1920,1871,1872
1869,1909,1803
1851,2154,1872
1867,1955,1881
1834,1649,1789
1863,1690,1764
1904,1796,1846
1973,2066,1960
1943,2119,1942
1865,1683,1766
1745,1626,1727
1828,1808,1867
1869,1899,1887
1904,1901,1824
1883,1903,1826
1879,1924,1866
1878,1917,1871
1866,1897,1831
1870,1904,1853
1904,1887,1898
1906,1889,1870
1872,1859,1823
1901,1867,1872
1923,1920,1931
1895,1943,1853
1883,1874,1806
1902,1904,1830
1910,1946,1889
1888,1843,1873
1869,1835,1820
1883,1872,1840
1905,1903,1882
1901,1906,1874
1875,1867,1823
1888,1870,1831
1921,1921,1870
1927,1947,1882
1902,1868,1864
1918,1850,1869
1933,1882,1879
1904,1898,1872
1882,1878,1849
1905,1877,1872
1951,1893,1898
1949,1889,1857
1907,1847,1844
1910,1839,1872
1957,1872,1918
1954,1875,1905
1949,1840,1853
1978,1794,1875
2027,1817,1921
2032,1815,1904
2007,1783,1867
2054,1775,1891
2115,1783,1921
2126,1787,1919
2128,1715,1869
2161,1719,1891
2185,1750,1934
2200,1715,1925
2201,1663,1879
2233,1691,1895
2288,1710,1930
2303,1743,1922
2304,1648,1885
2335,1634,1900
2382,1581,1933
2387,1680,1936
2369,1615,1883
2405,1625,1895
2456,1524,1930
2458,1661,1924
2455,1578,1890
2481,1590,1879
2529,1557,1924
2527,1578,1922
2525,1504,1889
2559,1555,1892
2638,1563,1935
2638,1563,1922
2624,1535,1872
2657,1525,1873
2714,1535,1920
2718,1554,1915
2693,1475,1870
2715,1491,1871
2768,1513,1910
2771,1523,1917
2739,1503,1873
2746,1515,1875
2791,1467,1924
2768,1443,1899
2736,1487,1865
2789,1582,1919
2813,1648,1936
2739,1357,1903
2703,1313,1854
2731,1418,1859
2815,1714,1957
2779,1445,1893
2674,1279,1815
2673,1200,1842
2731,1264,1899
2714,1344,1885
2667,1424,1854
2669,1471,1878
2703,1488,1910
2720,1479,1900
2704,1421,1820
2641,1463,1829
2612,1527,1939
2606,1351,1931
2590,1371,1877
2593,1452,1895
2607,1429,1904
2591,1377,1871
2559,1366,1865
2599,1429,1919
2559,1524,1927
2539,1514,1907
2559,1350,1914
2538,1486,1918
2491,1610,1914
2480,1611,1899
2533,1565,1959
2538,1336,2023
2463,1335,1886
2613,1664,1989
2896,1781,2288
2512,1553,2001
2069,1328,1553
2113,1329,1578
2278,1468,1763
2403,1598,1893
2460,1510,1906
2353,1577,1861
2396,1714,1978
2378,1418,1899
2305,1377,1793
2239,1655,1904
2251,1857,1862
2224,1286,1719
2197,1199,1787
2286,1460,1933
2353,1682,1968
2311,1587,1969
2161,1474,1871
2126,1452,1803
2254,1504,1904
2195,1493,1821
2182,1605,1827
2263,1904,1950
2162,1583,1856
2022,1307,1731
2027,1349,1724
2112,1359,1792
2134,1437,1786
2137,1491,1857
2096,1606,1884
2047,1675,1831
2054,1555,1744
2066,1487,1746
2031,1425,1840
2023,1359,1847
1989,1427,1810
1976,1523,1841
2029,1702,1887
2025,1595,1846
1939,1353,1747
1953,1403,1775
1977,1483,1829
1968,1633,1826
1939,1611,1794
1933,1471,1776
1931,1535,1791
1936,1723,1822
1893,1488,1762
1910,1415,1776
1939,1525,1828
1922,1602,1823
1910,1629,1807
1942,1699,1856
1911,1586,1823
1879,1590,1743
1839,1577,1694
1901,1670,1699
1993,1846,1743
1945,1824,1643
1952,1441,1535
2082,1408,1535
1811,1535,1680
1622,1591,1742
1762,1687,1611
1873,1751,1522
1872,1970,1569
1757,1805,1647
1658,1576,1535
1680,1450,1346
1809,1602,1375
1782,1702,1486
1775,1789,1535
1793,1939,1557
1791,1776,1519
1776,1825,1477
1760,1679,1452
1791,1711,1526
1813,1881,1589
1782,1936,1529
1731,1926,1475
1782,1756,1526
1781,1812,1535
1758,1744,1493
1719,1706,1483
1817,1877,1588
1835,1959,1615
1715,1926,1525
1617,1839,1490
1680,1883,1555
1741,1886,1638
1745,2032,1629
1836,1878,1679
1758,1993,1487
1738,1936,1413
1743,1904,1453
1582,1937,1535
1521,1950,1686
1629,1967,1680
1680,1958,1586
1675,1898,1560
1733,1940,1674
1723,1931,1662
1652,1868,1626
1652,1984,1600
1987,2175,1881
1980,1968,1905
1514,1787,1472
1382,1669,1346
1618,1877,1599
1799,2074,1750
1728,1905,1671
1563,1840,1535
1565,1655,1510
1652,1685,1659
1739,1857,1733
1795,1888,1794
1684,1823,1683
1535,1807,1523
1569,1856,1557
1749,2032,1645
1776,1766,1585
1823,1705,1797
2115,1983,2187
2121,2083,2224
1378,1616,1429
1196,1633,1266
1361,1683,1442
1616,1824,1669
1936,1839,1961
1685,1707,1648
1481,1741,1409
1418,2037,1424
1484,1445,1472
1602,1223,1535
1643,1438,1616
1567,1615,1666
1593,2112,1856
1760,2177,1782
1519,1249,1435
1183,1142,1579
1331,1445,1693
1520,1676,1731
1564,1730,1680
1520,1691,1605
1478,1792,1642
1461,1585,1667
1509,1664,1694
1554,2141,1679
1465,1648,1601
1485,1664,1698
1622,1535,1620
1636,1684,1534
1535,1898,1663
1497,2019,1687
1375,1870,1665
1446,1828,1643
1524,1936,1682
1520,2160,1693
1669,2107,1696
1681,2089,1665
1412,2205,1830
1344,2188,1809
1450,2203,1616
1570,1959,1501
1447,1998,1664
1376,2341,1878
1463,2672,1856
1476,2257,1680
1433,2032,1584
1535,2185,1699
1535,2614,1809
1680,2877,1824
1424,2464,1702
1353,2330,1749
1423,2206,1751
1670,2544,1731
1705,2670,1779
1699,2758,1843
1665,2978,1791
1162,2597,1853
1296,2535,1802
1463,2476,1751
1346,2496,1758
1471,2604,1747
1461,2869,1814
1471,3204,1943
1737,2834,1847
1467,2339,1802
1119,2317,1898
1360,2628,1943
1335,3139,2032
1344,2528,1889
1351,2368,1854
1282,2559,2000
1230,2747,2037
1280,2672,1974
1504,2782,1904
1275,2672,2032
1162,2454,2062
1165,2443,1950
1152,2543,2046
1535,2691,2117
1458,2588,2001
1152,2605,1974
995,2677,2150
1099,2608,2155
1104,2224,2015
1154,2251,2096
1363,2503,2090
1155,2519,2073
1137,2733,2128
1126,2358,2017
1286,2349,2030
1332,2427,2057
1133,2496,2135
1193,2630,2107
1328,2499,2127
1339,2398,2139
1183,2382,2094
1159,2463,2096
1093,2240,2081
1122,2343,2096
1216,2407,2106
1434,2416,2073
1218,2765,2119
1068,2523,2142
982,2129,2082
1091,2139,2063
1184,2171,2045
1186,2368,2102
1200,2583,2148
1124,2474,2128
1294,2430,2131
1249,2158,2039
1037,2091,2096
1347,2258,2103
1279,2510,2151
1172,2719,2096
1155,2032,1968
1104,2042,2070
1120,2235,2146
1323,2405,2157
1249,2242,2058
1086,2161,2022
1161,2240,2058
1391,2489,2159
1469,2608,2095
1168,2105,2067
1111,2021,2063
1166,2190,2245
1314,2445,2175
1391,2176,1924
1246,2079,1974
1280,2242,2149
1402,2320,2103
1297,2202,2013
1249,2163,2019
1313,2287,2078
1494,2302,2079
1335,2244,1994
1195,1953,2047
1241,2080,2095
1370,2199,2090
1393,2243,2035
1413,2182,2055
1392,2146,2098
1343,2096,2032
1360,2128,2059
1524,2239,2110
1418,2269,2085
1360,2047,1999
1360,2043,2007
1424,2099,2082
1510,2311,2109
1518,2058,2000
1578,1983,1946
1361,2047,2017
1377,1961,2063
1455,2030,2098
1560,2189,2059
1589,2075,1936
1571,2031,1968
1466,1987,2054
1393,2016,1984
1487,2112,2028
1599,2176,2097
1535,1978,2087
1507,1850,2032
1535,2025,2019
1589,2079,2062
1574,1951,1966
1523,1909,1991
1588,2093,2010
1922,2384,2087
1589,1904,2000
1350,1646,1972
1452,1783,1938
1611,1958,2001
1666,2013,2025
1680,2026,1982
1712,2087,2075
1763,2109,2035
1651,1942,1947
1584,1842,1954
1641,1808,1951
1731,1905,1924
1641,2013,2076
1751,2267,2109
1630,1811,1930
1627,1764,1965
1725,1991,1984
1746,1943,1982
1680,1840,1953
1735,1811,1961
1824,2061,1981
1757,1903,1975
1641,1787,1990
1686,1904,1963
1855,2059,1988
1762,1759,1831
1659,1800,2003
1670,1840,2013
1773,1904,1995
1771,1922,1952
1754,1880,1943
1763,1968,2027
1778,2035,1959
1799,1879,1923
1792,1815,1910
1903,1904,1979
1979,2065,1923
1838,1603,1776
1618,1484,1850
1717,1757,1963
1841,1933,1919
1795,2006,1924
1791,1906,2031
1792,1796,1961
1766,1680,1921
1794,1904,1920
1855,1901,1910
1822,2011,1894
1852,1927,1925
1920,1776,1903
1839,1753,1911
1858,1683,1927
1890,1807,1923
1811,1799,1904
1828,1785,1840
1875,1925,2019
1821,1987,2003
1776,1585,1859
1935,1694,1856
1967,1863,1933
1841,1707,1978
1851,1731,1863
1841,1779,1872
1963,1852,1906
1966,1835,1850
1827,1745,1712
1807,1835,1897
1846,1811,1915
1875,1814,1935
1898,1840,1827
1935,1847,1881
1907,1935,1885
1897,1970,1863
1886,1742,1863
1904,1690,1893
1916,1637,1887
1921,1763,1853
1936,1741,1846
2070,1799,1864
1938,1855,1897
1845,1811,1821
1874,1803,1823
2107,1902,1891
1938,1887,1962
1825,1647,1889
1901,1712,1866
1943,1776,1839
1945,1831,1856
1900,1699,1803
1911,1787,1776
1991,1875,1871
2060,1678,1838
1988,1629,1849
1929,1702,1817
2026,1821,1875
1953,1859,1953
1905,1831,1863
1881,1680,1822
1939,1713,1817
1956,1756,1873
1968,1776,1882
1945,1814,1869
1978,1958,1847
1986,1781,1841
1983,1742,1815
1979,1738,1781
1990,1714,1809
2027,1870,1911
2064,1854,1935
1987,1657,1780
2031,1611,1721
2011,1791,1797
1918,1822,1871
1963,1690,1877
1919,1654,1851
2023,1783,1919
1995,1818,1856
1929,1762,1759
2005,1833,1808
1993,1870,1933
1984,1778,1808
1987,1683,1777
1970,1791,1829
2097,2189,1904
2006,1733,1777
1954,1525,1778
2003,1690,1853
1984,1872,1881
1903,1731,1785
1953,1729,1766
2046,1839,1818
2143,1949,1843
2001,1694,1791
2019,1678,1806
1979,1733,1784
1969,1907,1879
2018,1921,1859
1994,1694,1744
1966,1606,1763
1991,1742,1861
2012,1853,1857
1978,1904,1809
1978,1748,1817
2058,1678,1811
2022,1829,1830
1999,1891,1795
2021,1879,1804
2081,1964,1836
1907,1690,1843
1904,1595,1793
2011,1740,1808
2071,1791,1843
2058,1889,1840
2064,1980,1802
1984,1690,1754
1955,1664,1819
1997,1759,1823
1920,1808,1835
1969,1777,1821
2077,1805,1836
2102,1920,1845
2000,1855,1803
1923,1712,1795
1970,1835,1851
2017,1792,1823
2023,1966,1815
2031,1795,1760
2038,1648,1814
2037,1875,1830
1959,1819,1794
2028,1735,1811
2003,1763,1824
2029,1963,1847
2039,1877,1837
1989,1618,1744
2107,1696,1761
2000,1773,1820
1965,1872,1840
2043,1936,1887
2015,1798,1803
1987,1840,1776
1979,1730,1810
2021,1792,1824
1958,1835,1838
2039,1927,1825
2083,2225,1839
1987,1747,1772
1999,1535,1796
1972,1687,1823
1924,1796,1808
2071,1836,1854
2046,1829,1845
2012,1846,1823
1991,2110,1858
1969,1852,1870
1942,1686,1779
2003,1693,1775
2047,1744,1771
2030,1822,1793
1984,1840,1825
1965,1895,1804
1997,1855,1809
2037,1830,1840
2015,1862,1841
1914,1776,1809
1904,1881,1846
2053,2001,1837
2091,1858,1845
2076,1747,1763
1924,1650,1719
1950,1725,1795
1995,1838,1843
1933,1923,1840
1968,1905,1801
2067,1809,1802
2023,1929,1856
1961,1951,1822
1963,1771,1757
1998,1653,1808
2026,1950,1887
2058,2030,1801
1989,1821,1765
1989,1693,1814
2044,1733,1882
1967,1935,1814
1926,1840,1811
2063,1845,1887
1904,1780,1805
1897,1802,1759
1921,1810,1791
1964,1807,1827
1990,2064,1872
1991,1931,1845
2016,1781,1799
2032,1763,1762
1922,1875,1824
2015,1860,1855
1934,1758,1825
2039,1887,1823
2035,1941,1870
2019,1919,1818
1935,1711,1734
2025,1807,1789
1983,2079,1857
1994,1833,1820
2011,1675,1789
2007,1722,1805
1924,1858,1907
1899,1838,1879
1931,1847,1774
1990,1901,1781
1959,1967,1856
1879,1867,1839
1922,1751,1783
2041,1840,1804
2064,1968,1889
1988,2062,1872
1926,1835,1779
1968,1815,1813
1948,1710,1842
2000,1793,1877
1956,1850,1821
1991,1952,1821
1905,1805,1809
1963,1827,1808
1956,1869,1791
1969,1869,1782
1965,1890,1872
1939,1863,1841
1981,1920,1872
2016,1967,1846
1997,1809,1813
1936,1723,1770
1916,1824,1787
1905,1840,1820
1891,1859,1862
1991,1825,1829
1917,1856,1790
2060,2001,1903
2061,2064,1903
1854,1965,1856
1822,1648,1767
1850,1681,1776
1970,1822,1809
1997,1815,1814
1986,2066,1859
2061,1968,1809
1949,1893,1819
1904,1699,1773
1855,1748,1782
1936,1918,1863
1954,1943,1906
1920,1873,1851
1891,1769,1777
1963,1809,1807
1968,1829,1900
1938,1845,1856
1941,1862,1765
1931,1889,1791
2061,1916,1841
2035,2070,1885
1969,2015,1845
1898,1919,1827
1872,1666,1750
1872,1716,1819
1882,1751,1845
1995,1951,1895
1968,1909,1895
1955,1945,1810
1914,1744,1744
1936,1813,1860
1969,1922,1905
1915,1857,1850
1923,1837,1801
1952,1907,1821
2028,1887,1861
1898,1759,1792
1899,1923,1823
1990,2127,1902
1971,1814,1808
1870,1598,1787
1899,1759,1776
1969,2031,1878
1973,1828,1867
1869,1830,1843
1887,2007,1872
1969,1890,1893
2070,1797,1826
1899,1714,1750
1891,2000,1798
1951,2114,1894
1851,1739,1902
1810,1649,1776
1902,1810,1782
1967,1985,1883
1907,1975,1909
1889,1840,1855
1906,1843,1813
1978,1826,1856
1972,1909,1874
1920,1849,1814
2090,1814,1781
1883,1830,1822
1808,1905,1929
1874,1944,1898
1931,2052,1783
1893,1789,1834
1893,1712,1875
1883,1839,1854
1887,1823,1823
1904,1840,1835
1942,1862,1843
1915,1885,1819
1907,1855,1831
1959,1885,1872
1981,1910,1908
1927,1878,1826
1897,1926,1811
1984,1968,1869
2059,1911,1879
1853,1808,1846
1845,1893,1847
1909,1904,1917
1919,1879,1894
1919,1842,1857
1924,1849,1803
1941,1963,1842
1943,2016,1888
1909,1851,1819
1873,1790,1797
1893,1776,1853
1925,1807,1870
1933,1898,1882
1920,1995,1843
1940,1923,1846
1935,1884,1869
1907,2091,1884
1920,1745,1731
1957,1663,1773
1949,1762,1899
1939,1875,1938
1862,1889,1870
1893,2018,1873
1948,1920,1887
1937,1792,1835
1891,1974,1846
1921,2027,1897
1900,1845,1793
1857,1782,1827
1841,1726,1811
1898,1777,1842
1919,1895,1910
1930,1892,1872
1971,1839,1830
1914,1974,1890
1894,1968,1847
1875,1874,1792
1904,1732,1798
1904,1968,1862
1949,1974,1910
1895,1809,1873
1892,1771,1811
1914,1904,1841
1967,1915,1856
1905,1824,1779
1874,1877,1839
1906,2069,1927
1911,1898,1857
1875,1842,1807
1901,1785,1815
1915,1833,1863
1889,1883,1861
1872,2171,1895
1868,1858,1808
1903,1681,1811
1979,1845,1853
1924,1922,1819
1936,1939,1856
1899,1974,1899
1877,1814,1847
1851,1841,1823
1845,1949,1840
1900,2145,1905
1902,1872,1855
1825,1594,1776
1858,1758,1777
1902,1983,1835
1879,1962,1944
1849,1835,1869
1856,1819,1776
1994,1877,1808
1905,1899,1883
1808,1907,1879
1812,1751,1801
1907,1910,1845
1961,1930,1904
1919,1859,1870
1920,1944,1808
1886,1914,1842
1839,1803,1837
1818,1818,1787
1886,1941,1837
1976,1875,1851
1875,1799,1882
1821,1741,1843
1916,1789,1744
1939,1982,1860
1856,1946,1935
1824,1874,1852
1879,2011,1847
1968,2166,1877
1909,1707,1834
1849,1722,1806
1870,1946,1810
1936,1872,1798
1955,1779,1856
1875,1840,1909
1835,1873,1898
1904,1877,1878
1995,1955,1838
1877,1830,1840
1848,1932,1812
1808,1920,1858
1840,1840,1882
1907,1934,1866
1898,2043,1819
1887,1815,1792
1920,1819,1840
1873,1801,1797
1875,1885,1871
1877,1843,1930
1841,1850,1888
1833,1888,1845
1893,1919,1843
1909,2044,1875
1922,1972,1875
1932,1807,1792
1879,1936,1843
1922,1893,1901
1933,1746,1897
1872,1767,1869
1819,1773,1749
1847,1981,1903
1888,1919,1902
1918,1799,1786
1818,1869,1789
1809,1894,1904
1851,1910,1939
1865,1990,1871
1872,1893,1819
1926,1787,1856
1898,1898,1910
1862,1959,1875
1879,1874,1818
1930,1905,1839
1885,1906,1835
1855,1874,1834
1877,1847,1834
1872,1986,1876
1906,1871,1869
1913,1806,1836
1904,1726,1810
1902,1857,1851
1840,1981,1887
1826,1925,1842
1893,1862,1809
1946,1906,1856
1918,1963,1936
1818,1941,1890
1853,1904,1840
1901,1814,1828
1936,2029,1933
1901,1891,1901
1813,1739,1859
1840,1872,1850
1869,1918,1837
1870,1959,1838
1926,1904,1850
1893,1823,1843
1919,1915,1895
1863,1982,1863
1861,1721,1778
1872,1731,1840
1997,1914,1893
1911,2023,1840
1798,1778,1825
1862,1775,1875
1953,2097,1920
1835,1993,1870
1770,1733,1808
1831,1733,1809
1904,1945,1863
1882,1903,1844
1881,1794,1838
1890,1996,1904
1942,2162,1915
1856,1753,1808
1809,1687,1795
1852,1810,1845
1941,1886,1894
1862,1890,1840
1865,1906,1842
1958,2011,1856
1929,1947,1918
1808,1938,1845
1821,1869,1808
1843,1783,1834
1862,1762,1858
1904,1800,1811
1921,1821,1813
1858,1893,1888
1857,1910,1934
1841,1873,1861
1878,1924,1840
1949,1989,1857
1950,1903,1883
1874,1903,1842
1839,1982,1863
1843,1941,1859
1886,1767,1845
1856,1730,1792
1854,1840,1824
1936,1823,1912
1947,1830,1869
1837,1883,1815
1872,1997,1765
1931,1937,1847
1891,2142,1957
1807,1729,1856
1786,1605,1794
1890,1756,1873
1916,1959,1881
1876,1937,1834
1843,1823,1820
1847,1921,1837
1908,2022,1859
1904,2027,1813
1842,1733,1792
1867,1808,1859
1914,1919,1904
1926,1910,1838
1861,1871,1810
1809,1783,1853
1843,1894,1924
1847,1950,1847
1863,1818,1766
1921,1925,1862
1854,1946,1920
1844,1925,1856
1808,1811,1848
1877,1754,1870
1911,1799,1817
1863,1899,1805
1861,1999,1856
1892,1844,1811
1955,1782,1847
1917,1876,1818
1858,1883,1840
1835,1997,1876
1830,1909,1921
1867,1744,1847
1841,1791,1757
1813,1871,1847
1828,1855,1872
1850,1841,1843
1861,1775,1812
1889,1865,1866
1891,1891,1879
1863,1856,1851
1895,1838,1777
1878,1889,1843
1893,1907,1892
1946,1825,1829
1916,1898,1802
1826,1959,1885
1823,1808,1892
1716,1758,1859
1775,1788,1865
1899,1902,1903
1901,1943,1843
1872,2078,1872
1882,1742,1828
1891,1821,1814
1863,1949,1858
1854,1755,1788
1819,1822,1809
1850,1871,1861
1892,1950,1920
1863,2087,1883
1914,1887,1828
1985,1648,1782
1781,1814,1841
1765,1851,1825
1840,1807,1775
1883,1856,1843
1893,2037,1881
1844,1840,1814
1870,1831,1832
1861,1793,1861
1809,1823,1887
1846,1863,1846
1879,1968,1826
1901,1969,1856
1889,1856,1874
1897,1825,1839
1845,1801,1795
1787,1808,1841
1877,2032,1916
1882,1915,1841
1877,1694,1779
1869,1761,1779
1902,1923,1904
1848,1946,1894
1856,1826,1824
1827,1872,1840
1840,1885,1851
1877,2069,1853
1808,1861,1828
1828,1652,1825
1884,1807,1904
1891,1910,1850
1838,1910,1838
1873,1982,1849
1904,1872,1855
1898,1757,1797
1847,1831,1818
1846,1968,1872
1835,1855,1853
1894,1841,1808
1872,1776,1824
