2161,1751,1973
2162,1776,1963
2149,1726,1934
2107,1643,1904
2108,1628,1917
2145,1707,1966
2141,1771,1971
2093,1689,1910
2114,1744,1968
2112,1746,1947
2086,1689,1897
2053,1648,1886
2078,1675,1930
2113,1735,1968
2091,1776,1962
2042,1750,1910
2047,1674,1925
2084,1730,1973
2070,1777,1955
2038,1793,1927
2060,1801,1945
2057,1708,1930
2058,1722,1939
2016,1755,1920
2013,1648,1904
2059,1729,1973
2037,1797,1961
1979,1729,1888
1984,1680,1917
2015,1744,1966
2000,1774,1965
1959,1765,1920
1968,1795,1917
2006,1804,1953
2001,1765,1947
1950,1668,1897
1939,1665,1899
1979,1774,1936
1976,1786,1944
1945,1777,1913
1952,1798,1942
1971,1830,1951
1931,1741,1906
1894,1692,1853
1904,1741,1886
1954,1811,1953
1947,1817,1939
1895,1758,1886
1895,1766,1886
1923,1801,1922
1926,1830,1927
1891,1825,1899
1875,1790,1888
1891,1781,1908
1894,1808,1917
1875,1760,1879
1872,1778,1884
1907,1808,1936
1894,1825,1930
1858,1862,1883
1856,1843,1857
1871,1784,1888
1872,1829,1893
1845,1794,1858
1854,1835,1877
1871,1865,1913
1872,1801,1898
1827,1791,1855
1838,1872,1869
1872,1835,1904
1856,1799,1905
1823,1822,1867
1817,1808,1849
1843,1833,1886
1846,1853,1895
1813,1840,1863
1808,1853,1841
1839,1845,1878
1835,1859,1893
1799,1846,1854
1800,1801,1852
1820,1883,1884
1825,1951,1891
1791,1839,1841
1777,1794,1839
1806,1852,1881
1807,1898,1883
1789,1886,1842
1776,1858,1840
1806,1921,1872
1808,1904,1872
1769,1833,1833
1763,1867,1830
1803,1867,1862
1785,1879,1857
1749,1872,1815
1767,1903,1835
1808,1937,1866
1792,1904,1858
1751,1970,1841
1747,1978,1840
1772,1863,1844
1773,1807,1846
1744,1827,1804
1744,1866,1808
1776,1936,1851
1776,1941,1869
1750,1904,1827
1747,1911,1825
1776,1967,1855
1775,1941,1840
1714,1886,1807
1729,1893,1823
1766,1941,1870
1763,1945,1861
1728,1918,1817
1737,1910,1834
1753,1950,1838
1767,1970,1856
1741,1919,1839
1747,1898,1836
1765,1930,1855
1771,1943,1850
1728,1904,1808
1735,1913,1822
1763,1950,1866
1767,1966,1868
1730,1879,1822
1713,1910,1825
1751,1975,1863
1746,1941,1856
1714,1908,1825
1718,1887,1795
1754,1947,1861
1756,1950,1858
1713,1909,1821
1725,1941,1859
1763,1975,1878
1758,1954,1811
1712,1894,1769
1711,1871,1808
1754,1961,1855
1750,2021,1847
1697,1856,1795
1696,1840,1759
1734,1915,1885
1735,1941,1835
1701,1920,1814
1712,1921,1777
1749,1947,1836
1744,1957,1837
1711,1911,1839
1702,1927,1833
1741,1946,1838
1741,1933,1850
1711,1904,1835
1706,1904,1777
1739,1938,1841
1733,1946,1849
1711,1920,1792
1706,1919,1808
1728,1973,1861
1726,1955,1831
1705,1888,1771
1705,1920,1792
1742,1987,1863
1728,1938,1863
1697,1879,1791
1707,1879,1795
1734,1943,1845
1729,1974,1845
1693,1926,1842
1689,1902,1779
1722,1949,1779
1715,1936,1819
1691,1901,1737
1702,1909,1781
1731,1963,1883
1714,1957,1854
1674,1910,1785
1687,1906,1807
1726,1938,1791
1716,1953,1828
1702,1911,1789
1706,1906,1798
1741,1941,1808
1717,1958,1797
1684,1917,1802
1677,1909,1831
1714,1945,1810
1719,1954,1811
1680,1898,1776
1679,1904,1775
1735,1937,1809
1724,1979,1845
1680,1877,1762
1689,1845,1791
1716,1881,1819
1717,1905,1798
1687,1871,1745
1696,1894,1807
1727,1951,1871
1712,1909,1872
1673,1887,1823
1671,1886,1746
1708,1911,1762
1712,1919,1776
1675,1872,1816
1668,1888,1808
1712,1936,1871
1712,1953,1840
1664,1897,1789
1668,1869,1786
1705,1905,1814
1698,1910,1807
1657,1885,1803
1680,1877,1774
1716,1921,1814
1702,1926,1809
1669,1887,1818
1675,1860,1791
1712,1907,1835
1702,1911,1809
1664,1885,1796
1675,1862,1828
1711,1870,1838
1710,1877,1771
1657,1857,1677
1674,1862,1793
1723,1915,1811
1709,1903,1826
1662,1849,1762
1658,1847,1760
1707,1890,1808
1705,1917,1808
1669,1865,1753
1674,1855,1754
1712,1887,1805
1699,1904,1815
1672,1900,1797
1680,1833,1781
1706,1855,1764
1704,1855,1792
1668,1837,1808
1667,1856,1775
1703,1875,1773
1712,1874,1790
1681,1840,1826
1682,1855,1809
1712,1867,1811
1698,1839,1777
1657,1830,1747
1675,1883,1827
1712,1859,1881
1706,1858,1798
1677,1814,1739
1671,1808,1808
1710,1843,1811
1699,1863,1776
1677,1843,1801
1682,1839,1815
1726,1872,1818
1725,1872,1811
1686,1855,1782
1684,1824,1741
1707,1837,1865
1723,1840,1827
1709,1810,1806
1711,1812,1777
1744,1842,1801
1722,1871,1806
1689,1783,1795
1699,1818,1795
1735,1826,1808
1731,1813,1823
1699,1808,1776
1703,1822,1823
1741,1862,1812
1727,1839,1774
1680,1791,1744
1712,1813,1799
1747,1845,1813
1745,1835,1824
1719,1795,1760
1711,1792,1762
1738,1830,1784
1734,1863,1871
1725,1846,1757
1726,1814,1809
1747,1792,1811
1747,1786,1809
1719,1778,1776
1730,1802,1780
1755,1804,1805
1749,1807,1824
1729,1810,1817
1733,1799,1804
1764,1822,1825
1751,1823,1810
1728,1786,1765
1733,1782,1792
1770,1833,1840
1763,1855,1839
1742,1770,1778
1735,1775,1776
1767,1830,1811
1769,1829,1837
1744,1801,1796
1749,1795,1807
1775,1845,1839
1771,1827,1840
1733,1749,1805
1747,1763,1808
1789,1817,1853
1776,1836,1843
1728,1776,1792
1729,1793,1789
1782,1826,1843
1790,1830,1847
1742,1791,1795
1748,1802,1797
1785,1833,1840
1776,1823,1846
1739,1790,1802
1744,1792,1798
1811,1846,1840
1745,1840,1845
1705,1777,1793
1707,1779,1792
1792,1824,1833
1738,1840,1841
1754,1813,1808
1777,1789,1809
1815,1813,1827
1811,1825,1833
1737,1804,1804
1778,1804,1814
1792,1890,1861
1777,1874,1853
1726,1750,1795
1757,1733,1806
1821,1856,1843
1796,1849,1842
1779,1845,1834
1762,1807,1821
1783,1778,1826
1778,1793,1834
1760,1787,1814
1772,1802,1808
1806,1842,1840
1776,1843,1839
1733,1821,1805
1805,1823,1815
1747,1840,1834
1798,1839,1819
1774,1808,1791
1807,1834,1810
1803,1835,1855
1795,1834,1846
1795,1812,1792
1774,1813,1808
1814,1867,1871
1807,1855,1865
1776,1811,1815
1829,1834,1817
1808,1874,1839
1807,1926,1859
1744,1853,1814
1814,1802,1808
1812,1831,1840
1836,1863,1840
1787,1852,1814
1815,1860,1830
1822,1887,1866
1820,1901,1858
1819,1872,1826
1807,1862,1833
1823,1872,1852
1829,1877,1846
1786,1856,1821
1806,1859,1834
1856,1904,1870
1842,1890,1867
1819,1858,1809
1783,1866,1825
1857,1891,1846
1856,1885,1853
1818,1875,1839
1821,1878,1835
1830,1857,1863
1846,1859,1855
1806,1840,1825
1825,1853,1831
1857,1913,1875
1835,1869,1843
1823,1825,1806
1805,1835,1822
1871,1876,1877
1875,1872,1861
1828,1826,1806
1779,1835,1831
1890,1869,1872
1835,1864,1862
1856,1830,1829
1829,1831,1839
1866,1871,1872
1898,1882,1872
1835,1833,1819
1791,1808,1824
1862,1841,1865
1893,1847,1856
1813,1816,1807
1851,1812,1829
1871,1845,1866
1868,1872,1871
1820,1810,1823
1805,1803,1817
1863,1852,1865
1874,1846,1862
1833,1793,1819
1844,1810,1834
1865,1855,1866
1858,1840,1859
1826,1802,1814
1842,1795,1823
1866,1831,1867
1851,1818,1856
1828,1791,1825
1803,1797,1828
1870,1835,1866
1850,1840,1866
1803,1790,1822
1861,1781,1823
1888,1809,1856
1854,1821,1860
1815,1791,1838
1823,1808,1839
1840,1801,1869
1827,1790,1858
1841,1776,1837
1845,1778,1855
1866,1808,1883
1819,1808,1861
1818,1779,1825
1858,1797,1851
1861,1808,1898
1872,1808,1889
1827,1785,1846
1835,1787,1846
1872,1807,1891
1872,1803,1898
1843,1770,1866
1854,1779,1862
1918,1815,1888
1881,1834,1883
1846,1833,1858
1936,1781,1876
1856,1786,1886
1882,1776,1874
1846,1747,1845
1854,1762,1845
1899,1804,1889
1887,1813,1893
1847,1779,1853
1841,1775,1851
1879,1808,1887
1872,1811,1881
1922,1782,1855
1831,1781,1869
1866,1821,1904
1864,1831,1909
1818,1799,1867
1854,1791,1855
1905,1824,1886
1903,1829,1887
1855,1808,1855
1868,1799,1851
1950,1808,1887
1911,1795,1882
1855,1773,1856
1869,1771,1860
1919,1825,1893
1904,1853,1927
1855,1792,1861
1852,1802,1835
1895,1821,1867
1890,1832,1875
1856,1816,1840
1872,1830,1861
1910,1882,1915
1902,1878,1902
1857,1843,1853
1863,1855,1851
1882,1882,1872
1893,1889,1863
1875,1866,1860
1881,1874,1876
1908,1899,1900
1904,1904,1885
1865,1872,1833
1872,1882,1841
1909,1930,1892
1906,1982,1894
1863,1917,1849
1872,1866,1840
1905,1907,1882
1902,1924,1885
1865,1901,1842
1872,1904,1851
1906,1941,1894
1902,1936,1877
1862,1907,1834
1863,1915,1840
1902,1956,1877
1904,1965,1887
1871,1934,1847
1879,2021,1862
1909,2010,1890
1898,1929,1871
1861,1854,1822
1861,1883,1827
1904,1946,1872
1901,1958,1878
1866,1935,1836
1872,1939,1845
1901,1968,1872
1895,1971,1877
1872,1936,1846
1877,1927,1841
1907,1968,1887
1889,1969,1879
1856,1938,1840
1878,1947,1854
1911,1983,1888
1901,1955,1872
1865,1937,1847
1872,1954,1856
1907,1984,1895
1895,1965,1889
1856,1917,1850
1879,1926,1870
1919,1970,1904
1904,1936,1884
1870,1907,1840
1872,1903,1847
1907,1979,1895
1904,1994,1899
1871,1857,1845
1870,1919,1840
1898,1927,1885
1904,1972,1893
1874,1917,1857
1920,1957,1903
2023,2057,1997
1934,1959,1927
1792,1834,1776
1797,1847,1777
1911,1917,1879
2025,2082,1954
1962,2058,1902
1855,1862,1808
1887,2018,1867
1920,2067,1882
1951,1958,1811
1782,1879,1717
1729,1862,1760
1776,1885,1774
1785,1771,1748
1834,1837,1761
1885,1959,1885
1956,2038,2000
1985,2098,1989
1801,1916,1797
1702,1899,1701
1759,1924,1747
1806,1925,1777
1853,1981,1827
1927,2039,1920
1901,2087,1902
1750,1953,1741
1750,1879,1748
1826,1795,1846
1808,1815,1801
1872,1945,1792
2251,2279,2166
2057,2133,2035
1511,1751,1568
1477,1642,1488
1680,1805,1702
1851,2035,1852
1802,1978,1803
1707,1725,1738
1811,1857,1830
1969,2039,1967
1714,1801,1750
1602,1671,1701
1751,1755,1827
1907,2030,1946
1821,2053,1820
1714,1717,1634
1717,1606,1659
1742,1707,1767
1776,1834,1870
1755,1829,1807
1737,1811,1795
1776,1840,1840
1795,1893,1847
1739,2005,1820
1683,1638,1739
1729,1633,1753
1757,1809,1791
1714,1808,1763
1718,1798,1765
1775,1899,1807
1763,1758,1765
1743,1578,1719
1714,1694,1757
1738,1751,1805
1759,1872,1792
1715,1788,1725
1724,1710,1729
1781,1910,1808
1743,1782,1773
1703,1645,1744
1685,1601,1712
1755,1680,1755
1759,1856,1903
1780,1814,1854
1725,1653,1655
1722,1885,1707
1712,1768,1765
1680,1574,1851
1725,1636,1712
1997,2064,1698
1779,1639,1642
1527,1560,1721
1648,1927,1810
1872,1856,1745
1695,1535,1711
1603,1484,1719
1661,1558,1827
1759,1597,1846
1819,1750,1744
1752,1798,1741
1719,1665,1923
1727,1690,1805
1767,1676,1691
1761,1682,1665
1780,1703,1729
1808,1782,1800
1713,1711,1824
1697,1612,1771
1699,1559,1759
1733,1655,1811
1745,1682,1827
1734,1708,1801
1758,1807,1765
1846,1808,1803
1797,1638,1792
1715,1721,1814
1742,1674,1843
1787,1733,1879
1749,1751,1808
1744,1715,1721
1822,1836,1776
1822,1787,1909
1765,1828,1934
1734,1863,1826
1775,1780,1770
1826,1941,1775
1821,2003,1794
1779,1872,1790
1773,1947,1728
1790,1996,1772
1753,1977,1786
1664,1969,1799
1717,2109,1857
1789,2143,1873
1808,2000,1827
1789,2069,1795
1773,2045,1782
1776,2161,1898
1747,2259,1807
1766,2285,1719
1748,2197,1776
1839,2363,1919
1840,2352,1815
1680,2231,1743
1671,2337,1847
1712,2275,1840
1840,2443,1825
1814,2425,1714
1684,2214,1766
1926,2416,1808
1808,2611,1793
1629,2793,1904
1669,2559,1888
1887,2461,1874
1997,2631,1730
1683,2860,1707
1810,2800,1792
1760,2820,1888
1742,2859,1823
1776,2721,1807
1674,2783,1806
1758,2994,1877
1915,3250,1825
1659,2807,1633
1493,2799,1786
1664,3049,1880
1909,2878,1882
1752,2995,1837
1597,3195,1793
1640,3146,1771
1694,3331,1798
1577,3029,1737
1697,2989,1861
1671,3228,1819
1687,3326,1773
1680,3280,1709
1601,3399,1735
1570,3333,1773
1617,3334,1790
1507,3289,1796
1584,3347,1798
1635,3360,1856
1555,3278,1749
1590,3210,1703
1570,3146,1767
1584,3234,1856
1616,3463,1839
1570,3310,1785
1459,2992,1683
1569,3071,1747
1808,3088,1845
1530,3071,1759
1328,3188,1835
1516,3371,1869
1525,3018,1904
1507,3041,1750
1494,2984,1754
1665,2989,1763
1605,2902,1793
1497,3129,1876
1424,3071,1840
1385,2922,1788
1472,2748,1771
1803,2866,1818
1609,2930,1785
1344,2858,1871
1334,2685,1840
1445,2837,1835
1503,2785,1853
1558,2720,1887
1524,2730,1894
1488,2701,1773
1535,2671,1738
1520,2610,1859
1633,2444,1898
1622,2455,1860
1495,2531,1840
1421,2603,1880
1518,2654,1945
1515,2621,1858
1515,2496,1805
1466,2395,1888
1451,2470,1904
1488,2447,1935
1511,2406,1873
1511,2448,1885
1466,2349,1914
1433,2311,1825
1456,2415,1821
1484,2237,1877
1508,2298,1899
1488,2384,1909
1498,2502,1906
1507,2135,1903
1473,2081,1903
1437,2096,1877
1488,2238,1909
1567,2299,1962
1513,2185,1925
1472,2127,1928
1564,2393,2015
1556,2159,1958
1408,1984,1863
1370,2023,1862
1521,2198,1966
1440,2095,1891
1309,1981,1859
1254,2002,1907
1357,1958,1968
1422,2002,1962
1397,1855,1934
1407,1919,1886
1435,1970,1987
1504,2159,2147
1669,2006,1872
1309,1745,1738
1206,1664,1910
1361,1885,2019
1444,1830,2001
1481,1872,1961
1421,1781,1947
1439,1820,2021
1456,1907,1955
1423,1723,1902
1444,1795,1903
1519,1859,1984
1535,1710,2005
1471,1712,1945
1436,1711,1935
1759,1856,1966
1841,1749,1838
1303,1579,1906
1251,1590,1946
1600,1861,1965
1775,1648,1917
1734,1729,1943
1247,1616,2121
1473,1595,2095
1495,1648,1872
1458,1535,1822
1616,1783,1947
1579,1862,2029
1533,1488,1922
1523,1458,1856
1529,1665,1999
1568,1627,1971
1599,1829,1922
1677,1535,1846
1658,1477,1839
1574,1520,1872
1664,1635,2015
1693,1535,1925
1505,1499,1819
1461,1490,1888
1595,1571,1929
1731,1681,1942
1693,1724,1954
1645,1680,2000
1745,1498,1910
1853,1729,1883
1618,1535,1874
1615,1520,1865
1625,1633,1933
1584,1600,1934
1607,1648,2000
1693,1734,2032
1681,1616,1840
1680,1666,1853
1617,1469,1868
1674,1600,1882
1765,1706,1870
1918,1731,1878
1840,1728,1899
1600,1788,1930
1535,1647,1950
1634,1535,1905
1738,1633,1881
1787,1761,1968
1795,1805,1920
1771,1767,1842
1711,1653,1776
1763,1904,1935
1856,1937,1934
1744,1593,1886
1665,1563,1965
1857,1728,1923
1741,1817,1842
1659,1838,1859
1719,1649,1866
1791,1723,1904
1919,1802,1906
1936,1801,1859
1850,1667,1879
1712,1650,1918
1726,1803,1982
1824,1725,1869
1958,1734,1826
1887,1840,1879
1679,1645,1920
1649,1629,1851
1793,1703,1840
1858,1834,1931
1825,1776,1911
1792,1718,1893
1827,1828,1915
1874,1755,1867
1871,1750,1873
1745,1579,1872
1776,1535,1929
1872,1675,1919
1841,1761,1843
2000,1957,1839
2149,1625,1734
1811,1712,1893
1632,1600,1955
1761,1573,1871
1872,1615,1840
1859,1729,1947
1857,1840,1931
1859,1733,1872
1885,1616,1856
1965,1738,1882
2019,1826,1867
1962,1790,1825
1833,1489,1799
1773,1646,1921
1838,1664,1904
1975,1737,1856
1872,1757,1903
1856,1630,1891
1900,1660,1929
1856,1600,1846
1864,1616,1882
1938,1748,1867
1958,1744,1850
2006,1776,1849
2174,1747,1878
1918,1535,1876
1779,1618,1950
1873,1635,1840
1890,1685,1857
1889,1661,1891
1923,1877,1886
1920,1635,1828
1938,1584,1861
1962,1727,1968
2002,1707,1946
1935,1719,1824
1877,1585,1807
1997,1657,1861
2080,1735,1865
1920,1648,1803
1990,1742,1935
2039,1715,1920
1975,1648,1837
1889,1601,1871
1920,1616,1911
1971,1681,1934
1949,1691,1926
1937,1751,1917
1967,1680,1863
1974,1607,1913
2025,1828,1966
2085,1599,1821
2062,1662,1862
2031,1711,1936
1864,1648,1915
1890,1696,1931
1966,1631,1825
2000,1618,1830
1985,1712,1894
1973,1735,1882
1994,1657,1797
2017,1600,1845
2000,1660,1902
2001,1661,1894
2161,1810,1735
1982,1600,1767
1814,1598,1918
1870,1624,1936
2069,1731,1895
2133,1852,1835
1939,1641,1750
1801,1488,1751
1877,1523,1820
2001,1658,1839
1999,1744,1872
1983,1761,1840
2119,1993,1856
1968,1535,1793
1898,1462,1851
2047,1610,1807
2013,1636,1898
2074,1786,1945
1968,1964,1793
1831,1620,1777
1925,1584,1798
2014,1727,1922
2047,1823,1910
1945,1636,1786
1899,1584,1728
1996,1642,1857
2203,1721,1840
2064,1826,1782
1910,1837,1765
1935,1586,1836
2064,1742,1830
1996,1662,1808
1882,1648,1854
1939,1747,1860
2019,1860,1869
1968,1654,1915
2021,1712,1834
2113,1763,1754
2103,1680,1761
1911,1728,1856
1871,1696,1840
1993,1747,1841
2092,1779,1818
1987,1745,1853
1939,1789,1786
1953,1775,1865
2002,1680,1905
1990,1761,1847
1990,1888,1749
2182,1869,1808
2081,1678,1802
1885,1739,1837
1920,1744,1929
1962,1744,1936
2064,1719,1808
1978,1828,1803
2006,1846,1870
2007,1842,1903
1985,1886,1815
1961,1721,1736
2000,1696,1750
2081,1744,1815
1969,1823,1826
1948,1879,1844
2019,1831,1839
1961,1712,1883
2113,1758,1862
2064,1842,1795
1936,1955,1861
1957,1803,1879
2173,1749,1841
2091,1769,1744
2123,1985,1845
1836,1822,1914
1842,1599,1877
1910,1661,1814
2039,1881,1840
2083,1838,1861
2102,1815,1802
1876,1788,1865
1837,1873,1938
1918,1836,1905
1993,1882,1809
2000,1680,1753
1954,1776,1808
1969,1814,1839
2007,2000,1868
2000,1840,1803
1938,1749,1846
2014,1831,2062
2126,1903,1872
2080,1853,1605
1886,1767,1713
1934,1728,1947
2096,1791,1904
1968,1924,1882
1908,1953,1842
1968,1817,1810
1943,1759,1860
2025,1802,1776
2064,2010,1827
2181,1904,1872
1965,1819,1894
1778,1726,1904
1854,1867,1828
2023,1929,1927
2180,2011,1889
1971,1953,1769
1862,1586,1823
1919,1737,1808
2031,1902,1872
2233,1946,1837
1956,1933,1861
1802,1854,1879
1859,1878,1892
1965,1793,1879
2006,1817,1833
2039,1942,1908
2000,1904,1822
1986,1850,1867
2037,1963,1897
1999,1779,1797
2021,1850,1811
1933,1847,1872
1968,2193,1968
1901,1776,1825
1986,1728,1876
2072,1703,1760
1872,1822,1765
1877,1945,1872
1926,1899,1795
1870,1855,1859
1997,1958,1874
2064,2128,1937
2017,1917,1892
1887,1619,1702
1827,1712,1775
1936,2155,1872
1985,2131,1902
1936,1691,1823
2047,1727,1775
2013,1945,1872
1906,1824,1865
1907,1679,1776
1950,1897,1858
1935,2006,1897
1879,1899,1830
1936,1901,1786
2054,1952,1787
2035,1739,1807
1796,1817,1934
1870,1897,1886
2025,1869,1815
1895,1924,1866
1856,1904,1895
1958,1901,1789
1970,1898,1751
1933,1893,1879
1862,1744,1881
1885,1865,1814
1930,1890,1821
1936,1834,1829
1943,1996,1878
1921,1946,1858
2016,1753,1822
2064,1744,1675
1904,1833,1792
1823,1875,1877
1831,1904,1933
2010,1937,1863
2005,1913,1827
1788,1683,1755
1839,1719,1786
2062,1825,1922
2103,2021,1840
1791,1808,1806
1755,1792,1811
1949,2066,1841
2039,1939,1856
1926,1682,1764
1950,1741,1782
1862,1871,1895
1860,1863,1870
1844,1845,1811
1915,1777,1805
2000,1922,1898
1935,1974,1927
2070,1953,1812
1973,1803,1756
1914,1841,1811
1872,1951,1866
1865,1778,1834
1809,1808,1872
1901,1843,1916
1889,1794,1840
1879,1917,1757
1904,1985,1855
1971,1905,1937
1936,1904,1838
1863,1730,1810
1974,1779,1802
1918,1894,1830
1895,1914,1872
1874,1814,1903
1936,1826,1851
1959,2033,1875
1940,1952,1855
1943,1840,1920
1811,1741,1800
1966,1755,1936
1905,1865,1870
1963,1887,1886
1920,1941,1761
1922,1907,1807
1865,2000,1811
1841,1811,1808
2070,1793,1831
1909,1872,1849
1834,1776,1956
1809,1806,1869
2040,1883,1808
1950,1923,1833
1882,1923,1855
1840,1936,1841
1963,1917,1854
1915,1852,1835
1872,1774,1824
1891,1947,1906
1928,1941,1870
1985,1775,1857
1920,1750,1856
1888,1876,1853
1941,2003,1871
1846,1837,1873
1881,1869,1846
1867,1854,1874
1916,1900,1840
1951,1965,1855
1917,1968,1877
1856,1821,1874
1871,1728,1819
1960,1846,1826
1946,1927,1859
1891,2006,1853
1870,2023,1852
1904,1898,1900
1968,1803,1847
1940,1837,1830
1827,1794,1918
1871,1881,1936
1923,1951,1872
1986,1889,1805
2028,1826,1826
1909,1866,1894
1927,2018,1910
1835,1967,1862
1936,1909,1836
1967,1898,1881
1936,1785,1880
1914,1838,1871
1911,1926,1872
1904,1901,1934
1887,1996,1871
1872,1827,1842
1997,2058,1911
1984,1971,1860
1859,1734,1844
1904,1664,1815
1845,1831,1858
1968,1955,1907
1882,1886,1887
1830,1856,1814
1882,2055,1859
1995,1874,1829
1904,1821,1834
1914,1890,1913
1823,1906,1941
1891,1876,1855
1916,1849,1878
1905,1814,1818
1867,1904,1899
1974,1935,1919
1862,1873,1934
1858,1989,1831
1931,1942,1859
1958,1968,1891
1902,1794,1904
1990,1740,1762
1888,1982,1858
1840,2075,1935
1936,1812,1867
1872,1790,1845
1834,1795,1845
1854,1885,1878
1879,1926,1893
1894,1984,1876
1843,1920,1895
1927,1863,1895
1947,1810,1839
1873,1820,1834
1906,1956,1832
1921,1890,1871
1936,2096,1950
1906,1983,1863
1966,1719,1789
1857,1771,1924
1863,1901,1922
1872,2007,1851
1840,1854,1818
1957,1911,1870
1923,1907,1819
1820,1914,1840
1840,1847,1872
1953,1957,1905
1975,1968,1888
1874,1874,1840
1835,1921,1867
2019,1939,1850
1886,1899,1879
1945,1904,1936
1870,1754,1830
1885,1846,1877
1853,1879,1799
1888,1931,1797
1931,1935,1883
1903,2100,1894
1847,1870,1847
1839,1710,1803
1914,1848,1863
1995,1917,1911
1955,1879,1818
1863,1845,1850
1859,1910,1891
1904,2064,1943
1936,1819,1860
1891,1873,1799
1824,1869,1871
1904,1971,1902
1910,1894,1906
1856,1920,1834
1884,1796,1804
1947,1870,1863
1957,2083,1887
1858,1821,1837
1867,1707,1821
1887,1857,1858
1921,1937,1930
1932,2125,1843
1904,1959,1871
1900,1729,1872
1929,1859,1878
1925,1970,1834
1887,1779,1777
1872,1824,1845
1851,1903,1917
1862,1946,1870
1914,1968,1855
1931,1909,1857
1968,1968,1846
1935,1977,1793
1921,1697,1781
1856,1726,1936
1938,1898,1925
1931,1967,1840
1917,1942,1808
1878,1959,1852
1852,1943,1874
1854,1814,1902
1871,1825,1811
1894,1807,1792
1919,1981,1913
1904,1856,1809
1867,1771,1712
1889,1899,1805
1886,1975,1861
1921,1900,1868
1933,1839,1822
1865,1780,1815
1903,1869,1875
1807,1862,1811
1832,1859,1792
1852,1888,1891
1873,1871,1840
1868,1904,1766
1895,1894,1819
1911,1902,1796
1819,1783,1786
1789,1872,1850
1904,1893,1797
1907,1835,1903
1775,1821,1787
1779,1862,1755
1857,1958,1868
1909,1828,1830
1872,1861,1781
1813,1813,1735
1861,1929,1865
1903,1771,1894
1872,1891,1807
1882,1794,1729
1863,1753,1728
1901,1898,1805
1862,1917,1907
1811,1840,1851
1767,1805,1780
1809,1839,1815
1846,1837,1808
1840,1975,1809
1837,1984,1826
1867,1785,1853
1868,1729,1875
1809,1823,1791
1828,1920,1777
1872,1864,1819
1857,1904,1828
1811,1786,1723
1869,1879,1834
1899,1918,1843
1848,1739,1776
1786,1737,1781
1902,1858,1823
1989,1920,1872
1840,1884,1899
1681,1813,1859
1747,1840,1808
1866,1957,1805
1905,1963,1838
1861,1850,1758
1840,1846,1744
1842,1805,1791
1846,1782,1874
1841,1923,1838
1856,1911,1815
1851,1801,1873
1850,1847,1856
1856,1932,1780
1869,1872,1807
1856,1863,1808
1855,1799,1846
1855,1803,1766
1840,1930,1807
1853,1970,1838
1838,1871,1825
1861,1782,1792
1825,1845,1806
1862,1919,1894
1856,1994,1981
1815,1866,1802
1830,1728,1754
1882,1805,1861
1866,1886,1845
1834,1888,1797
1856,1963,1904
1883,1927,1878
1872,1849,1795
1856,1818,1806
1883,1987,1957
1905,1967,1855
1891,1849,1764
1872,1818,1746
1842,1811,1884
1927,1945,1899
1869,1984,1808
1803,1871,1843
1936,1807,1827
1967,1925,1856
1843,1975,1872
1757,1770,1798
1869,1822,1895
1917,1878,1864
1842,1842,1776
1877,1907,1834
1916,1922,1857
1861,1873,1867
1835,1885,1874
1840,1872,1847
1907,1945,1833
1926,1761,1835
1890,1744,1874
1810,1856,1871
1919,1963,1898
1908,1919,1847
1903,1837,1771
1839,1930,1834
1839,1949,1856
1877,1891,1847
1979,1862,1839
1831,1790,1814
1867,1771,1840
1895,1938,1977
1898,1983,1926
1842,1872,1840
1910,1906,1797
1886,1809,1838
1883,1917,1875
1856,1826,1851
1875,1920,1841
1904,1859,1873
1936,1843,1858
1953,1853,1792
1908,1835,1799
1871,1882,1904
1847,1904,1859
1868,1936,1920
1907,1959,1916
1906,1942,1874
1874,1840,1850
1889,1753,1750
1866,1883,1795
1869,2007,1888
1865,1927,1925
1903,1856,1786
1913,1842,1886
1948,2058,1902
1926,1987,1840
1855,1710,1759
1840,1807,1835
1879,1904,1936
1891,1872,1945
1921,1840,1856
1878,1932,1786
1903,1925,1824
1885,1913,1856
1888,1891,1831
1907,1904,1872
1941,1915,1899
1919,1909,1877
1893,1911,1826
1889,1799,1822
1953,1925,1968
1941,1982,1953
1929,2039,1905
1811,1824,1783
1839,1822,1783
1883,1854,1823
1881,1821,1828
1920,1885,1847
1919,1936,1901
1899,1947,1887
1894,1882,1885
1919,1845,1824
1919,1956,1845
1910,1968,1883
1907,1853,1811
1970,1923,1895
2001,2126,1999
1962,1957,1894
1781,1636,1744
1793,1776,1743
1961,1898,1840
2000,1999,1849
1840,1903,1875
1837,1847,1899
1964,2046,2029
1943,1945,1957
1870,1799,1722
1856,1773,1772
1904,1886,1856
1938,1937,1904
1913,1927,1857
1964,2022,1883
1936,1978,1889
1930,1904,1850
1861,1813,1870
1859,1872,1973
1935,1908,1936
1910,1931,1885
1886,1899,1719
1869,1859,1745
1894,1926,1877
1920,1939,1941
1962,1872,1866
1909,1850,1842
1872,1877,1829
1873,1792,1858
1886,1851,1911
1915,1834,1853
2035,1897,1829
1922,1984,1831
1931,2018,1866
1941,1787,1853
1835,1794,1830
1836,1995,1895
1845,1853,1862
1904,1771,1854
1933,1971,1904
1957,2126,1945
1936,1945,1824
1902,1749,1790
1887,1815,1827
1936,1856,1855
2098,1894,1823
1904,2017,1867
1872,1859,1881
1854,1830,1903
1842,1873,1919
1888,1957,1836
1933,2057,1872
1902,1874,1885
1903,1943,1827
1899,1777,1875
1933,2000,1889
1922,1872,1842
1920,1781,1822
1905,1840,1872
1906,1935,1904
1948,1990,1905
1920,1921,1871
1915,1911,1917
1967,1907,1851
1978,1904,1904
1886,1858,1821
1850,1875,1891
1871,2012,1936
1862,1851,1851
1861,1719,1810
1950,1810,1840
1930,1884,1845
1915,2065,1885
1909,2113,1905
1872,1815,1901
1902,1833,1830
1876,1833,1870
1871,1890,1872
1887,1804,1901
1909,1966,1904
1905,1970,1879
1920,1919,1753
1935,1915,1830
2010,1892,1916
1843,1861,1931
1881,1909,1831
1872,2035,1868
1890,1962,1901
1840,1794,1842
1855,1762,1808
1903,1843,1776
1897,1907,1791
1873,1912,1902
1855,1951,1895
1878,2029,1895
