1863,2026,1885
1879,1879,1776
1866,1706,1827
1874,1883,1867
1890,1939,1853
1830,1861,1859
1881,1953,1872
1859,1939,1903
1845,1921,1865
1889,2102,1849
1891,1847,1833
1915,1764,1817
1855,1761,1857
1883,1830,1906
1936,2069,1883
1884,1893,1845
1845,1808,1813
1908,1828,1822
1985,2000,1861
1875,1927,1904
1850,1808,1833
1920,1791,1839
1900,1881,1894
1897,2064,1879
1841,1885,1850
1823,1740,1843
1949,1820,1840
1967,2112,1941
1821,1909,1840
1837,1697,1817
1899,1770,1869
1862,1904,1879
1847,1959,1872
1920,2000,1893
1968,2043,1873
1867,1824,1877
1870,1793,1817
1878,1794,1806
1872,1982,1894
1919,2064,1920
1918,1858,1851
1933,1893,1766
1913,1812,1861
1885,1839,1904
1869,1817,1835
1936,1838,1783
2030,1989,1842
1943,1891,1911
1794,1838,1855
1767,1865,1859
1879,1969,1900
1922,1842,1887
1989,1846,1831
1856,1822,1840
1863,1920,1913
1889,1948,1911
1879,1872,1843
1904,1876,1833
1968,1950,1887
1991,1979,1905
1931,1988,1868
1936,1867,1808
1950,1835,1827
1978,1866,1885
1851,1897,1838
1856,1808,1839
1869,1861,1931
1878,1900,1968
1872,1941,1881
1894,1982,1847
1935,1942,1904
1936,1963,1920
1895,1898,1871
1883,1728,1827
1933,1808,1895
1967,1933,1919
1930,2035,1833
2010,2000,1811
2017,2189,1922
2029,2039,1935
1866,1941,1882
1854,1744,1807
1840,1867,1899
1968,1983,1947
1995,1962,1906
1872,1953,1887
1863,2096,1933
1913,2038,1923
1919,1966,1870
1959,2095,1875
2007,2055,1958
1936,1969,1931
1878,1927,1841
1965,2127,1856
2026,2079,1926
1974,2014,1939
1934,1975,1865
1925,2003,1862
1994,2169,1963
1950,2082,1936
1888,2003,1881
1985,2081,1886
1920,1954,1885
1994,2037,1898
1873,2057,1903
1871,1948,1923
1926,1968,1987
1949,2112,1966
1891,2000,1854
1879,2047,1847
1948,2304,1939
2014,2291,1955
2007,1936,1805
2017,1911,1802
2214,2000,1944
2443,2255,1975
2516,2198,1897
2292,1997,1846
2133,2032,1843
2106,2053,1878
2147,2007,1854
2160,1995,1862
2149,2122,1915
1917,2215,1934
1776,2101,1840
1808,1967,1775
1843,2070,1903
1843,2211,2015
1839,2161,2099
1840,2073,2250
1835,2247,2480
1835,2266,2650
1838,2190,2592
1839,2251,2487
1836,2262,2391
1830,2144,2217
1834,1968,2117
1831,2003,2135
1837,2125,2139
1834,2175,2116
1835,2204,2042
1834,2174,1957
1836,2041,1933
1838,2099,1966
1831,2090,1922
1839,2181,1766
1833,2180,1522
1831,2202,1694
1830,1998,1837
1831,2005,1862
1837,2113,1842
1838,2197,1827
1835,2143,1827
1833,2276,1827
1834,2096,1828
1826,2037,1827
1835,2093,1825
1817,1898,1828
1872,1972,1832
1901,2075,1831
1867,2065,1829
1856,2110,1832
1874,2135,1834
1904,2143,1829
1861,2190,1830
1835,2015,1831
1827,2092,1829
1874,2019,1831
1903,2071,1828
1838,1989,1829
1840,2033,1827
1904,2126,1828
1869,2087,1830
1779,2032,1831
1814,2065,1827
1884,2160,1830
1917,2084,1831
1847,1974,1833
1834,1986,1833
1858,2006,1829
1860,2080,1818
1936,2026,1759
1855,2010,1795
1812,1987,1819
1794,1949,1766
1837,2081,1794
1911,2240,1878
1893,1887,1802
1849,1855,1721
1830,1922,1779
1894,2047,1887
1915,2126,1872
1891,2122,1794
1932,1903,1749
1866,1919,1797
1866,1939,1827
1841,1903,1769
1878,1935,1798
1920,1981,1886
1866,2016,1891
1766,1947,1799
1837,1935,1770
1959,2014,1853
1918,2067,1878
1835,1956,1782
1838,1936,1813
1904,2007,1862
1907,1951,1891
1844,1821,1804
1840,1820,1785
1906,2005,1836
1936,1967,1906
1875,1895,1821
1873,1840,1771
1930,1999,1846
1931,1991,1854
1821,1872,1782
1823,1968,1840
1878,1937,1883
1925,1936,1877
1857,1889,1855
1849,1846,1806
1936,1947,1845
1935,1854,1885
1859,1834,1808
1882,1831,1805
1953,1945,1885
1887,1941,1869
1792,1819,1777
1843,1854,1798
1904,1890,1885
1919,1904,1894
1869,1872,1824
1834,1896,1814
1886,1904,1868
1904,1905,1906
1879,1843,1864
1883,1884,1842
1921,1893,1871
1939,1899,1876
1925,2000,1857
1872,1808,1807
1917,1781,1847
1947,1831,1799
1872,1882,1813
1879,1839,1856
1978,1872,1903
1938,1895,1904
1828,1845,1807
1846,1845,1807
1913,1916,1874
1918,1911,1897
1876,1825,1847
1869,1805,1851
1936,1875,1909
1983,1901,1901
1915,1776,1808
1893,1779,1839
1984,1875,1808
1901,1849,1831
1806,1799,1883
1878,1975,1953
1936,1851,1904
1936,1745,1824
1897,1810,1757
1888,1875,1862
1941,1862,1920
1913,1803,1886
1857,1813,1821
1875,1814,1841
1907,1866,1955
1929,1833,1893
1893,1857,1860
1929,1936,1890
1969,2021,1933
1942,1822,1857
1881,1638,1793
1851,1683,1792
1937,1857,1908
1953,1939,1900
1927,1847,1839
1881,1778,1837
1931,1922,1945
2018,2107,1957
1956,1764,1797
1855,1621,1783
1824,1722,1827
1901,1845,1903
1900,1844,1846
1870,1869,1862
1921,1949,1933
1965,1890,1915
1921,1775,1825
1877,1841,1841
1904,1779,1894
1929,1833,1909
1911,1908,1870
1890,1764,1799
1921,1750,1872
1919,1769,1936
1890,1779,1851
1909,1797,1776
2016,1902,1920
1957,1975,1953
1901,1805,1872
1933,1851,1806
1871,1843,1869
1915,1779,1854
1849,1739,1895
1839,1814,1886
1930,1831,1868
1971,1839,1854
1873,1914,1856
1901,1799,1866
1937,1854,1915
1914,1819,1936
1897,1915,1834
1910,1870,1799
1904,1841,1870
1902,1765,1847
1883,1797,1840
1876,1787,1845
1934,1957,1921
1963,1930,1911
1902,1758,1753
1923,1775,1770
1967,2003,1967
1919,1850,1963
1879,1719,1799
1925,1798,1764
1903,1881,1840
1892,1942,1938
1854,1886,1886
1957,1984,1852
1968,1894,1914
1870,1917,1891
1840,1838,1857
1859,1845,1838
1892,1793,1845
1950,1771,1852
1967,1819,1853
1894,1861,1898
1886,1936,1919
1902,1978,1885
1902,1998,1827
1984,2117,1847
2021,1770,1843
1919,1744,1881
1829,1806,1840
1870,1942,1833
1941,1933,1919
1934,1975,1899
1872,1916,1867
1869,1922,1809
1941,2025,1883
1936,2109,1904
1887,1933,1824
1882,1782,1861
1943,1866,1984
1954,2000,2005
1911,2000,1847
1967,2066,1771
2012,1881,1831
1990,1875,1901
1813,1937,1895
1840,2000,1871
1903,2010,1909
1951,2007,1907
1895,2037,1846
1889,1910,1840
1914,1838,1875
1935,1973,1950
1879,1903,1808
1878,1921,1840
1947,1966,1898
1987,2046,1909
1903,2064,1905
1910,2000,1874
1951,1862,1812
1965,1902,1856
1916,1974,1872
1904,2035,1886
1909,1936,1903
1933,2003,1882
1879,1939,1819
1934,1929,1860
1969,1995,1903
1945,2080,1933
1936,2059,1934
1885,1961,1871
1936,1984,1904
1936,1930,1851
1877,1922,1818
1931,1933,1859
1958,1995,1898
1951,2064,1963
1903,2046,1885
1968,2128,1875
2037,2067,1901
1968,1957,1853
1900,1893,1799
1941,2037,1903
1861,2032,1995
1815,1883,1855
1827,1845,1779
1919,2059,1842
1984,2131,1935
1963,2033,1922
1909,1920,1819
1943,1936,1870
1983,2029,1968
1925,2139,1936
1885,2102,1881
1875,1988,1834
1950,2018,1906
1974,1910,1902
1876,1894,1874
1904,1951,1840
1985,1987,1904
2021,2046,1956
1951,2000,1840
1894,1968,1826
1878,1936,1901
1906,1984,1927
1904,2060,1826
1892,2085,1879
1947,1935,1925
2001,2002,1908
1901,1900,1834
1877,1907,1874
1986,2055,1962
2006,2167,1936
1892,1918,1852
1898,1946,1861
1997,2072,1954
2032,2034,1967
2043,2128,1862
1872,1856,1843
1885,1883,1900
1919,2042,1938
1882,1998,1901
1874,2066,1903
1942,1926,1905
1968,1927,1913
1906,1946,1826
1889,2019,1884
1982,2009,1913
1941,1955,1904
1873,1967,1863
1878,1937,1813
1990,2033,1919
2153,2065,1917
1902,1927,1829
1857,2046,1857
1897,2027,1921
1918,1968,1921
1904,1873,1853
1971,1979,1883
1902,2059,1923
1955,2085,1938
1903,1970,1882
1947,2036,1893
2076,2206,1922
1962,1923,1869
1822,1702,1754
1776,1799,1796
1907,2000,1909
1997,2021,1904
1978,1999,1853
1890,2029,1920
1898,1985,1940
1897,1929,1883
1904,1952,1887
1933,2085,1887
1955,1951,1881
2002,1967,1904
1878,1881,1868
1803,1829,1777
1899,1941,1904
1982,1925,1903
1964,1894,1802
1895,2032,1862
1990,1942,1957
1916,2065,1949
1873,1940,1828
1798,1748,1825
1877,1890,1937
1967,1887,1869
1915,1861,1805
1981,2029,1893
1991,1958,1926
1855,1781,1861
1759,1854,1807
1840,1838,1811
1984,2093,1911
1933,2256,1962
1808,1725,1780
1819,1562,1789
1946,1767,1883
1968,1903,1898
1850,1830,1815
1925,1846,1807
1857,1889,1839
1875,2000,1935
1840,1983,1879
1804,1801,1874
1885,1790,1859
1890,1819,1836
1904,1817,1797
1913,1852,1809
2000,1939,1929
1936,1935,1890
1840,1872,1790
1839,1867,1838
1979,1857,1894
1887,1903,1875
1744,1789,1767
1861,1807,1774
1847,1827,1834
1894,1859,1853
1850,1828,1791
1879,1790,1808
1938,1846,1859
1904,1861,1849
1818,1805,1789
1863,1791,1792
1878,1847,1846
1839,1851,1847
1808,1785,1789
1872,1778,1793
1926,1799,1827
1874,1822,1840
1812,1774,1806
1842,1743,1791
1886,1788,1843
1904,1771,1838
1892,1721,1785
1851,1723,1779
1889,1756,1839
1874,1747,1839
1872,1698,1789
1831,1686,1795
1884,1711,1849
1888,1687,1835
1857,1638,1790
1895,1626,1775
1913,1631,1814
1876,1610,1819
1814,1584,1790
1856,1561,1831
1907,1567,1865
1900,1535,1843
1861,1487,1787
1861,1454,1779
1873,1471,1830
1872,1421,1819
1838,1295,1762
1835,1322,1762
1867,1382,1821
1840,1341,1809
1881,1298,1759
1860,1291,1779
1936,1302,1842
1905,1294,1865
1915,1226,1795
1861,1201,1780
1904,1245,1815
1965,1243,1824
1985,1182,1791
2030,1120,1822
2064,1151,1858
2171,1152,1854
2115,1167,1787
2141,1154,1805
2143,1150,1841
2175,1113,1854
2202,1081,1830
2205,1099,1830
2262,1111,1858
2274,1104,1866
2269,1065,1829
2273,1077,1840
2270,1093,1867
2321,1071,1857
2316,1031,1822
2346,1037,1822
2412,1081,1881
2410,1072,1882
2381,999,1835
2401,1019,1862
2437,1106,1890
2448,1115,1879
2437,1037,1810
2468,1021,1825
2497,1072,1878
2496,1081,1840
2489,1037,1756
2487,1023,1728
2477,1059,1738
2544,1045,1724
2447,1039,1665
2517,1061,1648
2508,1074,1680
2548,1068,1695
2541,1075,1627
2532,1088,1607
2559,1122,1657
2587,1104,1657
2520,1008,1610
2535,1092,1603
2592,1141,1647
2582,1118,1645
2559,1079,1609
2549,1106,1611
2581,1156,1667
2559,1151,1659
2545,1108,1637
2533,1104,1616
2553,1157,1623
2554,1158,1637
2523,1117,1613
2530,1117,1641
2559,1185,1693
2540,1171,1658
2513,1126,1616
2526,1136,1634
2549,1200,1683
2542,1190,1691
2515,1136,1648
2532,1120,1668
2583,1194,1739
2559,1213,1707
2503,1154,1630
2526,1127,1649
2559,1136,1712
2581,1110,1728
2559,1058,1712
2583,1201,1728
2559,1193,1703
2559,1122,1709
2546,1089,1697
2586,1082,1728
2615,1232,1778
2593,1104,1763
2541,1003,1691
2555,1104,1723
2559,1123,1770
2559,1214,1784
2541,1072,1709
2514,969,1726
2515,1015,1790
2528,1104,1795
2547,1115,1779
2557,1072,1769
2529,1102,1781
2479,1023,1773
2427,932,1725
2422,995,1782
2479,1056,1895
2476,1130,1891
2429,1104,1792
2518,1156,1833
2460,1023,1730
2404,1115,1833
2345,987,1809
2368,1007,1824
2421,1130,1905
2410,1120,1895
2368,1175,1840
2350,1125,1818
2375,1119,1863
2373,1207,1947
2349,1212,1926
2321,1200,1899
2352,1086,1989
2349,1324,1980
2290,1193,1902
2284,1110,1904
2309,1226,2019
2279,1152,2064
2250,1102,2010
2258,1168,2051
2288,1327,2108
2301,1352,2103
2219,1227,2064
2230,1250,2128
2253,1298,2160
2211,1251,2133
2188,1280,2087
2210,1391,2128
2225,1366,2177
2242,1356,2213
2163,1342,2128
2118,1328,2112
2156,1342,2177
2171,1343,2192
2149,1345,2154
2147,1392,2145
2170,1443,2185
2156,1442,2192
2115,1434,2147
2116,1445,2147
2148,1486,2183
2132,1488,2160
2105,1470,2107
2083,1485,2126
2087,1535,2192
2103,1535,2197
2108,1519,2096
2080,1535,2113
2070,1605,2224
2043,1605,2224
2031,1589,2163
2046,1584,2161
2111,1617,2199
2140,1649,2171
2033,1619,2116
1953,1577,2129
1984,1655,2192
2003,1658,2221
1970,1587,2125
1966,1555,2083
2055,1661,2139
2096,1740,2192
1999,1684,2152
1930,1611,2105
1967,1581,2113
2005,1680,2185
2055,1730,2224
2022,1811,2152
1984,1871,2110
1943,1506,2031
1983,1486,2013
2084,1716,2165
1997,1885,2253
1911,2128,2167
1887,1591,1918
1942,1354,1962
2198,1807,2343
2171,2114,2443
1803,1799,2075
1648,1583,1874
1671,1530,1900
1853,1523,2017
2005,1683,2111
1886,1745,1987
1840,1909,1980
1805,1723,2021
1843,1712,2064
1846,1786,1997
1895,2109,1968
1819,1849,1851
1657,1482,1778
1707,1699,1894
1945,1854,2059
1791,1741,1889
1648,1808,1873
1712,1959,1928
1690,1719,1940
1674,1722,1923
1681,1837,1936
1802,2260,2111
1781,1819,1856
1651,1495,1664
1495,1680,1662
1581,1968,1734
1675,2094,1745
1679,2053,1695
1558,1945,1666
1616,1813,1707
1678,2033,1680
1584,2143,1597
1510,2107,1527
1527,2193,1637
1525,2032,1600
1525,2000,1427
1586,2295,1455
1695,2559,1624
1579,2180,1566
1451,2127,1425
1423,2187,1389
1438,2239,1375
1495,2311,1433
1515,2351,1601
1481,2423,1503
1520,2543,1424
1636,2393,1519
1584,2352,1371
1348,2416,1287
1419,2437,1345
1505,2390,1387
1584,2370,1466
1250,2289,1671
1211,2361,1427
1326,2353,1277
1398,2422,1331
1424,2559,1409
1408,2652,1393
1350,2203,1375
1410,2224,1371
1623,2327,1371
1358,2345,1415
1266,2483,1430
1295,2343,1456
1554,2511,1473
1392,2559,1431
1411,2352,1394
1452,2259,1271
1215,2403,1393
1509,2663,1472
1680,2782,1483
1297,2842,1520
1088,2718,1427
1257,3040,1561
1447,3254,1600
1434,3363,1439
1230,3477,1509
1168,3394,1441
1393,3568,1383
1371,3420,1224
1102,3415,1280
1116,4095,1399
1687,4095,1472
1681,4095,1258
1696,4095,1369
1193,4095,1517
834,4095,1569
816,4095,1535
1328,4095,1389
1451,4095,1370
880,4095,1581
694,4095,1573
802,4095,1441
875,4095,1358
909,4095,1394
941,4095,1499
889,4095,1534
874,4095,1503
925,4095,1596
929,4095,1596
877,4095,1520
894,4095,1655
912,4095,1686
928,4095,1744
784,4095,1609
758,4095,1501
891,4095,1659
971,4095,1813
883,4095,1710
836,4095,1680
833,4095,1728
851,4095,1770
891,4095,1823
839,4095,1744
841,4095,1769
895,4095,1858
806,4095,1791
912,4095,1901
944,4095,1883
726,3888,1673
807,3941,1804
852,3551,1849
846,3702,1840
966,3682,1887
1183,3749,2055
1007,3246,1951
699,2919,1717
742,3034,1702
1160,3725,2154
1101,3235,2108
938,2771,1818
1087,2819,1833
880,2853,1790
880,2755,1834
1472,3346,2129
1341,3093,1969
691,2589,1683
838,2553,1793
1173,2842,1981
1525,2992,2267
1216,2833,1951
752,2277,1386
945,2270,1462
1193,2416,1641
1167,2615,1702
1388,3395,1942
1520,2775,1853
1105,1819,1559
931,1951,1600
1013,2205,1822
1286,2559,1932
1461,2473,1812
1216,2544,1881
1172,2262,2031
1247,2042,1833
1520,2444,1654
1717,2185,1434
1138,1967,1575
943,2305,1909
1408,2699,2004
1652,2221,1677
1409,1811,1520
1095,2025,1786
1311,2903,2085
1463,2638,1730
1293,1824,1725
1145,2448,2186
1392,2603,1731
1297,1948,1360
1328,1866,1591
1523,2220,1798
1450,2526,1773
1197,2538,1857
1162,2482,1779
1285,2483,1791
1395,2669,1805
1788,2688,1665
1393,2218,1742
1051,2288,1859
1355,2645,1799
1703,2768,1620
1626,2822,1648
1357,2559,1771
1163,2335,1791
1579,2670,1727
1535,2559,1776
1237,2479,1838
1219,2432,1822
2163,2500,1614
1424,2608,1997
1022,2517,1917
1296,2366,1674
1431,2390,1696
1554,2225,1713
1535,2198,1742
1520,2417,1777
1366,2371,1822
1409,2121,1685
1530,2171,1739
1691,2333,1808
1885,1923,1738
1382,1814,1791
1296,2000,1847
1379,2112,1871
1577,2159,1842
1605,2240,1850
1691,2095,1905
1635,2138,1893
1392,1831,1742
1498,1987,1771
1616,1899,1712
1518,1986,1882
1587,1738,1859
1724,1806,1772
1744,2082,1902
1838,2022,1925
1587,1799,1889
1432,1807,1841
1611,1773,1883
1821,1776,1837
1718,1703,1787
1505,1731,1852
1627,1945,1985
1667,1901,1910
1650,1680,1802
1719,1564,1802
1696,1666,1925
1682,1695,1879
1648,1600,1789
1833,1683,1872
1778,1703,1934
1687,1726,2029
1799,1522,1879
1939,1616,1811
1915,1728,1781
1583,1682,1872
1475,1456,1921
1630,1440,1902
1804,1619,2018
1907,1616,1982
1781,1451,1843
1697,1405,1904
1776,1484,1920
1792,1661,1967
1827,1626,1951
1903,1456,1911
1919,1605,1949
1793,1630,1921
1735,1396,1872
1759,1282,1858
1819,1403,1879
1793,1488,1977
1819,1614,2030
1971,1511,1915
1943,1449,1920
1808,1269,1933
1693,1339,1915
1794,1455,1919
1999,1475,1950
2043,1535,1942
1894,1468,1958
1846,1575,1938
1821,1691,1979
1744,1299,1927
1751,1113,1898
1997,1258,1956
1947,1406,1936
1829,1434,1987
1809,1447,2079
1971,1472,1905
1950,1568,1905
1882,1371,1865
1825,1300,1901
1979,1357,1938
1981,1357,1974
1821,1472,2037
1895,1424,1968
1875,1270,1897
1913,1306,2005
1911,1518,1986
1890,1407,1899
2006,1435,1989
2032,1369,2019
1901,1383,1955
1914,1292,1969
2013,1393,2080
2047,1666,2175
1869,1381,2001
1825,1168,1953
1875,1401,2080
1934,1442,2074
1939,1521,1961
1927,1442,1976
1978,1162,2011
1950,1170,2025
1984,1438,2080
1936,1491,1974
1929,1667,2002
1919,1423,2035
2031,1250,2071
1981,1399,2101
1904,1339,2089
1966,1285,2062
1969,1425,2043
1959,1465,1970
2114,1436,2028
1995,1361,2071
1840,1399,2139
1850,1454,2101
1968,1506,2110
1997,1503,2131
1963,1354,2064
1974,1447,2047
1971,1425,2016
2059,1355,1990
1959,1429,2084
1872,1497,2095
1945,1489,2113
2142,1637,2171
2172,1520,2021
1974,1136,1920
1821,1243,2032
1893,1465,2163
1944,1488,2157
2030,1523,2066
2124,1535,2046
2017,1655,2163
1854,1451,1987
1903,1390,1958
1981,1398,1999
2026,1472,2066
2043,1483,2045
2052,1510,2021
2071,1606,2054
2018,1808,2245
2115,1622,2171
2032,1387,1919
1808,1267,1978
1873,1424,2083
1995,1558,2090
2068,1780,2028
2199,1598,2081
2235,1502,1953
1958,1424,2014
1856,1372,2093
1873,1520,2063
1938,1614,2112
2000,1615,2126
2059,1562,2035
2064,1575,1979
2063,1665,2021
1968,1808,2035
1947,1440,1937
1969,1365,1949
2022,1575,2000
2128,1683,2043
1968,1590,1981
1968,1583,2037
1968,1663,2044
2021,1509,1984
1987,1597,1968
2107,1694,2140
2165,1569,1957
1931,1557,1899
1879,1681,1950
2039,1808,2054
2078,1584,2016
1952,1360,1973
1943,1455,1920
2001,1642,1997
2097,1759,1989
2047,1761,1985
1978,1618,1921
1956,1612,1897
2006,1783,2029
2096,1839,2032
1966,1557,1919
2000,1426,1997
2053,1569,1955
2081,1780,1934
2034,1767,1910
1979,1631,1988
1968,1717,2037
1998,1863,2012
2074,1904,1968
2021,1487,1915
2003,1479,1886
1981,1707,1920
2010,1712,1935
2133,1680,1936
2087,1727,1984
1968,1678,1959
2079,1689,1843
2032,1713,1903
2112,1855,1968
2064,1799,1984
1887,1728,1975
1874,1694,1956
1977,1695,1901
2006,1761,1938
2057,1729,1891
2087,1668,1910
1969,1801,1991
1942,1805,1872
2014,1757,1821
2046,1770,1857
2099,1644,1911
2017,1648,1872
1911,1748,1902
1903,1877,1955
1975,1809,1985
2160,1917,1975
2147,1760,1791
2027,1600,1895
1983,1797,1840
2069,1855,1891
1915,1675,1745
1872,1729,1941
1957,1775,2055
1984,1834,1899
1984,1777,1841
1983,1727,1872
1984,1879,1941
2000,1895,1904
1999,1796,1857
2005,1953,1913
2057,1819,1871
2030,1670,1846
1959,1662,1808
1974,1783,1878
2095,1917,1931
2210,2006,1927
1950,1710,1757
1885,1680,1786
1892,1733,1932
1981,1831,1850
2015,1920,1904
2000,1852,1863
2059,1702,1938
1922,1743,1862
1926,1862,1842
2066,1920,1871
2082,1951,1844
1990,1934,1882
2063,1733,1875
2113,1703,1853
1950,1752,1867
1815,1808,1791
1869,1796,1799
1993,1888,1909
2103,2000,1899
2019,1825,1777
1981,1777,1792
1967,1877,1890
1958,1830,1879
2043,1771,1776
2033,1808,1759
2225,1835,1815
1955,1850,1880
1794,1839,1887
1850,1921,1851
1968,1882,1847
2061,1830,1776
2020,1885,1790
1973,1909,1777
1903,1932,1904
1916,1823,1931
1981,1742,1749
2031,1889,1813
1974,1904,1826
1943,1814,1872
2015,1771,1866
2040,1975,1807
2033,1919,1823
2091,1802,1818
2082,1801,1862
1895,1975,1918
1834,2096,1903
1872,1839,1904
1904,1616,1744
1931,1776,1824
1984,1845,1808
1982,1947,1915
2043,1967,1865
1919,1821,1716
1874,1793,1755
2061,1869,1861
2184,1927,1803
1887,1833,1717
1807,1811,1774
1958,1796,1833
1917,1979,1873
1937,1936,1873
1955,1835,1826
1936,1675,1809
1930,1818,1803
1933,1866,1807
2000,1940,1858
2288,1881,1823
1948,1807,1781
1817,1791,1764
1859,1824,1713
1911,1993,1867
1901,1931,1872
1935,2047,1842
2007,1874,1766
1955,1814,1785
1870,1758,1778
1904,1803,1771
1962,1851,1783
2027,1821,1838
2032,1802,1841
1933,1894,1758
1880,1921,1807
1920,2026,1845
1929,1904,1856
1925,1847,1803
1987,1948,1842
1991,2024,1904
1984,1876,1824
1968,1882,1766
1903,1791,1734
1924,1776,1710
1910,1947,1779
1920,1855,1801
1965,1699,1795
1997,1809,1799
2132,1915,1826
1970,1978,1837
1793,1946,1867
1859,1888,1815
1983,1808,1771
1904,1866,1790
1893,1913,1823
1968,1931,1847
1945,1984,1817
1959,1963,1799
2194,2067,1792
2000,2103,1863
1769,1746,1776
1878,1607,1703
1953,1873,1758
1879,1947,1904
1858,1860,1904
1925,1883,1777
1935,1917,1776
1925,2099,1833
2039,1975,1824
1903,1779,1759
1899,1792,1847
1964,1886,1911
1979,1951,1789
2031,1926,1690
1930,1882,1727
1859,1909,1781
1856,1957,1879
1936,2011,1893
1973,2073,1902
1857,1775,1828
1833,1771,1772
1921,1825,1744
1971,1909,1783
1938,1963,1861
1893,1991,1933
1906,2047,1893
1936,1793,1810
1877,1763,1747
1899,1931,1735
1872,1984,1787
2021,1913,1811
1903,1884,1854
1943,1955,1747
1847,1933,1813
1824,1931,1850
1903,1983,1904
2082,2026,1890
1914,1803,1715
1829,1749,1744
1872,2080,1823
1921,2021,1839
1929,1904,1808
1922,1810,1792
2025,1952,1871
2071,1887,1776
1875,1979,1827
1765,1885,1834
1962,1857,1765
1977,1915,1855
1929,1977,1854
1846,1927,1808
1842,2061,1834
1872,1965,1879
1918,2015,1825
1968,1849,1747
1974,1811,1754
1903,1822,1830
1819,1857,1872
1824,2015,1891
1983,2037,1843
1999,1933,1777
1937,1888,1833
1878,1966,1811
1920,2000,1866
1987,1921,1826
1853,1872,1791
1904,1970,1818
1942,2024,1900
1932,1881,1849
1868,1872,1781
1936,1822,1795
1936,1855,1870
1920,2042,1873
1863,1903,1804
1978,1866,1794
1904,1968,1891
1904,1942,1855
1829,1951,1817
1925,1959,1840
1975,1949,1857
1927,1914,1840
1930,1969,1782
1967,1829,1779
1853,1860,1861
1819,1911,1870
1883,1863,1853
1971,1830,1824
1881,2155,1966
1878,2033,1866
1942,1750,1712
1797,1749,1777
1792,1878,1856
1917,2014,1901
2029,2173,1862
1942,1811,1827
1786,1841,1832
1853,1847,1815
1883,1909,1822
1971,1874,1938
1984,2110,1851
1857,2033,1835
1811,1773,1796
1815,1763,1818
1897,1931,1865
2005,1996,1840
1987,1967,1794
1748,1856,1795
1833,1850,1936
1889,2011,1958
1925,1918,1773
2018,2047,1771
1995,1959,1887
1727,1923,1827
1799,1680,1824
1813,1722,1776
1877,1889,1886
1981,2030,1868
1974,2112,1829
1815,2053,1833
1983,1727,1785
1808,1712,1796
1997,1840,1845
1946,1904,1917
1776,2030,1930
1828,2035,1823
1840,2032,1790
1945,1791,1776
1957,1856,1895
1893,1923,1837
1872,1840,1791
1858,1889,1855
1888,1988,1895
1869,1917,1885
1894,1902,1824
1881,1862,1814
1940,1885,1794
1856,2112,1863
1817,1799,1802
1945,1838,1821
1941,1863,1867
1919,2031,1845
1904,1910,1802
1893,1856,1780
1942,1910,1898
1863,1865,1874
1805,1905,1827
1787,1938,1858
1893,1975,1891
1904,1973,1831
1806,1757,1745
1849,1767,1782
1911,1871,1903
1874,1888,1885
1887,1931,1809
1934,1937,1834
1925,1985,1860
1962,1968,1877
1914,1856,1823
1783,1999,1840
1826,1825,1855
1877,1794,1898
1908,1916,1871
1920,2150,1885
1823,1781,1806
1790,1703,1786
1867,1839,1853
1881,1924,1855
1933,1990,1877
1975,1894,1839
1854,1874,1773
1840,1929,1827
1873,1966,1858
1851,1907,1891
1872,1777,1823
1901,1796,1826
1950,1973,1936
1957,1975,1904
1846,1920,1771
1810,2017,1833
1821,1727,1808
1791,1711,1787
1841,1799,1781
1937,1927,1859
1919,1951,1936
1891,1840,1903
1872,1911,1847
1856,1968,1767
1929,2022,1816
1935,1938,1881
1840,1774,1825
1906,1795,1839
1895,1869,1825
1783,1814,1826
1745,1869,1831
1838,1904,1855
1918,1957,1856
1872,1835,1829
1840,1900,1826
1939,1887,1810
1926,1857,1852
1808,1915,1875
1808,1893,1826
1981,1826,1879
1850,1840,1855
1797,1920,1873
1792,1855,1808
1799,1799,1795
1843,1851,1862
1838,1835,1867
1887,1869,1846
1898,2128,1879
1909,2027,1891
1846,1723,1838
1839,1811,1817
1868,1777,1869
1899,1807,1857
1945,1872,1803
1947,1882,1776
1995,1947,1810
1938,1935,1937
1737,1932,1984
1810,1888,1872
1846,1876,1843
1872,2029,1853
1790,1895,1873
1808,1742,1840
1863,1789,1834
1945,1945,1904
1840,1847,1872
1790,1932,1825
1879,2096,1879
1889,1897,1887
1932,1754,1823
1904,1664,1771
1873,1789,1831
1902,1889,1939
1938,1920,1905
1882,1938,1860
1823,1845,1879
1965,1957,1868
1968,2006,1890
1875,1872,1862
1791,1850,1835
1834,2001,1885
1824,1915,1840
1875,1792,1782
1897,1843,1894
1887,1792,1845
1920,1827,1819
1783,1926,1854
1781,1835,1879
1837,1977,1904
1870,1943,1883
1895,1826,1838
1911,1808,1829
1834,1840,1840
1814,1907,1849
1882,2015,1885
1936,1869,1909
1916,1840,1840
1840,1877,1793
1825,1859,1825
1886,1894,1863
1983,1916,1849
1863,1837,1825
1781,1854,1909
1893,1901,1927
1946,1937,1809
1872,1982,1791
1889,2029,1905
1967,1851,1869
1859,1795,1903
1744,1830,1834
1776,1836,1790
1855,1895,1824
1903,1904,1905
1925,2062,1938
1859,2014,1840
1845,1840,1809
1872,1793,1808
1870,1742,1827
1859,1856,1865
1875,1853,1886
1936,1886,1877
1968,2001,1805
2019,1904,1773
1905,1724,1847
1810,1969,1966
1744,1850,1918
1790,1865,1746
1875,1792,1777
1876,1814,1893
1887,1887,1915
1893,1831,1895
1882,1939,1892
1930,1888,1817
1826,1845,1794
1803,1837,1845
1971,2029,1920
1938,1957,1882
1785,1727,1833
1785,1903,1887
1855,1872,1871
1919,2178,1886
1930,1762,1846
1846,1618,1759
1886,2076,1872
1904,1911,1869
1904,1939,1904
1817,1603,1799
1963,1701,1751
1799,2062,1941
1771,2061,1957
1821,1794,1777
1777,1616,1789
1872,1801,1904
1997,1785,1835
1877,1861,1749
1885,2013,1867
1823,1885,1945
1769,2000,1845
1680,1712,1740
