1886,1887,1857
1930,2033,1882
1920,1900,1871
1878,1823,1856
1862,1884,1841
1958,1961,1885
1936,1968,1823
1907,1840,1889
1862,1847,1983
1872,1844,1869
1872,1911,1797
1889,1978,1840
1936,1870,1907
1953,1925,1937
1962,1914,1855
1936,1846,1783
1861,1915,1862
1859,1934,1915
1872,1916,1935
1866,1795,1891
1903,1782,1833
1929,1927,1855
1874,1951,1846
1882,1983,1863
1899,1919,1909
1923,1873,1904
1955,2009,1866
1883,1997,1827
1885,1915,1853
1906,1782,1874
1876,1778,1858
1883,1830,1867
1986,1840,1904
2001,1937,1872
1936,1877,1811
1761,1865,1847
1820,1877,2012
1937,1935,1936
1897,1897,1817
1872,1913,1771
1941,1811,1840
1910,1837,1986
1883,1895,1867
1936,1923,1760
1917,1934,1833
1872,1886,1891
1914,1902,1923
1895,1885,1904
1943,1904,1826
1948,1965,1854
1908,1911,1857
1862,1930,1840
1881,1935,1839
1919,1883,1943
1909,1921,1958
1873,1824,1893
1901,1776,1756
1931,1891,1808
2020,1844,1823
1916,1897,1901
1851,1894,1826
1936,1949,1849
1847,1883,1843
1817,1935,1904
1861,1904,1922
1883,1788,1893
1859,1798,1825
1872,1919,1833
1908,1945,1886
1910,1887,1946
1872,1757,1795
1870,1792,1745
1931,1936,1843
1929,2015,1879
1899,1838,1863
1873,1879,1857
1983,1933,1867
1936,1897,1872
1877,1794,1833
1861,1840,1763
1917,1860,1819
1886,1897,1936
1961,1989,1904
1813,1904,1813
1790,1789,1767
1872,1794,1872
1862,1898,1841
1890,1835,1811
1897,1898,1847
1887,1914,1925
1935,1886,1903
1920,1857,1799
1856,1872,1812
1835,1871,1852
1909,1919,1850
1885,1904,1867
1890,1890,1993
1872,1847,1904
1871,1834,1805
1883,1840,1764
1888,1908,1840
1891,1920,1890
1872,1856,1821
1863,1862,1797
1886,1833,1858
1895,1860,1951
1872,2031,1908
1838,1840,1774
1905,1770,1910
1925,1870,1886
1965,1911,1797
1833,1876,1776
1811,1831,1843
1898,1786,1920
1888,1874,1799
1860,1875,1776
1850,1774,1829
1902,1842,1894
1913,1831,1914
1845,1821,1825
1875,1921,1831
1918,1885,1904
1873,1819,1778
1805,1825,1806
1849,1906,1879
1911,1963,1860
1900,1808,1829
1825,1791,1811
1851,1803,1827
1930,1927,1872
1858,1920,1831
1829,1795,1825
1861,1841,1872
1898,1819,1927
1869,1801,1771
1845,1756,1728
1869,1925,1829
1901,2077,1916
1869,1793,1886
1859,1655,1821
1904,1827,1818
1942,1855,1863
1855,1841,1839
1798,1744,1811
1898,1815,1791
1878,1914,1882
1923,1820,1947
1826,1854,1878
1785,1744,1763
1837,1824,1813
1861,1847,1842
1904,1879,1848
1906,1824,1901
1863,1823,1872
1881,1851,1882
1854,1840,1793
1857,1844,1829
1924,1809,1867
1879,1778,1918
1886,1813,1840
1973,1991,1789
1825,1813,1805
1767,1791,1859
1827,1821,1831
1894,1826,1825
1903,1932,1831
1865,1826,1918
1869,1890,1899
1814,1810,1793
1846,1795,1881
1841,1757,1776
1856,1859,1753
1863,1899,1871
1892,1987,1931
1886,1759,1857
1854,1717,1787
1840,1826,1808
1857,1872,1842
1860,1859,1872
1878,1856,1931
1904,1893,1824
1904,1869,1723
1828,1813,1804
1796,1791,1791
1857,1859,1840
1866,1903,1856
1885,1931,1890
1923,1926,1846
1841,1755,1802
1840,1753,1843
1854,1806,1843
1858,1871,1838
1819,1872,1813
1885,1875,1872
1901,1834,1847
1866,1790,1764
1840,1858,1791
1861,1873,1915
1827,1830,1845
1863,1856,1799
1882,1916,1827
1891,1959,1872
1855,1821,1824
1877,1882,1795
1886,1837,1851
1860,1856,1876
1855,1883,1863
1840,1922,1839
1843,1777,1838
1945,1826,1840
1878,1919,1853
1839,1799,1824
1831,1777,1835
1919,1897,1886
1921,1939,1882
1893,1811,1794
1883,1847,1830
1893,1886,1903
1859,1839,1874
1836,1907,1836
1844,1871,1868
1901,1872,1890
1885,1908,1861
1841,1876,1808
1878,1869,1854
1901,1911,1882
1872,1860,1870
1871,1894,1860
1919,1861,1887
1918,1934,1904
1839,1852,1834
1872,1853,1819
1873,1837,1829
1882,1866,1872
1874,1886,1840
1861,1737,1820
2020,1803,1842
1861,1910,1851
1779,1902,1861
1840,1872,1852
1999,1929,1868
1875,1936,1985
1826,1813,1895
1861,1829,1777
1930,1920,1822
1954,1959,1920
1952,1882,1886
1917,1915,1847
1885,1872,1934
1904,1819,1879
1923,1953,1852
1920,2017,1858
1931,1899,1902
1937,1883,1957
1957,1859,1873
1919,1885,1873
1943,1979,1952
2003,2003,1958
1898,1827,1810
1857,1840,1877
1934,1878,1893
2016,1959,1872
1914,1959,1914
1905,1872,1904
1971,1885,1952
1911,1949,1903
1893,1962,1891
1904,1995,1883
1927,1829,1878
1984,1915,1942
1958,1909,1942
1920,1875,1875
1913,2015,1920
1938,1919,1898
1925,1775,1865
1915,1872,1874
1965,2043,1999
1996,2018,1930
1936,1818,1906
1904,1807,1816
1952,1865,1839
1983,1957,1925
1936,1969,1955
1878,1920,1890
1919,1908,1910
1930,2000,1935
1921,1950,1898
1886,1792,1861
1915,1884,1883
1962,2019,1910
1927,1975,1903
1917,1856,1874
1936,1913,1897
1936,1904,1899
1920,1878,1915
1931,1920,1954
1936,1925,1904
1956,1923,1895
1945,1793,1869
1922,1851,1845
1921,2000,1826
1919,1954,1914
1939,1987,1920
1904,1843,1898
1905,1812,1872
1952,1885,1879
1904,1957,1908
1870,1940,1873
1907,1904,1851
1963,2039,1949
1999,1937,1906
1901,1817,1860
1886,1893,1838
1899,1936,1872
1878,1892,1827
1909,1846,1818
1921,1872,1919
1919,2013,1943
1919,1938,1849
1951,1811,1840
1894,1926,1895
1873,1929,1846
1857,1855,1846
1882,1891,1904
1926,1942,1842
1947,1941,1819
1922,1922,1863
1910,1911,1870
1911,1923,1882
1955,1905,1894
1889,1836,1846
1923,1931,1852
1948,1949,1899
1955,1881,1915
1854,1919,1871
1861,1861,1806
1877,1910,1858
1906,2018,1920
1877,1936,1859
1902,1776,1826
1906,1838,1895
1923,1958,1904
1899,1942,1903
1883,1877,1787
1931,1880,1920
1925,1921,1840
1904,1953,1819
1894,1926,1881
1919,1843,1865
1914,1920,1936
1912,1892,1833
1910,1920,1822
1915,1877,1871
1995,1881,1879
1915,2010,1879
1823,1851,1929
1841,1867,1863
1904,1840,1808
1908,1840,1843
1895,1910,1778
1921,1910,1829
1961,1936,1978
1933,1943,1856
1892,1886,1782
1919,1904,1817
1936,2032,1904
1890,1824,1830
1871,1763,1847
1927,1903,1887
1947,1942,1888
1904,1863,1845
1872,1855,1853
1911,1855,1891
1977,1995,1911
1947,1994,1872
1913,1889,1872
1856,1856,1848
1919,1941,1847
1920,1936,1872
1870,1869,1840
1900,1981,1904
1920,1874,1944
1901,1834,1786
1872,1881,1776
1917,2015,1860
1982,1952,1920
1895,1780,1887
1891,1840,1807
1907,1904,1980
1958,1988,2000
1936,1998,1881
1878,1819,1759
1895,1847,1775
1909,1868,1857
1885,1872,1838
1859,1888,1827
1928,2000,1851
1918,1973,1851
1860,1899,1867
1870,1825,1854
1904,1874,1857
1943,1906,1961
1889,1904,1878
1904,1949,1866
1921,1840,1862
1950,1836,1859
1869,1963,1836
1867,1925,1792
1905,1872,1824
1895,1899,1867
1866,1913,1860
1866,1875,1904
1855,1799,1815
1893,1853,1818
1895,1927,1904
1903,1890,1842
1923,1850,1809
1916,1898,1792
1859,1879,1872
1912,1938,1850
1909,1888,1839
1953,2000,1893
1840,1771,1834
1843,1799,1651
1892,1927,1824
1930,2033,1919
1919,1913,1841
1826,1712,1783
1847,1785,1797
1920,1869,1876
1904,1908,1826
1853,1876,1808
1857,1776,1807
1900,1901,1872
1870,1872,1836
1893,1916,1739
1895,1978,1829
1882,1899,1826
1859,1831,1808
1889,1887,1755
1881,1999,1856
1871,1811,1931
1909,1759,1808
1863,1875,1779
1847,1870,1876
1879,1955,1831
1878,1846,1795
1829,1833,1746
1904,1957,1814
1907,1998,1839
1855,1849,1831
1799,1741,1815
1862,1799,1856
1895,1923,1889
1873,1945,1765
1852,1819,1791
1902,1889,1845
1909,2015,1927
1853,1818,1799
1872,1850,1733
1889,1899,1776
1875,1870,1953
1841,1885,1872
1854,1871,1798
1945,1917,1835
1973,1839,1833
1822,1872,1808
1849,1830,1838
1905,1901,1931
1879,1962,1795
1851,1862,1769
1858,1882,1840
1908,1933,1885
1901,1917,1830
1863,1795,1813
1869,1826,1803
1893,1923,1872
1889,1903,1778
1866,1839,1805
1872,1870,1849
1926,1885,1872
1914,1937,1834
1890,1897,1744
1881,1857,1869
1873,1905,1763
1872,1821,1836
1889,1939,1834
1920,1969,1890
1902,1786,1828
1861,1775,1852
1821,1825,1804
1849,1870,1823
1885,1949,1862
1957,2035,1907
1904,1843,1847
1856,1747,1769
1850,1872,1813
1877,1939,1904
1890,1866,1920
1913,1850,1805
1894,2023,1895
1847,1807,1865
1845,1791,1815
1870,1834,1853
1879,1904,1847
1903,1919,1903
1878,1904,1870
1874,1957,1799
1889,1922,1863
1948,1947,1866
1871,1810,1821
1858,1715,1823
1958,1849,1818
1897,1942,1827
1821,1930,1811
1815,1883,1825
1875,1859,1889
1957,1904,1915
1824,1879,1841
1797,1834,1806
1837,1860,1834
1917,2000,1889
1885,1950,1841
1852,1767,1818
1854,1859,1958
1899,1986,1875
1903,1907,1746
1904,1782,1763
1927,1835,1840
1931,2005,1931
1808,1797,1925
1818,1751,1815
1890,1861,1827
1961,2160,1870
1821,1789,1860
1798,1700,1775
1874,1837,1842
1936,1997,1883
1846,1866,1806
1840,1841,1811
1914,1818,1873
1913,1847,1911
1860,1982,1815
1826,1902,1793
1870,1870,1845
1969,1902,1941
1865,1981,1878
1746,1839,1789
1833,1782,1823
1895,1840,1904
1830,1873,1821
1820,1844,1723
1870,1921,1831
1834,1898,1861
1893,1829,1808
1892,1894,1889
1830,1883,1884
1875,1856,1863
1869,1838,1823
1803,1891,1890
1901,1995,1943
1931,1923,1830
1904,1880,1779
1846,1753,1733
1890,1813,1853
1949,1965,1910
1837,1942,1891
1751,1873,1908
1814,1885,1831
1917,1894,1822
1885,1840,1789
1923,1704,1815
1785,1893,1824
1802,1865,1892
1833,1927,1859
1902,1870,1797
1907,1790,1866
1841,1882,1970
1885,1952,1862
1853,1861,1807
1813,1886,1860
1839,1901,1900
1936,1823,1761
1878,1859,1755
1813,1838,1911
1857,1872,1923
1841,1907,1926
1879,1870,1808
1840,1814,1774
1818,1958,1855
1796,1787,1872
1835,1782,1744
1909,1865,1786
1918,1883,1856
1775,1822,1897
1727,1872,1881
1841,1843,1834
1955,1863,1866
1814,1794,1841
1843,1914,1845
1909,1943,1835
1870,1770,1803
1780,1839,1791
1846,1872,1826
1795,1872,1937
1776,1901,1850
1833,1791,1744
1789,1776,1776
1853,1895,1902
1746,1793,1879
1799,1840,1823
1854,1824,1779
1923,1829,1830
1879,1911,1815
1791,1891,1837
1729,1830,1874
1794,1817,1886
1847,1894,1840
1869,1970,1808
1840,1808,1758
1862,1725,1874
1795,1815,1927
1775,1808,1826
1821,1818,1789
1843,1910,1853
1972,2055,1814
1822,1838,1831
1734,1786,1820
1795,1731,1824
1904,1778,1874
1881,1885,1830
1781,1824,1793
1887,1908,1915
1830,1863,1918
1856,1872,1779
1765,1805,1805
1863,1856,1870
1856,2032,1889
1840,1895,1825
1824,1746,1786
1811,1781,1822
1829,1850,1889
1849,1904,1945
1834,1936,1883
1807,1827,1749
1879,1905,1776
1727,1810,1808
1830,1833,1839
1947,1906,1875
1904,1984,1889
1775,1795,1857
1762,1808,1867
1827,1870,1865
1856,1771,1863
1882,1889,1827
1855,1849,1808
1865,1869,1836
1841,1872,1844
1786,1831,1904
1875,1851,1830
1840,1970,1847
1837,1985,1920
1821,1834,1822
1835,1821,1771
1823,1821,1840
1870,1931,1840
1802,1820,1826
1793,1807,1822
1838,1921,1903
1855,1878,1904
1897,1859,1888
1872,1973,1825
1791,1835,1782
1872,1855,1823
1827,1783,1808
1814,1782,1843
1851,1835,1879
1879,1889,1899
1883,1911,1949
1962,1899,1772
1859,1999,1828
1764,1893,1878
1792,1914,1845
1834,1814,1791
1862,1799,1776
1862,1835,1847
1846,1935,1853
1882,1962,1899
1879,1890,1899
1868,1854,1835
1909,1847,1834
1973,1879,1865
1874,2000,1872
1775,1867,1842
1776,1702,1758
1840,1827,1791
1952,2067,1886
1889,1909,1850
1835,1749,1799
1841,1794,1824
1905,1911,1895
1906,1964,1898
1895,1939,1930
1889,1904,1888
1872,1855,1904
1845,1813,1808
1851,1817,1821
1936,1873,1821
1952,1910,1836
1850,1935,1903
1842,1909,1861
1899,1968,1806
1830,1877,1842
1810,1774,1927
1840,1840,1859
1872,1827,1821
1930,1908,1923
1929,1922,1901
1860,1846,1778
1856,1872,1776
1966,2057,1856
1915,1925,1904
1815,1809,1886
1831,1799,1857
1894,1883,1890
1926,1857,1858
1930,1826,1743
1842,1898,1792
1875,1921,1907
1872,1935,1891
1878,1875,1883
1847,1851,1833
1879,1866,1842
1872,1902,1883
1856,1930,1860
1863,1873,1847
1930,1854,1897
1898,1967,1904
1834,1910,1827
1869,1855,1806
1955,1794,1841
1911,1838,1867
1807,1850,1846
1813,1846,1875
1904,1910,1871
1969,1966,1847
1919,1936,1804
1859,1808,1843
1900,1898,1919
1891,1910,1936
1955,1999,1948
1916,1887,1830
1792,1739,1771
1818,1813,1827
1859,1902,1821
1882,1849,1849
1919,1975,1875
1918,2097,1904
1871,1793,1797
1869,1699,1787
1921,1837,1892
1951,1970,1927
1887,1916,1875
1832,1838,1838
1887,1951,1840
1897,1968,1823
1867,2023,1779
1886,1777,1840
1919,1731,1854
1903,1790,1855
1846,1875,1828
1839,1889,1845
1941,1977,1905
1941,1968,1882
1889,1888,1897
1843,1931,1911
1898,1878,1841
1895,1909,1841
1838,1787,1805
1841,1915,1814
1872,1854,1840
1911,1825,1874
1877,1827,1833
1898,1879,1840
1898,2077,1879
1853,1936,1913
1859,1858,1835
1888,1872,1802
1927,1871,1914
1899,1825,1911
1835,1856,1807
1893,1967,1806
1947,1838,1867
1889,1910,1930
1807,1931,1856
1838,1816,1840
1893,1795,1840
1926,1895,1887
1891,1973,1874
1840,1863,1847
1898,1846,1901
1858,1903,1911
1873,1840,1814
1874,1815,1792
1875,1906,1845
1942,2064,1887
1899,1968,1851
1840,1831,1883
1851,1763,1884
1869,1873,1967
1893,1833,1890
1884,1901,1786
1898,1947,1732
1939,1984,1827
1866,1846,1849
1836,1838,1840
1877,1930,1877
1858,1798,1808
1856,1789,1785
1876,1895,1865
1923,1923,1919
1918,1908,1891
1866,1872,1853
1856,1829,1793
1872,1901,1826
1925,2025,1834
1840,1840,1790
1862,1761,1834
1931,1808,1805
1883,1882,1824
1837,1867,1817
1840,1881,1872
1872,1777,1845
1887,1888,1854
1789,1833,1752
1811,1921,1787
1871,1871,1833
1879,1889,1839
1845,1845,1815
1840,1783,1808
1850,1891,1839
1847,1918,1834
1840,1761,1776
1855,1794,1775
1889,1879,1829
1857,1826,1835
1877,1873,1827
1838,1925,1815
1933,1895,1840
1856,1793,1817
1727,1711,1750
1769,1762,1767
1872,1874,1833
1889,2091,1948
1812,1904,1817
1857,1778,1761
1869,1808,1809
1831,1856,1808
1854,1801,1789
1850,1827,1806
1827,1819,1813
1833,1903,1840
1810,1798,1793
1847,1825,1833
1882,1913,1869
1854,1996,1871
1841,1902,1798
1859,1812,1783
1882,1915,1847
1831,1820,1857
1834,1771,1745
1835,1903,1776
1853,1859,1868
1888,1810,1891
1857,1858,1785
1867,1786,1792
1926,1904,1891
1910,2007,1925
1807,1874,1742
1801,1728,1744
1845,1847,1837
1872,1877,1856
1881,1866,1791
1831,1854,1840
1836,1886,1839
1837,1891,1872
1856,1840,1837
1856,1820,1829
1859,1890,1858
1917,1897,1796
1873,1901,1849
1861,1935,1825
1871,1798,1813
1838,1744,1805
1840,1860,1826
1873,1918,1879
1946,1906,1869
1937,1816,1895
1792,1931,1831
1770,1872,1819
1834,1807,1785
1893,1926,1829
1884,1892,1889
1848,1763,1842
1872,1889,1814
1901,2039,1901
1878,1842,1821
1853,1701,1809
1878,1813,1858
1910,1892,1886
1877,1904,1839
1872,1872,1826
1872,2009,1925
1877,2010,1882
1862,1840,1805
1935,1823,1850
1927,1906,1893
1887,1889,1873
1817,1903,1856
1824,1774,1845
1853,1842,1877
1893,1981,1929
1872,1840,1865
1899,1991,1850
1902,1911,1861
1913,1840,1871
1869,1919,1839
1861,1779,1803
1902,1781,1903
1875,1949,1895
1887,2013,1850
1898,1939,1810
1888,2003,1927
1860,1854,1922
1821,1694,1861
1846,1823,1785
1913,1883,1893
1905,1841,1902
1887,1897,1812
1917,1893,1808
1903,1874,1882
1887,1870,2005
1920,2065,1890
1939,1827,1728
1831,1726,1774
1863,1794,1863
1840,1917,1935
1819,1856,1873
1897,1840,1890
1882,1889,1830
1845,2032,1883
1859,1872,1856
1902,1830,1853
1920,1859,1860
1861,1786,1819
1862,1766,1808
1887,1882,1887
1887,1953,1866
1915,1929,1822
1906,1861,1824
2000,1936,1831
1826,1827,1899
1776,1847,1886
1805,1840,1831
1860,1875,1871
1904,1967,1894
1867,1869,1783
1854,1899,1787
1872,1882,1890
1903,1872,1927
1860,1861,1866
1847,1835,1792
1927,1909,1832
1953,1905,1882
1840,1867,1859
1849,1865,1881
1892,1915,1899
1892,2054,1861
1826,1726,1765
1842,1829,1815
1895,1892,1895
1907,1875,1887
1902,1833,1840
1893,1875,1894
1884,1923,1819
1873,1926,1835
1862,1889,1837
1878,1924,1878
1919,1915,1879
1861,1902,1935
1797,1785,1803
1899,1820,1837
1911,1872,1862
1907,1938,1887
1859,2000,1895
1839,1819,1863
1895,1910,1903
1919,1917,1873
1879,1893,1830
1837,1863,1862
1853,1808,1890
1879,1839,1827
1862,1855,1805
1861,1873,1843
1899,1936,1904
1973,2110,1945
1893,1882,1822
1844,1818,1801
1882,1891,1856
1895,1835,1827
1918,1849,1840
1881,1907,1840
1933,1879,1902
1857,1888,1889
1803,1824,1829
1837,1891,1897
1887,2035,1935
1901,1906,1911
1873,1836,1808
1874,1855,1805
1888,1897,1819
1893,1897,1911
1867,1870,1846
1904,1889,1846
1924,1859,1847
1899,1875,1882
1861,1907,1850
1894,1840,1846
1899,1907,1877
1877,1866,1865
1872,2001,1922
1872,1961,1835
1907,1881,1785
1872,1819,1851
1855,1761,1820
1918,1821,1840
1936,1903,1890
1870,1933,1959
1842,1867,1887
1874,1952,1815
1905,1877,1807
1876,1904,1853
1870,1947,1844
1860,1840,1868
1921,1886,1878
1899,1925,1861
1872,1941,1853
1872,1917,1904
1902,1776,1894
1919,1920,1850
1889,1935,1840
1853,1870,1795
1884,1840,1965
1891,1841,1833
1872,1867,1751
1888,1891,1790
1948,1957,1915
1923,1969,1898
1828,1904,1841
1871,1894,1869
1887,1802,1843
1891,1847,1850
1878,1889,1794
1879,1867,1825
1890,1845,1872
1891,1921,1913
1885,2013,1879
1875,1823,1829
1913,1830,1798
1907,1882,1826
1843,1868,1831
1869,1856,1896
1933,1942,1866
1904,1915,1834
1903,1872,1883
1920,1850,1841
1901,1858,1859
1855,1855,1827
1826,1903,1792
1891,2064,1887
1937,1893,1952
1904,1836,1876
1840,1801,1749
1873,1930,1791
1953,2122,1899
1895,1951,1939
1833,1699,1818
1873,1764,1835
1926,1882,1870
1910,1929,1855
1866,1866,1824
1903,1949,1878
1938,1962,1882
1923,1903,1917
1925,1843,1823
1874,1869,1823
1867,1937,1851
1895,1949,1875
1874,1873,1809
1851,1774,1778
1904,1879,1855
1943,1952,1934
1958,1854,1872
1841,1934,1819
1855,1910,1887
1902,1819,1872
1872,1965,1929
1907,2128,1916
1914,1766,1802
1901,1729,1815
1860,1827,1815
1887,1909,1824
1920,1930,1902
1925,1953,1914
1883,1922,1847
1898,1940,1823
1973,2019,1918
1883,1892,1910
1830,1693,1792
1847,1792,1748
1936,1887,1850
1997,1901,1895
1897,1884,1867
1817,1890,1884
1856,1961,1904
1891,1943,1861
1889,1920,1843
1870,1933,1903
1935,1936,1941
1919,1869,1883
1853,1898,1824
1872,1955,1826
1898,1837,1835
1886,1838,1917
1872,1857,1840
1874,1874,1904
1919,1963,1847
1926,2022,1878
1859,1845,1922
1840,1750,1782
1872,1803,1808
1914,1889,1961
1908,2039,1903
1920,1922,1767
1893,1926,1786
1885,1814,1863
1858,1824,1839
1840,1826,1870
1890,1900,1925
1927,1991,1914
1930,1990,1915
1950,1844,1821
1907,1862,1840
1843,1829,1861
1808,1877,1843
1851,1872,1856
1914,1876,1893
1918,1939,1866
1890,2000,1927
1874,1922,1806
1889,1855,1806
1878,1808,1846
1888,1805,1829
1904,1817,1875
1919,1934,1899
1918,1958,1981
1872,1918,1891
1873,1931,1778
1904,1929,1776
1911,1931,1903
1894,1907,1851
1891,1863,1904
1904,1907,1858
1885,1792,1862
1856,1769,1845
1875,1843,1840
1928,1975,1873
1926,2010,1970
1920,1917,1933
1872,1741,1821
1900,1978,1829
1901,1895,1855
1900,1839,1825
1941,1877,1920
1925,1947,1930
1883,1858,1824
1872,1756,1774
1920,1828,1808
1955,1927,1914
2012,1994,1988
1859,1913,1869
1855,1813,1776
2000,1929,1879
1983,1970,1873
1954,1872,1999
1907,1936,1874
1946,1773,1840
1886,1773,1823
1893,1823,1832
1969,1919,1813
1995,1909,1868
1936,1935,1965
1904,1839,1901
1906,1818,1818
1971,1883,1923
1984,1791,1838
1927,1707,1777
1923,1755,1832
1987,1879,1927
1954,1872,1911
1953,1840,1867
2031,1979,1854
1982,1823,1792
1968,1815,1819
2032,1840,1807
1908,1813,1834
1869,1809,1919
1905,1786,1968
2010,1869,1829
1918,1806,1755
1918,1830,1881
1921,1988,1915
1919,1776,1831
1874,1655,1735
1933,1719,1840
1954,1897,1917
1926,1885,1824
1940,1851,1835
1971,1838,1872
1943,1850,1869
1843,1641,1775
1871,1751,1871
1926,1845,1840
1936,1856,1854
1915,1791,1855
1926,1769,1869
1945,1875,1782
1957,1839,1850
2000,1718,1744
1869,1827,1847
1856,1853,1892
1872,1778,1879
2014,1810,1776
1978,1825,1853
1843,1860,1865
1844,1920,1842
1857,1798,1885
1892,1727,1915
1933,1812,1852
1936,1871,1824
1887,1744,1757
1886,1742,1845
1923,1838,1952
1913,1818,1856
1889,1783,1808
1886,1840,1792
1905,1804,1843
1919,1785,1835
1887,1808,1817
1910,1947,1853
1936,1872,1895
1907,1805,1932
1858,1722,1781
1923,1788,1785
1948,1840,1968
1906,1885,1839
1904,1739,1742
1873,1723,1779
1915,1847,1879
1872,1836,1881
1871,1815,1861
1894,1968,1845
1978,1936,1872
1904,1721,1737
1802,1632,1808
1828,1709,1858
1936,1839,1934
1939,1904,1841
1872,1806,1826
1843,1823,1879
1862,1791,1819
1856,1771,1846
1875,1842,1909
1968,1931,1858
1963,1846,1847
1890,1777,1910
1798,1728,1855
1802,1725,1762
1916,1843,1833
1971,1936,1898
1899,1883,1910
1792,1645,1831
1825,1693,1789
1921,1993,1831
1853,1775,1823
1835,1662,1813
1858,1747,1872
1887,1827,1893
1927,1804,1869
1885,1837,1808
1925,2010,1904
1888,1808,1799
1857,1648,1786
1877,1706,1810
1882,1883,1841
1820,1795,1840
1790,1716,1810
1827,1837,1820
1911,1917,1872
1889,1840,1867
1823,1673,1848
1838,1681,1891
1900,1810,1866
1883,1949,1839
1857,1855,1801
1845,1854,1904
1843,1729,1817
1835,1722,1842
1814,1825,1776
1823,1857,1809
1915,1837,1907
1920,1759,1833
1783,1786,1756
1822,1878,1803
1921,1822,1857
1936,1933,1822
1830,1798,1767
1785,1729,1787
1869,1827,1963
1865,1824,1881
1813,1794,1746
1854,1821,1775
1909,1844,1871
1876,1917,1899
1891,1808,1792
1785,1676,1777
1845,1740,1815
1871,1840,1841
1829,2065,1838
1855,1868,1824
1839,1754,1948
1851,1872,1856
1818,1754,1757
1809,1763,1829
1815,1874,1860
1853,1895,1827
1903,1919,1809
1836,1749,1803
1838,1788,1840
1845,1808,1840
1778,1767,1775
1857,1860,1847
1835,1955,1826
1862,1968,1874
1830,2004,1877
1819,1861,1776
1839,1712,1791
1881,1744,1806
1859,1803,1815
1808,1878,1805
1858,2006,1839
1888,1886,1856
1850,2006,1904
1786,1795,1879
1803,1706,1766
1837,1808,1767
1802,1840,1777
1853,1918,1840
1927,1981,1905
2059,1932,1915
1860,1968,1831
1618,1831,1756
1669,1771,1794
1826,1833,1811
1843,1859,1804
1889,1923,1860
1854,1995,1895
1819,1945,1883
1828,1857,1819
1808,1817,1751
1840,1883,1798
1838,1837,1831
1791,1840,1790
1829,1999,1815
1947,2043,1927
1846,1854,1873
1787,1738,1798
1863,1778,1782
1883,1894,1839
1923,1917,1879
1840,2045,1863
1872,1963,1894
1826,1808,1778
1748,1777,1747
1799,1827,1759
1822,1902,1817
1866,1957,1876
1843,1946,1879
1857,1982,1901
1842,1998,1840
1863,1893,1788
1875,1901,1835
1905,1935,1891
1837,1806,1858
1865,1779,1785
1811,1893,1783
1840,1947,1840
1882,1879,1917
1907,1914,1904
1851,1879,1771
1822,1904,1762
1840,1966,1845
1905,1950,1895
1930,1938,1869
1885,1894,1803
1872,1874,1804
1893,1819,1823
1906,1856,1868
1917,1878,1841
1975,1905,1750
1957,1939,1803
1920,1948,1894
1949,1901,1847
2030,1931,1872
2030,1907,1872
1927,1907,1815
1925,1890,1818
1939,1919,1799
2045,2149,1894
2021,1875,1887
1968,1729,1849
1920,1776,1820
2026,1970,1840
2007,1915,1841
1868,1830,1737
1895,1889,1767
2032,1975,1825
2010,2000,1872
1989,1865,1858
1963,1867,1838
2023,1950,1818
2019,1808,1821
1979,1822,1756
1958,1841,1782
2099,1898,1850
2111,1922,1873
2028,1926,1853
2067,1936,1849
2085,1904,1857
2086,1875,1845
2046,1930,1793
2108,1952,1814
2159,1943,1913
2131,1910,1872
2117,1907,1775
2174,1872,1805
2222,1881,1878
2199,2005,1872
2217,1904,1829
2220,1876,1822
2277,1968,1897
2271,1968,1874
2229,1877,1872
2240,1874,1922
2294,1950,1833
2334,1954,1848
2381,1893,1778
2349,1865,1795
2387,2034,1876
2393,1973,1869
2397,1840,1831
2431,1873,1858
2466,1996,1876
2470,2096,1935
2391,1841,1855
2395,1791,1802
2449,1914,1847
2448,1936,1869
2428,1910,1797
2451,1936,1862
2484,2001,1917
2466,2003,1861
2413,1887,1782
2437,1999,1843
2461,1914,1932
2448,1893,1878
2431,1849,1805
2433,1870,1869
2459,1927,1911
2441,1925,1936
2422,1942,1819
2431,1907,1813
2453,1949,1848
2443,1973,1872
2406,1899,1840
2416,1866,1850
2447,1941,1923
2448,1968,1921
2454,1934,1840
2427,2018,1858
2454,1999,1889
2453,2002,1927
2395,1815,1887
2419,1807,1791
2541,1899,1776
2334,1949,1924
2219,1939,1939
2290,1950,2000
2377,1968,1869
2369,2001,1807
2318,1918,1782
2341,1918,1907
2368,1898,1954
2331,1891,1872
2304,1884,1831
2302,1927,1830
2351,1934,1939
2338,1957,1965
2259,1877,1789
2259,1866,1827
2294,1920,1895
2305,2000,1927
2250,1936,1872
2235,1819,1803
2279,1882,1907
2294,1998,1923
2338,1934,1853
2245,1895,1921
2224,1869,1846
2123,1830,1826
2139,1828,1850
2193,2015,1920
2243,1899,1920
2156,1871,1850
2126,1840,1842
2162,1968,1890
2224,2061,1945
2227,1846,1895
2113,1762,1824
2053,1816,1844
2114,1934,1920
2131,1907,1886
2141,1906,1841
2155,2027,1982
2187,2161,1941
2090,1808,1773
1979,1615,1776
2016,1728,1930
2083,1949,2004
2081,1925,1835
2083,1975,1763
2068,2003,1808
2058,1883,1899
2068,1767,1873
2001,1808,1839
2000,1903,1865
2096,1931,1961
2119,2146,1979
1930,1973,1947
1892,1636,1777
1957,1761,1801
1995,1890,1866
1994,1969,1859
2015,1984,1829
1977,1815,1865
1921,1841,1904
1918,1870,1948
1958,1879,1974
1981,1930,1832
2000,1922,1822
1944,1921,1929
1916,2054,1872
1887,1872,1834
1882,1836,1817
1966,1875,1867
1902,1851,1885
1934,1903,1951
1956,2034,2019
1869,1913,1863
1821,1797,1861
1834,1747,1790
1845,1819,1797
1843,2005,1856
1857,1870,1879
1904,1800,1887
1917,1859,1920
1824,1842,1843
1826,1812,1867
1872,1872,1943
1865,1920,1890
1797,1936,1809
1875,2080,1998
1830,2017,1836
1701,1705,1771
1727,1711,1800
1817,1794,1846
1855,1907,1918
1764,2012,1958
1742,1994,1938
1765,1811,1971
1769,1819,1873
