1790,1717,1840
1829,1706,1872
1860,1969,1923
1787,1933,1827
1766,1814,1795
1815,1845,1835
1855,1898,1815
1868,2005,1803
1756,1993,1805
1762,2009,1859
1855,2028,1867
1770,1999,1795
1723,2013,1837
1776,2046,1856
1783,2038,1859
1767,2018,1837
1770,1981,1817
1820,2000,1886
1841,2029,1863
1739,2012,1787
1742,2004,1808
1806,2015,1863
1799,2003,1874
1769,2015,1820
1759,2011,1792
1779,1959,1821
1776,1913,1839
1755,1867,1809
1767,1935,1827
1787,1952,1850
1767,1968,1841
1741,1898,1795
1749,1854,1807
1790,1932,1846
1787,1907,1850
1751,1906,1803
1757,1904,1804
1808,1888,1841
1793,1936,1869
1760,1844,1826
1728,1843,1810
1789,1791,1846
1760,1782,1855
1729,1784,1806
1723,1786,1810
1775,1859,1875
1791,1806,1887
1754,1840,1822
1734,1766,1792
1755,1776,1835
1750,1744,1847
1726,1743,1817
1744,1760,1839
1765,1787,1869
1761,1760,1856
1755,1797,1844
1744,1725,1833
1748,1678,1847
1745,1731,1837
1729,1753,1827
1742,1702,1839
1765,1739,1855
1760,1680,1868
1717,1613,1835
1734,1723,1845
1771,1803,1883
1774,1754,1882
1717,1638,1822
1723,1586,1827
1766,1663,1887
1756,1655,1872
1726,1725,1829
1722,1619,1828
1743,1643,1890
1745,1628,1874
1712,1676,1831
1712,1646,1829
1754,1617,1874
1744,1581,1879
1707,1515,1851
1719,1616,1863
1745,1639,1883
1755,1557,1885
1726,1635,1843
1707,1564,1802
1746,1527,1862
1754,1603,1899
1713,1535,1845
1737,1489,1871
1774,1666,1889
1726,1535,1808
1710,1402,1837
1743,1395,1889
1773,1522,1910
1734,1527,1872
1717,1461,1847
1755,1572,1872
1757,1502,1859
1751,1465,1874
1703,1470,1788
1691,1385,1819
1755,1450,1904
1786,1475,1903
1746,1530,1858
1737,1423,1852
1738,1535,1879
1735,1535,1857
1735,1395,1856
1761,1488,1879
1751,1535,1812
1729,1398,1839
1718,1360,1865
1726,1359,1861
1798,1478,1921
1776,1605,1872
1688,1395,1779
1711,1364,1855
1773,1443,1914
1783,1488,1909
1748,1461,1874
1753,1520,1862
1755,1425,1865
1758,1415,1873
1735,1413,1847
1761,1449,1867
1791,1522,1886
1782,1458,1901
1791,1370,1904
1759,1574,1840
1761,1502,1825
1769,1456,1840
1743,1394,1819
1764,1397,1874
1807,1456,1935
1792,1437,1914
1763,1489,1857
1791,1530,1919
1835,1535,1904
1767,1424,1820
1744,1403,1813
1765,1460,1840
1813,1509,1907
1813,1535,1910
1794,1648,1893
1787,1568,1846
1799,1422,1857
1795,1414,1885
1765,1474,1820
1774,1502,1851
1815,1584,1904
1862,1664,1923
1744,1495,1779
1744,1462,1878
1809,1519,1943
1826,1535,1968
1760,1592,1845
1749,1591,1841
1796,1659,1872
1791,1585,1895
1776,1606,1899
1790,1588,1901
1785,1584,1889
1803,1643,1918
1769,1520,1847
1732,1449,1799
1791,1570,1841
1773,1602,1884
1766,1680,1875
1774,1562,1869
1786,1525,1859
1799,1619,1858
1760,1629,1855
1776,1680,1915
1805,1616,1931
1790,1590,1875
1764,1534,1858
1806,1572,1900
1808,1675,1920
1754,1701,1840
1744,1680,1819
1778,1705,1881
1819,1575,1893
1778,1614,1872
1744,1627,1840
1782,1692,1904
1793,1694,1872
1792,1710,1872
1758,1730,1838
1770,1685,1882
1783,1648,1871
1773,1696,1866
1751,1648,1836
1803,1680,1851
1776,1771,1805
1736,1680,1786
1735,1605,1872
1776,1629,1904
1806,1727,1890
1808,1746,1894
1776,1847,1821
1776,1757,1829
1781,1662,1824
1766,1661,1846
1751,1673,1855
1779,1840,1872
1796,1712,1853
1770,1717,1833
1763,1735,1811
1771,1773,1845
1776,1744,1878
1802,1761,1863
1776,1715,1808
1775,1738,1825
1803,1792,1866
1767,1802,1883
1740,1744,1822
1771,1766,1818
1807,1828,1870
1834,1899,1920
1781,1870,1776
1731,1665,1707
1759,1700,1846
1757,1728,1878
1747,1820,1861
1777,1872,1862
1791,1792,1857
1786,1771,1869
1744,1776,1798
1757,1730,1808
1792,1776,1840
1787,1802,1858
1793,1811,1875
1792,1855,1840
1791,1785,1805
1755,1774,1808
1728,1730,1840
1752,1781,1847
1798,1840,1887
1801,1789,1878
1730,1776,1770
1731,1761,1782
1776,1809,1838
1778,1824,1853
1765,1827,1837
1794,1910,1901
1846,1930,1949
1738,1659,1755
1711,1633,1743
1766,1742,1835
1794,1887,1870
1811,1900,1915
1765,1770,1825
1734,1678,1773
1799,1752,1830
1848,1843,1889
1798,1811,1872
1754,1791,1842
1765,1850,1846
1772,1883,1815
1756,1828,1785
1766,1817,1823
1807,1822,1872
1791,1841,1866
1757,1855,1813
1786,1859,1830
1823,1894,1876
1808,1858,1873
1775,1844,1818
1790,1871,1829
1825,1899,1869
1808,1871,1870
1779,1856,1852
1799,1921,1858
1842,1965,1885
1805,1968,1855
1778,1831,1825
1806,1846,1857
1824,1883,1883
1808,1949,1878
1780,1870,1818
1792,1861,1814
1847,1931,1893
1867,1951,1908
1857,1951,1887
1808,1931,1887
1794,1931,1893
1776,1915,1840
1776,1873,1808
1827,1918,1856
1856,1956,1913
1831,1948,1901
1797,1919,1845
1821,1934,1840
1855,1977,1870
1826,1984,1917
1792,1925,1875
1815,1955,1872
1843,1989,1890
1771,1981,1872
1809,1945,1825
1901,1984,1845
1894,2103,1953
1893,1975,1924
1756,1909,1814
1755,1932,1804
1790,1969,1860
1937,2084,1915
1926,2077,1933
1827,1899,1856
1744,1885,1805
1776,1959,1773
1814,1938,1775
1854,1961,1848
1856,2037,1895
1788,1986,1840
1751,1949,1760
1833,1962,1798
1882,1966,1867
1831,1963,1872
1794,1953,1806
1779,1945,1776
1809,1967,1819
1809,1979,1810
1785,1969,1801
1813,1984,1826
1873,2009,1840
1776,2005,1808
1839,1968,1776
1796,1984,1800
1840,2040,1856
1829,2055,1818
1789,1951,1761
1801,1960,1774
1839,1982,1815
1806,1967,1793
1795,1975,1765
1811,1999,1793
1843,2032,1839
1831,2029,1818
1794,1999,1778
1798,1993,1807
1807,2032,1830
1851,2016,1807
1785,1989,1759
1839,2012,1787
1824,2037,1822
1813,2032,1814
1793,2000,1781
1810,1997,1770
1803,2041,1798
1819,2037,1811
1754,2018,1776
1805,1987,1767
1792,2001,1810
1807,2006,1808
1808,2011,1771
1776,1997,1775
1791,2009,1818
1858,2009,1808
1800,1999,1766
1819,2017,1774
1867,2001,1808
1841,2000,1808
1840,1983,1775
1808,2000,1780
1810,1998,1794
1825,2022,1805
1846,1987,1767
1840,1999,1789
1871,2036,1833
1776,2025,1808
1846,1993,1783
1856,2044,1827
1866,2047,1847
1840,1999,1807
1776,1952,1781
1872,2039,1840
1778,1993,1814
1759,1949,1729
1726,1922,1705
1821,1962,1759
1858,1983,1808
1810,1994,1792
1801,1983,1767
1811,2009,1792
1873,2071,1840
1889,2053,1803
1808,1978,1744
1813,1969,1722
1792,2015,1780
1845,2032,1829
1913,2037,1821
1860,2046,1847
1873,2032,1836
1809,2047,1786
1894,2119,1814
1839,2084,1789
1674,1959,1697
1665,1952,1655
1712,2007,1665
1765,2057,1721
1810,2064,1762
1791,2126,1766
1729,2109,1739
1744,2130,1742
1778,2151,1776
1732,2107,1755
1767,2141,1735
1735,2198,1744
1791,2237,1779
1763,2227,1763
1746,2202,1712
1712,2223,1714
1800,2266,1756
1786,2269,1750
1728,2267,1723
1775,2377,1784
1844,2277,1836
1759,2147,1754
1649,2206,1651
1724,2275,1687
1841,2317,1793
1767,2277,1749
1686,2208,1665
1628,2225,1691
1713,2282,1718
1779,2271,1677
1747,2222,1631
1759,2224,1642
1759,2269,1689
1766,2294,1677
1777,2260,1653
1741,2237,1617
1790,2320,1653
1785,2310,1637
1714,2250,1568
1732,2223,1584
1805,2299,1646
1795,2315,1653
1680,2319,1577
1745,2288,1585
1803,2289,1647
1747,2293,1613
1708,2257,1529
1701,2271,1577
1841,2278,1630
1807,2279,1621
1807,2351,1639
1903,2350,1695
1792,2259,1616
1641,2208,1526
1678,2237,1520
1691,2288,1582
1685,2307,1635
1766,2291,1630
1776,2304,1594
1808,2350,1616
1819,2512,1671
1718,2342,1630
1734,2288,1622
1759,2302,1636
1775,2375,1642
1731,2459,1609
1790,2534,1629
1951,2559,1701
1810,2461,1611
1701,2480,1616
1749,2514,1631
1721,2528,1632
1727,2530,1677
1803,2742,1715
1843,2752,1703
1694,2746,1605
1670,2525,1555
1789,2599,1590
1776,2773,1648
1661,2899,1685
1693,3041,1699
1677,3099,1635
1644,3152,1566
1705,3303,1644
1727,3414,1686
1643,3491,1585
1630,3574,1572
1694,3440,1600
1835,3685,1729
1831,3845,1741
1568,3623,1535
1514,3527,1520
1613,3843,1582
1671,3953,1535
1700,3914,1507
1699,4039,1643
1615,4028,1647
1530,4095,1595
1535,4095,1584
1578,4038,1570
1651,3951,1563
1680,4017,1511
1597,4029,1534
1535,4089,1615
1585,4095,1643
1584,4062,1610
1575,4095,1584
1578,3914,1568
1594,3648,1590
1617,3952,1638
1608,3643,1530
1562,3360,1503
1535,3382,1607
1559,3503,1611
1554,3472,1558
1553,3167,1535
1604,3115,1579
1584,3082,1557
1557,3079,1535
1584,3129,1563
1619,3407,1636
1618,3015,1600
1600,2948,1555
1613,3014,1579
1664,2651,1593
1616,2627,1598
1600,2751,1619
1693,3115,1674
1715,2559,1613
1619,2310,1569
1613,2384,1601
1579,2490,1649
1638,2510,1702
1725,2512,1713
1681,2426,1660
1690,2416,1711
1728,2508,1765
1754,2630,1746
1678,2131,1646
1774,1891,1679
1822,2035,1759
1731,2226,1755
1725,2416,1776
1744,1872,1689
1799,1803,1747
1808,1917,1795
1803,1955,1796
1810,1963,1817
1888,2077,1846
1841,1971,1847
1835,1605,1791
1758,1519,1849
1806,1694,1977
1997,1814,1910
1952,1650,1775
1714,1661,1856
1771,1737,1936
1831,1535,1930
1872,1475,1936
1827,1586,1952
1840,1436,1937
1830,1331,1889
1845,1443,1914
1954,1495,1925
1922,1477,1942
1825,1328,1957
1833,1205,1927
1936,1334,1989
1974,1324,1995
1831,1277,1958
1907,1276,1891
1808,1264,1999
1822,1397,2109
1907,1283,2007
1931,1054,1920
1810,1136,2006
1858,1242,2095
1857,1095,1971
1856,1011,1936
1838,1294,2054
1879,1110,2075
1877,977,1939
1792,1084,2032
1761,1201,2096
1821,1260,2026
1813,1199,2000
1823,1269,2002
1863,1264,2032
1904,1158,2046
1936,1266,2045
1898,1409,2022
1749,1151,2037
1795,1345,2101
1801,1334,2096
1808,1286,2018
1851,1455,1967
1959,1520,2034
1751,1357,2078
1655,1416,2065
1723,1595,2045
1851,1562,2078
1785,1601,2059
1712,1669,2031
1775,1875,2084
1805,1839,2079
1770,1845,2006
1811,1582,1999
1781,1609,2039
1745,1903,2032
1728,1882,2011
1751,2029,2000
1899,2011,1975
1871,2000,2032
1670,2047,2070
1664,2113,2032
1723,2145,2082
1802,2272,2113
1789,2304,2067
1808,2118,1966
1732,2111,1947
1594,2016,1984
1600,2183,1987
1701,2259,1979
1775,2272,1959
1821,2283,2031
1706,2304,2027
1659,2284,1986
1695,2304,2006
1731,2341,2047
1726,2336,2013
1699,2218,1954
1738,2223,1968
1739,2251,2068
1702,2195,2111
1678,2224,1913
1711,2279,1917
1743,2182,1979
1680,2075,1937
1653,1977,1896
1687,2062,1936
1744,2164,2010
1730,2122,2026
1761,2043,1952
1766,2042,1949
1714,2014,1990
1688,1843,1922
1660,1856,1907
1674,2036,2000
1727,2101,2045
1735,2013,2026
1762,1914,1947
1711,1872,1995
1680,1905,1998
1696,1993,1966
1695,1879,1942
1724,1757,1967
1761,1837,1971
1746,1820,1927
1739,1887,1950
1711,1802,1981
1951,1932,1968
1798,1783,1822
1619,1751,1932
1582,1827,2053
1735,2066,2060
1754,1680,1935
1706,1662,1889
1727,1674,1950
1760,1802,1984
1814,1728,1967
1774,1839,1971
1747,1807,1995
1822,1685,1939
1839,1593,1878
1786,1857,1835
1636,1680,1934
1649,1616,2018
1794,1780,2019
1798,1585,1927
1728,1600,1936
1737,1681,1959
1787,1737,1959
1786,1655,1849
1771,1636,1919
1878,1809,1983
1842,1535,1899
1680,1579,1921
1718,1554,1947
1770,1648,1989
1747,1589,1926
1815,1647,1880
1808,1727,1917
1846,1602,1961
1833,1535,1891
1728,1567,1881
1745,1664,1965
1831,1459,1920
1750,1593,1931
1767,1605,1904
1887,1673,1972
1902,1535,1953
1729,1487,1887
1721,1618,1899
1747,1586,1941
1839,1505,1968
1825,1669,1951
1841,1686,1869
1853,1450,1877
1767,1477,1961
1796,1581,1961
1747,1667,1932
1833,1535,1931
1846,1630,1985
1858,1717,1877
1879,1520,1794
1764,1447,1905
1759,1535,1975
1931,1648,1904
1824,1593,1815
1950,1490,1877
1813,1614,1925
1665,1658,1989
1699,1671,1971
1856,1679,1907
1853,1630,1897
1863,1535,1829
1810,1410,1802
1785,1620,1886
1947,1809,1922
1986,1712,1849
1751,1554,1872
1697,1703,1963
1854,1792,1963
1778,1510,1842
1714,1456,1818
1968,1623,1879
1904,1705,1911
1802,2039,1943
1861,1908,1855
1721,1375,1843
1714,1535,1905
1775,1742,1893
1872,1791,1838
1856,1601,1839
1855,1665,1883
1767,1737,1843
1747,1863,1887
1816,1840,1901
1898,1815,1903
1969,1731,1842
1808,1535,1775
1745,1559,1863
1712,1587,1895
1727,1853,1881
1775,1840,1872
1823,1419,1859
1919,1635,1903
1842,1707,1872
1693,1818,1775
1758,1600,1832
1960,1783,1840
1856,1633,1859
1915,1617,1831
1845,1692,1905
1755,1599,1840
1701,1649,1806
1683,1755,1843
1920,1744,1868
2061,1879,1906
1818,1685,1920
1667,1488,1843
1680,1579,1808
1763,1709,1867
1935,1891,1878
1754,1671,1809
1766,1627,1872
1808,1744,1853
1795,1605,1762
1788,1675,1791
1843,1882,1821
1805,1729,1941
1729,1408,1851
1825,1402,1765
1730,1662,1818
1761,1715,1879
1728,1705,1866
1889,1959,1826
1658,1886,1871
1533,1380,1872
1604,1343,1824
1685,1502,1820
1707,1679,1869
1654,1840,1933
1595,1703,1856
1588,1648,1825
1626,1591,1847
1699,1797,1904
1737,1968,1873
1681,1597,1765
1664,1522,1755
1562,1527,1904
1424,1535,1932
1449,1589,1831
1600,1743,1802
1678,2032,1920
1699,1785,1859
1491,1267,1717
1418,1376,1810
1499,1650,1906
1560,1792,1913
1568,1681,1782
1776,1659,1798
1662,1959,1906
1479,1617,1846
1491,1729,1869
1553,1496,1872
1554,1525,1888
1562,1666,1843
1586,1763,1829
1535,1667,1905
1617,1851,1897
1614,1777,1777
1584,1386,1722
1526,1555,1868
1613,1734,1959
1693,1786,1853
1535,1599,1723
1472,1511,1861
1565,1582,1901
1535,1620,1856
1663,1760,1881
1664,1839,1838
1599,1620,1901
1629,1687,1911
1600,1686,1906
1535,1591,1807
1566,1623,1837
1666,1583,1820
1630,1665,1797
1535,1821,1894
1579,1884,1955
1559,1458,1821
1520,1387,1766
1584,1615,1825
1680,1730,1891
1760,1770,1831
1709,1659,1806
1664,1749,1855
1665,1773,1868
1535,1506,1897
1504,1526,1883
1607,1686,1901
1746,1905,1903
1707,1771,1802
1637,1527,1777
1642,1535,1870
1647,1737,1904
1648,1687,1820
1673,1755,1826
1775,1873,1851
1696,1530,1856
1738,1533,1859
1677,1680,1829
1714,1760,1850
1777,1706,1819
1747,1694,1901
1685,1713,1878
1677,1722,1858
1690,1672,1873
1658,1664,1849
1680,1753,1843
1808,1744,1852
1797,1853,1899
1775,1920,1895
1693,1620,1842
1715,1575,1847
1733,1723,1865
1767,1735,1819
1915,1738,1785
1763,1705,1840
1669,1713,1901
1860,1760,1857
1782,1746,1821
1690,1762,1907
1749,1728,1886
1774,1712,1841
1803,1698,1839
1772,1786,1831
1884,2113,1923
1745,1795,1859
1757,1584,1819
1873,1872,1879
1815,1858,1897
1744,1535,1845
1744,1661,1846
1846,1904,1844
1904,2019,1920
1822,1635,1841
1749,1556,1811
1766,1719,1810
1808,1973,1911
1830,1930,1919
1872,1792,1868
1760,1674,1803
1780,1678,1848
1877,1790,1872
1824,1790,1825
1770,1834,1885
1799,1955,1943
1867,1969,1874
1860,1710,1773
1808,1693,1802
1830,1733,1915
1866,1820,1890
1835,1867,1779
1926,1927,1831
1904,1949,1933
1888,1584,1789
1765,1585,1839
1845,1902,1935
1825,1882,1867
1808,1841,1813
1840,1815,1805
1923,1922,1851
1826,1786,1811
1908,1629,1837
1866,1714,1823
1927,1920,1898
1893,2035,1947
1770,1919,1856
1883,1776,1825
1829,1681,1814
1824,1738,1830
1831,1806,1821
1838,1965,1872
1936,2089,1955
1910,1814,1904
1935,1724,1837
1919,1635,1754
1838,1802,1781
1824,1937,1882
1860,1794,1877
1871,1799,1814
1970,1907,1835
2086,1981,1888
1847,1826,1781
1766,1745,1823
1866,1910,1922
1935,1943,1904
2021,1893,1808
1899,1826,1837
1846,1747,1851
1899,1859,1835
1906,1925,1820
1889,1885,1786
1967,1979,1883
2001,1931,1887
1862,1827,1828
1869,1744,1808
1999,1787,1808
1919,1945,1841
1982,1984,1903
2079,2013,1831
1993,1801,1808
1792,1810,1839
1767,1755,1840
1878,1874,1841
1982,1915,1892
1999,1817,1897
1953,1931,1824
1869,1929,1783
1882,1847,1865
1984,1885,1898
2007,1927,1856
2000,1979,1878
2002,1925,1903
1966,1953,1837
1978,1932,1757
1916,1759,1850
1917,1807,1901
1935,1871,1890
1933,1904,1854
1942,1937,1823
1955,1973,1868
2033,1981,1915
1973,1933,1843
1925,1899,1854
1951,1865,1856
2037,1950,1879
2079,2192,1907
1904,1904,1758
1887,1659,1798
1911,1761,1857
1926,1821,1869
1941,1859,1840
1999,1872,1877
2074,2003,1902
1939,1941,1840
1921,1842,1798
1969,2107,1911
2075,2371,1927
2015,1739,1787
1904,1517,1739
1981,1701,1839
1949,1999,1949
1999,2189,1920
2107,1962,1778
1886,1680,1760
1921,1859,1838
1932,1810,1803
1959,1849,1846
1991,1970,1846
2016,1922,1863
1994,1889,1865
1984,1955,1877
2018,2003,1883
2027,1917,1903
1998,1906,1821
2023,1861,1781
1995,1856,1854
1979,1911,1903
2105,1983,1834
1983,1904,1799
1924,1936,1857
1965,1915,1904
2064,1985,1857
1966,1867,1809
1936,1781,1855
1998,1884,1866
2003,1887,1826
1985,1934,1872
2017,1941,1885
2096,1894,1846
1961,1858,1851
1920,1844,1855
1999,1933,1876
2087,1968,1916
1983,1953,1866
1927,1936,1872
1995,1961,1881
2107,2053,1872
2054,1856,1769
1998,1707,1807
2001,1936,1910
1984,1876,1838
1959,1827,1826
1969,1954,1893
2038,2099,1891
2039,1854,1878
2027,1835,1856
1985,1893,1840
2039,1892,1889
2036,1849,1911
2001,1874,1833
2159,2032,1844
2096,1963,1837
1876,1881,1889
1904,1872,1851
2081,1981,1772
1999,1930,1872
1943,1780,1934
1918,1835,1857
1979,1869,1812
2018,1997,1867
2046,2039,1905
2026,2030,1883
2025,1737,1762
1980,2095,1831
1975,2011,1897
2014,1712,1841
1982,1733,1835
1981,1841,1882
2162,1907,1905
2073,1942,1853
1970,1968,1777
1952,1986,1850
1993,2096,1987
1970,1917,1867
2017,1965,1856
1971,1999,1872
1955,1798,1835
1980,1758,1801
1997,2003,1854
1983,1945,1845
2007,1940,1878
2007,2058,1878
1990,1907,1794
2029,1966,1856
2046,1978,1847
1946,1738,1783
1972,1767,1808
1991,1931,1872
2086,2010,1926
2043,1936,1837
1971,2034,1840
1937,1871,1827
1935,1891,1829
2011,1887,1829
2035,1883,1770
1930,1949,1889
1878,1979,1968
1936,1979,1915
1921,1893,1842
2030,1872,1845
1945,1840,1830
1953,1865,1839
2009,1984,1850
2058,2109,1904
2055,2087,1905
1986,1825,1808
1989,1837,1814
1906,1721,1815
2034,1968,1898
2089,2004,1888
2063,1835,1776
1969,1831,1788
1904,1990,1936
1915,2128,1906
1975,1981,1887
1987,1841,1840
2003,1925,1922
1979,1925,1866
1929,1855,1809
1979,1950,1861
2003,1987,1871
2006,2057,1867
1936,2044,1851
1966,1840,1882
2017,1765,1834
2064,1839,1821
1920,1859,1838
1975,1923,1881
2015,1968,1883
1984,2057,1902
1974,2009,1856
1948,1861,1881
1977,1840,1865
1933,1885,1833
1951,1909,1846
2064,1969,1878
1926,2057,1889
1919,2007,1873
1987,1910,1835
1953,1905,1886
1925,1822,1865
1898,1831,1807
1915,2015,1871
2006,1931,1874
2011,1846,1867
1970,1850,1883
1995,1955,1829
2032,1965,1872
1956,1991,1930
1923,1894,1840
1958,1887,1776
1962,1968,1885
1948,1935,1919
1826,1897,1862
1910,1867,1866
1971,1936,1910
2041,2128,1904
1985,1987,1808
1961,1846,1815
1935,1919,1874
1920,1983,1905
1918,1879,1869
1981,1872,1802
1994,1838,1810
1934,1887,1904
1906,1936,1887
1870,1953,1856
1995,1893,1851
2039,1949,1897
2009,1941,1876
1926,1831,1836
2067,1881,1807
1974,1902,1846
1823,1899,1862
1866,1830,1811
1977,1968,1911
1965,2053,1942
1934,1926,1887
1902,1774,1775
1889,1933,1898
1914,1953,1878
1891,1984,1858
1936,1973,1872
1939,1782,1869
1916,1781,1858
1907,1883,1840
1920,1852,1818
1968,1843,1840
2076,1913,1900
2112,1935,1872
2044,1871,1836
1931,1930,1897
1881,2018,1843
1755,1814,1842
1823,1851,1923
1968,2153,1992
1942,1831,1847
1937,1740,1753
1968,1927,1822
1975,1917,1842
1910,1776,1871
1930,1809,1875
1875,2032,1878
1981,1949,1878
2077,1874,1859
1875,1758,1812
1875,1776,1817
1889,1838,1863
1969,1951,1901
1884,1890,1904
2006,2001,1857
2041,1872,1853
1936,1886,1914
1872,1919,1859
1863,1840,1861
1901,1975,1850
2000,1914,1872
1943,1933,1838
2086,1965,1806
1905,1678,1825
1805,1840,1898
1863,1897,1919
1904,1968,1815
2069,2111,1857
1945,1911,1858
1903,1776,1833
1804,1616,1783
1873,1807,1858
1904,1904,1915
1867,1831,1854
1935,1831,1801
1929,1925,1841
1955,1933,1861
1891,1949,1845
1920,1950,1854
1973,2032,1926
1904,1915,1871
1872,1765,1775
1889,1838,1792
1879,1774,1877
1863,1968,1913
1945,1969,1843
1847,1739,1777
1925,1820,1822
2002,2058,1906
1999,1965,1825
1834,1893,1858
1910,1771,1907
1897,1856,1874
1863,2043,1823
1881,1821,1771
1991,1746,1830
1945,2095,1913
1855,1841,1786
1827,1622,1799
1936,1773,1867
1951,2018,1876
1891,2033,1894
1878,1876,1817
1985,1776,1808
1872,1835,1821
1834,1905,1841
1877,1915,1869
1955,1893,1894
1968,1853,1843
1813,1891,1824
1799,1872,1813
1888,2064,1892
1936,1961,1897
1893,1664,1798
1856,1923,1838
1891,1834,1857
1989,1785,1874
1924,1861,1853
1904,1899,1797
1927,1874,1839
1968,1991,1910
1936,1883,1821
1888,1731,1742
1783,1779,1851
1827,1879,1945
1853,1898,1870
1925,1961,1827
1938,2100,1850
1906,2017,1899
1890,1808,1859
1857,1691,1840
1901,1958,1858
1933,1966,1851
1943,1755,1807
1967,1807,1808
1970,1984,1869
1971,1959,1897
1897,1879,1853
1803,1827,1815
1805,1817,1872
1893,1964,1949
1903,1831,1865
1937,1854,1737
1917,1987,1803
1936,1900,1921
1932,1823,1866
1904,1926,1811
1888,1971,1875
1929,1840,1911
1904,1815,1874
1971,1968,1872
1918,1923,1872
1920,1968,1875
1878,1934,1817
1808,1856,1803
1854,1763,1865
1984,1755,1845
1889,1886,1822
1879,1957,1891
1917,1969,1910
1894,1873,1863
1853,1771,1821
1862,1835,1813
1925,1913,1889
2096,1930,1857
2061,1927,1821
1894,2107,1907
1821,1996,1872
1829,1869,1915
1804,1695,1795
1875,1653,1768
1910,1828,1842
1951,1887,1869
1958,1910,1857
1888,2093,1920
1855,1923,1957
1895,2111,1872
1841,1652,1743
1814,1608,1791
1869,1786,1865
1948,1959,1889
2017,1938,1810
1964,2090,1777
1877,1855,1872
1866,1871,1966
1856,1772,1850
1889,1772,1801
1817,1877,1872
1850,1987,1951
1938,1904,1901
1856,1839,1795
1847,2007,1869
1878,1840,1829
1900,1777,1803
1872,1945,1811
1872,1924,1871
1914,1790,1890
2019,1828,1823
1921,1882,1840
1889,1942,1899
1843,1905,1873
1840,1838,1826
1839,1835,1789
1872,1875,1892
1923,1930,1937
1939,1903,1943
1859,1894,1856
1895,1930,1876
1879,1933,1837
1987,1840,1747
1904,1962,1857
1888,2038,1905
1904,1890,1855
1977,1713,1878
1843,1802,1846
1855,1845,1872
1893,1887,1828
1950,1833,1852
1843,1815,1773
1813,1900,1887
1959,2000,1881
1891,1893,1808
1872,1893,1895
1892,1835,1905
1965,1856,1904
1886,1954,1911
1877,1966,1830
1853,2094,1840
1906,1819,1815
1843,1741,1776
1839,1803,1851
1915,1950,1899
2000,1978,1830
1848,1741,1807
1793,1705,1861
2038,1822,1862
1989,1811,1857
1872,1891,1849
2000,1856,1822
1967,1869,1837
1861,2078,1869
1851,1871,1840
1817,1754,1809
1881,1727,1805
1756,1743,1875
1733,1818,1876
1831,1983,1894
1954,2129,1938
1902,1840,1840
1840,1702,1803
1825,1755,1795
1857,1898,1829
1865,1859,1867
1879,1983,1892
1879,1839,1834
1868,1674,1794
1888,1821,1819
1907,1812,1858
1902,1735,1847
1986,1870,1818
1935,1935,1801
1851,1821,1873
1728,1712,1906
1758,1787,1901
1904,1905,1890
1893,1829,1796
1840,1776,1775
1920,1867,1831
1904,1947,1859
1855,1746,1842
1869,1680,1825
1990,1837,1782
1904,2021,1846
1744,1797,1935
1721,1794,1949
1819,1946,1879
1902,1898,1860
1873,1862,1817
1903,1712,1858
1850,1750,1872
1856,1822,1791
1840,1835,1814
1858,1856,1808
1959,1792,1813
1953,1984,1808
1871,2018,1890
1815,1702,1840
1875,1645,1795
1806,1843,1879
1748,1807,1868
1799,1820,1797
1882,1840,1878
1986,1839,1883
1849,1856,1895
1808,1866,1844
1907,1888,1843
1974,2032,1846
1798,1978,1849
1808,1859,1847
1838,1791,1853
1909,1824,1823
1833,1773,1840
1834,1776,1827
1874,1819,1855
1876,2023,1920
1887,1840,1858
1935,1854,1835
1965,1942,1809
1856,1911,1858
1833,1787,1822
1829,1652,1812
1806,1774,1882
1808,1988,1927
1852,1936,1849
1851,1853,1852
1899,1987,1871
1859,1837,1930
1869,1830,1822
1850,1856,1842
1904,2012,1881
2004,2080,1954
1901,1872,1819
1779,1775,1744
1866,1787,1805
1858,1852,1882
1808,1818,1893
1872,1843,1883
1946,1856,1834
1883,1881,1850
1823,1838,1825
1786,1952,1794
1889,2103,1856
1903,1872,1888
1908,1819,1810
1831,1838,1802
1871,1964,1903
1884,1895,1907
1948,1808,1818
1841,1808,1843
1872,1872,1826
1862,1965,1877
1824,1947,1873
1950,2137,1899
1959,1744,1841
1796,1649,1810
1766,1776,1809
1843,1874,1872
1904,1929,1890
1882,1926,1904
1855,1919,1825
1882,1979,1840
2033,2030,1895
1970,2032,1857
1791,1835,1780
1723,1685,1810
1824,1861,1872
1951,1974,1877
1943,1999,1854
1926,1907,1842
1904,1867,1814
1792,1750,1890
1802,1876,1835
1861,1920,1842
1863,1797,1867
1934,1845,1885
1909,1889,1867
1872,1939,1809
1855,1946,1840
1859,1901,1839
1872,1904,1886
1894,1890,1858
1942,2030,1866
1906,2083,1940
1904,1943,1875
1825,1671,1680
1845,1749,1812
1925,1941,1907
1874,1972,1856
1845,1743,1757
1872,1825,1921
1924,1914,1982
1823,1888,1808
1815,1916,1813
1879,1984,1875
1894,1933,1927
1850,1870,1821
1904,1941,1828
1966,2162,1915
1905,1840,1863
1856,1616,1733
1893,1716,1820
1840,1902,1934
1872,2000,1947
1889,1934,1835
1877,1889,1835
1879,2032,1879
1874,1953,1901
1867,1795,1845
1823,1861,1862
1885,1901,1872
1886,1863,1852
1892,1909,1840
1886,1904,1830
1985,1889,1809
1878,1899,1861
1838,2033,1936
1935,2143,1957
1969,1717,1817
1923,1693,1745
1801,1783,1811
1822,1872,1838
1951,2004,1860
1962,1963,1853
1815,1955,1894
1808,1847,1867
1846,1872,1833
1898,1974,1835
1909,1776,1819
1883,1817,1833
1855,1920,1849
1883,1984,1895
1861,1906,1849
1857,1875,1851
1895,1861,1871
1936,1949,1883
1891,2004,1861
2066,1818,1829
2019,1866,1914
1814,1898,1761
1748,1936,1810
1824,1847,1831
1892,1872,1925
1893,1930,1948
1905,1968,1915
1810,1839,1812
1856,1802,1849
1921,1920,1899
1856,1937,1874
1901,1923,1809
1883,1854,1850
1904,1842,1872
2022,1926,1823
2001,1973,1783
1791,2079,1952
