1811,1852,1853
1840,1877,1903
1855,1886,1905
1851,1861,1859
1831,1849,1854
1840,1886,1891
1856,1913,1895
1765,1889,1856
1819,1887,1857
1802,1913,1897
1831,1904,1898
1792,1892,1863
1795,1907,1856
1810,1903,1873
1808,1901,1889
1851,1891,1862
1806,1895,1845
1760,1932,1872
1781,1951,1902
1779,1919,1843
1776,1901,1840
1805,1925,1879
1796,1943,1894
1754,1937,1857
1829,1907,1849
1779,1936,1873
1793,1982,1891
1827,1901,1855
1846,1872,1840
1778,1904,1872
1821,1926,1893
1749,1929,1844
1805,1897,1831
1823,1911,1861
1781,1914,1879
1742,1875,1856
1751,1890,1826
1773,1915,1841
1777,1925,1861
1744,1904,1829
1748,1904,1840
1776,1925,1870
1776,1915,1872
1744,1893,1829
1733,1861,1808
1775,1884,1854
1785,1939,1865
1744,1889,1823
1728,1863,1814
1757,1872,1849
1761,1903,1859
1732,1888,1813
1727,1886,1805
1756,1887,1843
1767,1939,1868
1728,1939,1821
1713,1866,1808
1743,1881,1847
1744,1904,1858
1715,1889,1813
1719,1898,1811
1774,1925,1859
1765,1967,1879
1727,1881,1806
1711,1850,1791
1739,1882,1840
1746,1938,1845
1716,1902,1824
1710,1842,1818
1740,1867,1838
1747,1926,1863
1713,1873,1815
1693,1858,1793
1729,1893,1840
1755,1921,1862
1712,1904,1814
1695,1841,1807
1728,1897,1843
1731,1927,1854
1701,1899,1825
1702,1890,1797
1742,1925,1840
1749,1939,1866
1711,1910,1815
1711,1913,1819
1725,1879,1818
1724,1901,1823
1697,1894,1799
1687,1881,1802
1721,1918,1846
1735,1936,1862
1706,1911,1808
1691,1881,1789
1725,1903,1840
1731,1921,1849
1695,1895,1792
1696,1884,1795
1718,1917,1837
1727,1929,1840
1696,1904,1807
1694,1882,1791
1727,1930,1834
1730,1936,1846
1697,1886,1802
1694,1872,1794
1735,1904,1839
1750,1932,1859
1712,1965,1827
1687,1898,1779
1719,1867,1803
1734,1887,1821
1711,1873,1799
1694,1869,1795
1735,1897,1840
1730,1902,1840
1698,1919,1793
1687,1899,1782
1728,1916,1837
1739,1913,1849
1702,1877,1794
1699,1895,1787
1738,1903,1843
1743,1913,1847
1699,1907,1798
1690,1879,1780
1721,1914,1810
1733,1907,1845
1697,1878,1807
1687,1876,1796
1727,1909,1838
1725,1910,1829
1686,1882,1791
1691,1879,1797
1737,1886,1840
1744,1931,1859
1710,1934,1811
1687,1867,1789
1729,1874,1817
1743,1886,1865
1701,1931,1803
1687,1867,1774
1733,1890,1827
1734,1919,1843
1708,1903,1808
1716,1895,1801
1743,1926,1841
1745,1941,1857
1709,1923,1823
1709,1911,1812
1734,1926,1831
1744,1921,1846
1712,1888,1803
1707,1891,1787
1745,1918,1831
1749,1951,1838
1718,1901,1805
1712,1917,1797
1744,1988,1846
1751,1958,1852
1717,1900,1797
1713,1879,1793
1747,1966,1851
1749,1943,1853
1721,1871,1792
1712,1866,1795
1750,1916,1840
1744,1936,1849
1718,1904,1799
1726,1906,1794
1755,1893,1847
1766,1952,1861
1719,1968,1811
1709,1921,1799
1751,1962,1855
1760,1957,1860
1719,1878,1799
1724,1884,1810
1751,1927,1847
1755,1959,1857
1726,1921,1811
1739,1903,1802
1786,1936,1855
1785,1959,1872
1723,1925,1822
1722,1921,1809
1763,1931,1856
1777,2021,1866
1744,1968,1827
1727,1877,1808
1747,1950,1838
1763,1954,1854
1730,1923,1821
1734,1936,1804
1770,1930,1839
1787,1975,1857
1741,1934,1807
1739,1942,1813
1774,1907,1856
1770,1943,1857
1742,1915,1806
1742,1936,1805
1758,1904,1849
1762,1961,1850
1715,1915,1797
1739,1903,1802
1776,1939,1840
1781,1973,1845
1745,1915,1811
1745,1935,1807
1773,1910,1853
1775,1917,1860
1743,1894,1805
1726,1921,1786
1761,1940,1833
1798,1984,1873
1760,1947,1833
1739,1911,1799
1774,1879,1840
1791,1885,1856
1745,1921,1824
1744,1973,1807
1780,1953,1835
1793,1924,1847
1754,1890,1810
1752,1926,1813
1794,1952,1846
1806,1941,1856
1773,1911,1806
1765,1911,1808
1805,1935,1865
1806,1982,1872
1766,1901,1809
1771,1847,1801
1804,1904,1847
1792,1994,1845
1764,1967,1825
1776,1925,1833
1793,1941,1853
1808,1965,1871
1779,1878,1841
1778,1887,1842
1791,1874,1840
1794,1897,1843
1769,1873,1815
1771,1900,1813
1798,1940,1849
1797,1936,1858
1776,1905,1814
1779,1964,1808
1807,1956,1846
1807,1936,1860
1777,1967,1835
1774,1920,1810
1808,1910,1856
1808,1927,1865
1774,1936,1817
1775,1920,1795
1809,1963,1838
1820,1956,1871
1779,1906,1839
1776,1971,1811
1808,1977,1837
1805,1955,1840
1771,1905,1795
1773,1935,1805
1805,1959,1862
1813,1949,1872
1780,1925,1820
1783,1926,1810
1804,1972,1840
1792,1953,1847
1777,1937,1813
1783,1933,1820
1806,1958,1846
1813,1931,1861
1780,1933,1822
1784,1907,1817
1815,1966,1853
1833,1951,1856
1787,1951,1797
1787,1913,1813
1824,1948,1856
1831,1971,1870
1803,1896,1821
1794,1921,1811
1821,2003,1849
1836,1975,1871
1798,1929,1827
1794,1907,1820
1819,1916,1854
1830,1935,1867
1803,1904,1833
1808,1860,1813
1872,1920,1857
1828,1943,1876
1767,1900,1849
1823,1899,1838
1831,1918,1855
1817,1913,1872
1797,1949,1839
1807,1887,1845
1840,1957,1883
1847,1950,1873
1809,2014,1827
1797,1851,1808
1839,1890,1839
1840,1922,1849
1808,1904,1819
1814,1925,1824
1842,1904,1855
1846,1913,1853
1817,1909,1819
1811,1918,1831
1838,1876,1842
1841,1929,1859
1811,1914,1809
1815,1896,1807
1863,1910,1853
1856,1894,1872
1809,1878,1840
1803,1865,1814
1838,1887,1840
1861,1905,1863
1827,1856,1825
1811,1892,1826
1826,1899,1851
1838,1901,1854
1815,1870,1813
1813,1879,1821
1847,1879,1869
1865,1894,1873
1822,1876,1819
1834,1834,1834
1872,1885,1871
1872,1867,1869
1822,1866,1802
1829,1881,1829
1862,1842,1861
1877,1878,1885
1842,1795,1835
1822,1936,1824
1861,1857,1853
1856,1931,1853
1814,1871,1828
1807,1856,1831
1863,1878,1869
1869,1936,1873
1806,1855,1825
1798,1843,1831
1840,1872,1869
1851,1862,1872
1817,1830,1821
1814,1837,1818
1840,1859,1855
1839,1871,1866
1818,1847,1820
1829,1837,1821
1850,1872,1866
1857,1872,1867
1823,1839,1813
1809,1838,1808
1838,1863,1854
1857,1872,1872
1842,1858,1830
1836,1856,1818
1849,1835,1839
1849,1845,1847
1825,1828,1808
1837,1843,1811
1868,1851,1850
1866,1845,1846
1825,1827,1819
1837,1819,1818
1857,1843,1860
1859,1856,1865
1841,1829,1829
1840,1811,1818
1865,1834,1840
1863,1843,1846
1823,1814,1807
1830,1809,1829
1869,1822,1862
1883,1838,1866
1854,1811,1830
1837,1803,1824
1855,1829,1850
1872,1808,1863
1844,1771,1818
1843,1766,1797
1859,1757,1837
1861,1798,1856
1851,1803,1844
1861,1802,1856
1879,1791,1872
1862,1767,1853
1833,1744,1819
1839,1763,1850
1872,1809,1882
1881,1805,1875
1857,1789,1840
1829,1764,1826
1852,1756,1853
1877,1783,1870
1861,1807,1840
1853,1787,1825
1870,1774,1863
1867,1793,1871
1840,1739,1826
1837,1757,1825
1863,1821,1851
1871,1876,1863
1843,1744,1813
1836,1723,1810
1863,1794,1855
1879,1827,1873
1853,1814,1830
1851,1779,1840
1866,1742,1867
1859,1768,1873
1842,1758,1931
1856,1765,2005
1872,1789,2174
1883,1796,2370
1858,1787,4095
1798,1746,2788
1716,1680,1936
1683,1643,1092
1720,1629,1494
1759,1661,1857
1789,1723,1910
1793,1759,1856
1760,1712,1819
1767,1711,1823
1810,1750,1829
1834,1772,1829
1818,1791,1829
1808,1744,1828
1831,1750,1829
1829,1780,1831
1817,1778,1831
1826,1757,1833
1865,1791,1828
1875,1776,1831
1845,1807,1828
1840,1776,1829
1862,1769,1829
1879,1799,1826
1842,1787,1831
1840,1776,1830
1872,1797,1827
1881,1806,1828
1872,1819,1829
1877,1905,1829
1881,1780,1830
1851,1709,1827
1871,1749,1829
1875,1791,1827
1887,1811,1819
1893,1808,1808
1873,1795,1767
1869,1797,1780
1878,1802,1808
1889,1813,1803
1856,1819,1774
1869,1805,1767
1892,1817,1798
1895,1862,1795
1870,1840,1764
1859,1805,1746
1889,1807,1770
1883,1770,1765
1870,1758,1738
1871,1830,1738
1911,1905,1796
1903,1846,1807
1852,1759,1743
1857,1757,1731
1877,1744,1765
1890,1787,1791
1863,1808,1760
1868,1918,1744
1891,1950,1783
1920,1936,1813
1857,1626,1717
1845,1629,1698
1903,1810,1767
1910,1791,1786
1887,1872,1757
1901,1932,1765
2045,1665,1713
1874,1744,1749
1802,1726,1762
1814,1765,1749
1894,1893,1812
1911,1872,1787
1904,1840,1729
1995,1822,1696
1917,1728,1766
1809,1755,1863
1785,1784,1799
1934,1857,1776
1997,1842,1797
1920,1708,1699
1835,1459,1596
1868,1637,1680
1887,1872,1699
1937,2068,1811
1834,1692,1728
1826,1692,1709
1905,1677,1796
1902,1830,1776
1727,1723,1738
1719,1659,1751
1861,1841,1873
1855,1674,1789
1837,1623,1709
1829,1599,1698
1830,1535,1742
1875,1691,1776
1824,1664,1694
1818,1606,1730
1808,1641,1777
1853,1749,1859
1869,1513,1744
1734,1535,1703
1799,1669,1815
1871,1728,1851
1794,1767,1701
1712,1460,1670
1776,1395,1681
1779,1579,1696
1723,1626,1687
1738,1631,1722
1805,1642,1756
1811,1602,1776
1755,1568,1743
1734,1563,1684
1767,1590,1712
1827,1811,1791
1782,1764,1717
1730,1674,1699
1731,1693,1703
1735,1781,1725
1710,1619,1698
1735,1699,1757
1760,1821,1774
1754,1850,1824
1705,1767,1803
1717,1707,1635
1790,1673,1767
1782,1767,1775
1744,1641,1758
1712,1698,1766
1739,1767,1775
1744,1835,1789
1741,1868,1731
1751,1806,1761
1766,1806,1801
1771,1740,1969
1681,1532,2003
1692,1618,1603
1774,1762,1594
1770,1726,1703
1718,1685,1712
1730,1717,1744
1783,1807,1813
1774,1747,1779
1727,1745,1774
1712,1535,1743
1778,1689,1824
1791,1590,1823
1733,1634,1833
1723,1703,1747
1783,1717,1796
1787,1514,1795
1727,1499,1767
1710,1466,1759
1742,1591,1777
1830,1793,1862
1904,1697,1824
1852,1535,1891
1797,1495,1782
1863,1478,1689
1933,1645,1600
1565,1535,1831
1578,1788,2169
1696,1686,1887
1683,1378,1665
1767,1375,1791
1906,1533,1779
1838,1607,1840
1759,1599,1741
1712,1669,1757
1687,1885,1846
1747,2005,1911
1775,1888,1746
1929,2022,1696
1856,1951,1807
1818,2103,1731
1871,2349,1819
1736,2510,1787
1535,2559,1892
1614,2797,1808
1657,2848,1865
1725,2999,1743
2128,3213,1699
1887,3243,1698
1593,3600,1691
1520,3838,1730
1559,3451,1826
1590,3760,1806
1643,4002,1737
1696,3836,1719
1648,3975,1728
1535,3983,1742
1525,4095,1738
1586,4095,1613
1614,4095,1753
1591,4095,1699
1535,4095,1643
1535,4095,1663
1577,4095,1662
1567,4095,1765
1530,4095,1699
1504,4095,1648
1521,4095,1734
1560,4095,1700
1535,4095,1675
1604,4095,1744
1680,4095,1868
1637,4095,1853
1507,3834,1735
1397,3759,1587
1429,3728,1590
1526,3375,1707
1520,3426,1763
1523,3492,1714
1600,3447,1743
1642,3501,1841
1709,3598,1881
1680,3295,1937
1520,3109,1709
1534,3053,1619
1614,3109,1669
1609,3135,1799
1519,2880,1895
1574,2971,1866
1644,2998,1822
1616,2799,1821
1580,2825,1707
1661,2857,1879
1820,2785,2031
1855,2759,2039
1639,2544,1683
1414,2493,1562
1455,2479,1687
1769,2640,1733
1605,2673,1859
1559,2490,1909
1609,2407,1858
1680,2386,1863
1752,2291,1906
1936,2419,2103
1872,2326,1953
1552,2165,1689
1535,2175,1703
1670,2258,1830
1707,2311,1814
1744,2256,1853
1758,1887,1819
1777,1841,1878
1770,1963,1883
1663,1954,1798
1712,1942,1830
1786,2055,1882
1857,2245,2022
1636,1808,1791
1585,1518,1629
1713,1611,1758
1901,1745,1979
1831,1802,2042
1916,2380,1897
1730,1714,1727
1438,1394,1791
1459,1267,1694
1706,1474,1800
1915,1609,1905
1712,1535,1734
1616,1968,1761
1613,1526,1793
1713,1274,1816
1712,1319,1891
1712,1407,1636
1684,1535,1685
1998,1818,1781
2165,1650,1527
1615,1309,1745
1462,1318,1877
1577,1617,1858
2203,1343,1683
1989,1295,1635
1946,2005,1968
1744,1910,1786
1299,1137,1629
1399,1169,1726
1632,1523,1863
1693,1739,1936
1664,1685,1893
1658,1751,1789
1759,1923,1893
1731,2161,1867
1669,2177,1631
1670,1872,1602
1682,1872,1761
1695,2079,1847
1746,2155,1787
1901,2185,1724
1870,2384,1778
1667,2315,1829
1485,2342,1803
1636,2176,1834
1699,2012,1797
1839,2203,1822
1791,2320,1884
1683,2364,1909
1751,2291,1799
1701,2360,1870
1749,2301,1887
1732,2201,1807
1728,2288,1803
1936,2403,1769
1703,2206,1776
1568,2223,1861
1602,2318,1942
1667,2289,1974
1745,2235,1915
1737,2032,1902
1717,2100,1926
1659,2134,1884
1719,2241,1856
1781,2382,1895
1754,2079,1870
1780,2032,1923
1740,2032,1966
1724,2122,1925
1806,2224,2017
1751,2042,1812
1707,1935,1793
1802,2039,1894
1815,2045,1993
1727,2065,1883
1669,2037,1863
1724,2414,1911
1799,1891,1889
1790,1796,1963
1941,1941,2129
1863,1936,2014
1659,1931,1793
1693,1939,1866
1776,1949,2176
1763,2064,1893
1757,1835,1731
1821,1793,1834
1791,1840,1918
1769,1868,1950
1783,1913,1971
1871,1911,1946
1875,1904,1984
1811,1877,2031
1791,1857,1987
1815,1790,1957
1926,1821,2110
1922,1837,2109
1815,1839,1893
1676,1778,1840
1850,1532,1983
1899,1607,2009
1911,1836,1987
1996,1757,2169
2174,1802,2336
1839,1667,1904
1609,1508,1662
1716,1520,1776
1858,1560,1941
1866,1529,1963
2027,1584,2097
2128,1514,2197
1774,1407,1969
1936,1520,1871
2192,1628,2162
1989,1360,1957
1646,1232,1733
1767,1298,1823
2067,1263,2174
2113,1266,2095
1712,1099,1695
1842,1117,1839
1961,1147,1965
1861,1087,1829
1795,1035,1776
2071,1299,2017
2122,1136,1973
1899,868,1790
1799,811,1781
1983,912,1872
2218,1040,2031
2176,1104,1972
1919,989,1825
1905,1086,1712
1904,551,1649
1906,589,1744
2122,746,1734
2176,970,1813
1875,1080,1986
1749,624,1847
2043,559,1714
1954,739,1808
1827,743,1855
1847,784,1904
1974,821,1854
2032,784,1776
2021,767,1808
1941,781,1927
1890,866,1936
1941,1011,1898
1913,848,1806
1909,709,1741
1923,752,1728
1959,880,1776
1899,853,1819
1935,848,1869
1900,852,1808
1949,960,1808
1975,944,1803
1962,947,1839
1842,978,1843
1969,1137,1854
1968,1036,1877
1987,1002,1842
2405,1242,1658
2128,1219,1767
1755,1145,2115
1699,998,1925
2077,1015,1723
2481,1138,1453
1725,1108,1844
1530,1520,2133
1713,1170,1963
1808,1062,1792
1872,1145,1749
1950,1245,1907
1978,1405,2001
2207,1907,1835
1993,1322,1697
1744,1200,1731
1825,1334,1829
2151,1535,1791
2357,1707,1836
2181,1669,1870
1754,1584,1989
1655,2072,2064
1793,1814,1894
1941,1410,1839
1811,1563,1878
1802,1774,1829
1844,2231,1888
1823,2059,1905
1808,1874,1856
1962,2064,1941
2001,2047,1845
1744,1827,1870
1687,1783,1842
1795,2229,1918
1938,2095,2003
2085,1936,1879
1857,2017,1858
1703,2183,1872
1831,2265,1920
1863,2224,1985
2042,2311,1936
1869,2073,1779
1762,2384,2009
1768,2395,1932
1718,1771,1847
1724,1841,1904
1878,2097,1969
2045,2694,2007
2045,2223,1903
1756,1955,1799
1535,2036,1907
1619,2115,1965
1995,2075,1870
1921,2209,1819
1749,2697,2000
1872,2254,1919
1600,1807,1825
1616,1867,1850
1872,2102,1936
2096,2317,1978
1841,2816,1863
1520,2079,1854
1521,1925,1872
1695,1968,1875
1845,2047,1872
1802,2299,1858
1872,2559,1997
1680,1972,1846
1530,1947,1908
1772,2194,1925
1869,2353,1895
1682,2413,1931
1707,2071,1936
1724,2224,1873
1615,2065,1942
1490,2154,1878
1590,2057,1825
1833,2628,1971
1999,2815,1855
1481,1778,1800
1320,1823,1887
1509,2268,1929
1729,2394,1967
1683,2389,1901
1586,2414,1808
1594,2147,1845
1709,2274,1984
1664,2257,1904
1587,2187,1773
1526,2484,1909
1454,2591,1975
1554,2177,1837
1753,2223,1747
1531,2221,1891
1353,2245,1987
1479,2479,1965
1513,2512,1971
1479,2373,1901
1485,2139,1787
1499,2151,1829
1491,2224,1871
1535,2262,1858
1584,2286,1871
1811,2361,1919
1759,2693,2062
1310,2766,2032
1211,1874,1712
1392,1892,1794
1470,2127,1840
1582,2320,1887
1627,2463,1930
1455,2215,1882
1456,2221,1889
1527,2259,1807
1531,2241,1887
1622,2285,1917
1703,2209,1815
1526,2214,1923
1447,2246,1936
1619,2234,1867
1634,2400,1849
1515,2299,2021
1529,2139,1950
1523,2181,1777
1513,2239,1791
1566,2304,1882
1733,2163,1925
1669,2081,1885
1667,1952,1821
1676,2282,1978
1598,2303,1906
1531,2097,1791
1489,2011,1881
1510,2080,1904
1648,2215,1915
1643,2230,1888
1620,2157,1859
1680,2111,1874
1687,2369,1961
1674,2239,1956
1648,2094,1901
1601,2226,1842
1716,1946,1854
1682,2103,1924
1638,1963,1873
1628,2034,1953
1649,2021,1931
1615,2065,1866
1674,1979,1893
1738,2025,1823
1819,2341,1935
1781,2176,1915
1648,1856,1847
1609,1973,1855
1658,2068,1967
1700,2110,1947
1702,2133,1911
1745,1984,1902
1791,2114,1907
1713,2064,1943
1674,1858,1874
1743,2028,1878
1795,2299,1927
1703,1968,1909
1693,1941,1924
1756,1970,1973
1840,2077,1949
1835,2093,1855
1744,2047,1858
1783,2085,1984
1819,2022,1884
1791,1840,1904
1834,1828,1879
1715,1901,1870
1791,1978,1917
1838,1985,1904
1809,2053,1955
1916,1991,2038
1905,1865,1911
1782,1967,1840
1731,2070,1857
1732,1776,1858
1795,1904,1961
1846,1905,1987
1845,1920,1917
1866,1904,1915
2015,1955,1955
1904,1968,1970
1897,1967,1860
1789,2027,1875
1745,1966,1927
1813,1648,1967
1946,1680,1854
1919,1839,1969
1931,2105,2023
1834,2034,1894
1849,1731,1786
1756,1712,1818
1847,1808,1913
1872,1885,1957
1867,1936,1943
1885,1931,1930
1953,1872,1959
2019,2055,2031
2047,2128,1862
1878,1730,1792
1727,1502,1931
1747,1778,1973
1872,1971,1966
1931,1799,1872
1845,1638,1840
1840,1698,1931
1872,1907,1938
1959,1968,1953
2026,1922,1957
2011,1856,1969
1895,1968,1950
1836,1779,1982
1977,1782,1920
1904,1647,1830
1839,1664,1911
1826,1834,1949
1865,1919,1966
1908,1956,1978
1925,1830,1917
1952,1675,1899
1925,1927,1990
1937,1838,1931
1898,1655,1895
1904,1834,1968
1947,1790,2017
2042,1917,1973
1874,1767,1852
1909,1649,1920
1971,1812,2003
2129,1959,1981
1882,1994,1966
1789,1616,1921
1904,1779,1953
1916,1664,1950
1901,1717,1957
1927,1927,1958
2064,1945,2023
2013,1898,2018
1873,1694,1866
1868,1664,1877
1938,1761,1985
2057,2041,2000
1955,1739,1828
1856,1682,1909
1870,1693,1943
1904,1811,1973
1955,1952,1951
2000,1792,1877
1995,1677,1945
1968,1711,2000
2002,1837,1930
2011,1838,1863
1971,2046,2138
2001,2142,1999
1874,1437,1763
1808,1515,1845
1872,1737,1974
1937,1905,1995
1983,1857,1971
1959,1759,1907
1990,1699,1953
2098,2034,1995
1903,1789,1918
1856,1563,1920
1930,1710,1945
2036,1759,1955
2077,1861,1890
1949,1852,1968
1919,1781,1967
1998,1792,1923
1967,1807,1951
1856,1813,2017
1917,1984,2032
2061,2032,1957
2010,1749,1907
1872,1530,1936
1903,1636,1951
2046,1813,1994
2057,1945,1931
1982,1942,1915
1904,1608,2032
1967,1714,1963
1967,1777,1890
1917,1723,1920
1962,1843,1971
2000,1822,1983
1999,1867,1936
1957,1920,1977
1899,1866,1936
1894,1792,1923
1917,1619,1914
1991,1694,1967
1966,1838,1936
1964,1881,1938
1904,1828,1856
1939,1731,1860
1971,1840,1986
1981,1741,1997
1911,1750,1904
1917,1699,1905
2022,1936,1938
2038,1671,1821
1962,1717,1918
1921,1759,1863
1921,1823,1962
2010,1941,2022
1977,1814,1866
1903,1766,1882
1906,1738,1913
2000,1725,1905
1975,1903,1943
1950,1835,1895
1998,1744,1938
2071,1978,1951
1958,1744,1946
2006,1738,1924
2030,1794,1894
1920,1713,1846
1869,1741,1856
1952,1865,1962
2068,1936,1953
2165,1894,1887
1878,1895,1899
1839,1657,1918
2016,1840,1968
2032,1817,1911
1888,1648,1840
1934,1735,1891
2077,1989,1968
2044,1904,1967
1893,1707,1878
1978,1750,1933
2086,2000,1984
1998,1962,1887
1901,1648,1846
1893,1655,1859
2015,1789,1910
2032,1906,1905
1950,1897,1893
1979,1835,1889
2081,1718,1974
1966,1927,1904
1874,1774,1782
1919,1717,1825
2058,1811,1965
2010,1827,1920
1943,1839,1815
1936,1892,1861
1958,1839,1872
2011,1775,1833
2018,1755,1872
1961,1980,1862
1856,1945,1902
1929,1649,1872
1994,1645,1783
1991,1728,1819
1904,1967,1939
1904,1901,1922
1922,1870,1889
1936,1914,1856
1969,1806,1920
1967,1857,1905
1920,1701,1816
1931,1702,1783
2000,1871,1894
1990,2121,1967
2022,1811,1814
1993,1664,1714
2027,1706,1862
1921,1932,1926
1933,1814,1804
1806,1787,1867
1872,1875,1905
1914,1855,1911
1954,1869,2002
1904,2023,1824
1929,1867,1760
1895,1670,1821
1904,1665,1811
1999,1870,1828
2010,1825,1862
1926,1739,1883
1978,1919,1886
1942,1850,1794
1776,1795,1836
1838,1834,1873
1942,1943,1872
1911,1824,1875
1905,1905,1938
1969,1935,1938
1936,1665,1766
1892,1782,1775
1921,1825,1829
1917,1853,1836
1902,1815,1803
1946,1834,1834
1991,1871,1874
1941,1954,1931
1975,1971,1907
1944,1957,1800
1934,1651,1785
1872,1678,1840
1904,1771,1809
1936,1913,1877
2011,1971,1798
2037,1777,1811
1914,1904,1899
1849,1840,1841
1906,1712,1790
1924,1833,1837
1904,1902,1811
1904,1755,1819
1936,1790,1835
1968,2002,1908
1968,1978,1869
1971,1902,1870
1923,1712,1790
1936,1710,1782
1943,1986,1813
1904,2015,1860
1968,1791,1870
1931,1741,1851
1991,1840,1808
1923,2046,1811
1851,1838,1890
1914,1654,1840
1872,1764,1814
1997,1845,1815
1919,1851,1840
1911,2093,1845
2025,2032,1789
1981,1695,1776
1791,1674,1835
1775,1859,1857
1849,1904,1831
1903,1815,1806
1939,1873,1858
1933,1878,1853
1896,1841,1817
1904,1845,1795
1949,2160,1871
1917,1885,1826
1885,1622,1782
1981,1703,1809
1989,1840,1792
1967,1890,1786
1848,1927,1840
1803,1856,1878
1917,1856,1831
1948,1879,1819
1847,1839,1773
1837,1803,1745
1863,1807,1798
1915,1904,1789
1936,1925,1835
1929,1808,1840
1927,1862,1852
1908,1954,1887
1919,1866,1738
1887,1930,1831
1975,1765,1791
1921,1822,1821
1904,1829,1744
1855,1853,1872
1890,1853,1861
1968,1899,1814
2001,1807,1759
1875,1857,1822
1893,1783,1817
1904,1835,1847
1937,2162,1857
1840,1766,1805
1858,1743,1797
1897,1838,1798
1968,1915,1808
1950,1809,1805
1894,1855,1859
1872,1845,1797
1963,1897,1850
1920,1915,1867
1907,1935,1842
1914,1885,1776
1910,1869,1693
1878,1808,1776
1913,1793,1868
1933,1907,1843
1963,1883,1882
1905,1739,1787
1904,1868,1815
1918,1904,1804
2001,1990,1808
1975,2000,1952
1840,1691,1808
1942,1807,1789
1985,1856,1759
1829,1811,1835
1799,1815,1846
1942,1942,1856
1868,1799,1709
1809,1898,1785
1904,2116,1872
1923,1766,1815
1915,1747,1825
1920,1757,1766
1947,1858,1843
2032,1968,1856
1926,1888,1867
1807,1775,1754
1842,1955,1807
1919,1906,1837
1831,1775,1815
1887,1759,1791
1890,1936,1919
1895,1857,1794
1841,1745,1738
1872,1789,1779
1958,1890,1847
1906,1921,1840
1863,1954,1877
2000,1963,1808
1927,1856,1835
1845,1936,1854
1829,1895,1791
1838,1729,1771
1990,1807,1806
1952,1919,1771
1776,1969,1706
1799,1712,1744
1893,1757,1846
1937,1872,1840
1905,1904,1831
1858,2064,1937
1878,1985,1791
1889,1787,1798
1870,1742,1735
1899,1890,1714
1873,1781,1762
1888,1822,1862
1856,1819,1882
1893,1844,1808
1920,1915,1809
1909,1855,1783
1899,1872,1715
1866,1930,1815
1855,1953,1872
1858,1887,1845
1860,1823,1791
1876,1933,1840
1957,1981,1840
1926,1955,1811
1872,1778,1730
1856,1712,1729
1846,1751,1805
1858,1890,1882
1852,1910,1847
1882,2003,1870
2063,1946,1894
1970,1901,1844
1840,1690,1842
1750,1755,1701
1875,1911,1765
1914,1872,1805
1902,1810,1776
1890,1869,1781
1874,1918,1893
1837,1915,1803
1861,1911,1793
1989,2037,1809
1942,1930,1871
1954,1747,1831
1823,1776,1913
1824,1936,1801
1980,1968,1754
1942,1789,1760
1725,1739,1776
1808,1840,1815
1995,1936,1871
1872,1936,1808
1783,1810,1723
1877,1829,1750
2042,1989,1854
1830,1908,1791
1762,1760,1815
1862,1794,1790
2009,2012,1881
2032,2000,1840
1803,1870,1695
1775,1717,1847
1806,1740,1856
1893,2064,1818
1971,1903,1707
1904,1845,1850
1862,1779,1808
1935,1741,1822
1842,1779,1842
1755,1852,1754
1998,1980,1808
1905,1915,1822
1799,2011,1787
1763,1825,1824
1847,1777,1815
1873,1843,1823
1866,1903,1795
1910,1828,1771
1838,1846,1794
1840,2019,1857
1874,1825,1851
1862,1830,1794
1858,1831,1810
1845,1870,1783
1926,1721,1766
1854,1741,1711
1757,1770,1808
1838,1936,1870
1818,1943,1804
1872,1799,1818
1974,1894,1859
1885,1775,1783
1809,1784,1786
1888,1776,1825
1839,1936,1855
1793,1843,1787
1882,1781,1735
1866,1875,1814
1939,1950,1859
1892,2000,1872
1837,1840,1747
1858,1712,1745
1851,1862,1840
1872,1925,1837
1892,1726,1776
1850,1706,1795
1890,1942,1885
1856,2019,1842
1821,1751,1751
1781,1746,1754
1840,1829,1847
1957,1856,1868
1999,1855,1778
1853,2055,1878
1901,2064,1872
1795,1786,1813
1824,1689,1790
1941,1755,1776
1808,1903,1867
1774,1995,1893
1763,1830,1823
1858,1821,1798
1916,1971,1808
1906,1889,1791
1921,1855,1813
1786,1840,1882
1886,1818,1901
1875,1959,1831
1811,1869,1767
1861,1819,1794
1894,1874,1838
2017,1930,1819
1974,1974,1847
1808,1867,1872
1781,1847,1829
1808,1863,1839
1878,1737,1799
1904,1795,1765
1883,2034,1889
1901,2192,1855
1829,1658,1796
1823,1606,1744
1983,1858,1854
1934,1903,1890
1771,1846,1826
1850,1884,1850
2030,1911,1813
1872,1856,1808
1723,1968,1840
1785,1938,1837
1872,2064,1886
1895,1953,1847
1859,1727,1814
1875,1793,1825
1846,1799,1808
1826,1851,1858
1837,1904,1850
1966,1953,1879
1885,1990,1955
1888,1808,1819
1879,1777,1747
1827,1853,1777
1813,1934,1863
1894,2033,1904
1872,2005,1873
1962,2071,1901
1953,1832,1822
1894,1676,1746
1873,1741,1817
1831,1830,1819
1855,1890,1844
1879,1968,1872
2043,2109,1843
1904,1847,1843
1818,1838,1840
1888,1830,1851
1814,1743,1847
1806,1808,1834
1881,1934,1869
1920,2006,1904
1819,1953,1853
1878,2018,1841
1878,1785,1834
1859,1775,1867
1817,1790,1804
1853,1891,1805
1954,1927,1849
1951,2015,1904
1849,2242,1942
1938,2071,1903
1908,1602,1808
1793,1646,1791
1792,1834,1787
1958,1942,1838
2023,1925,1878
1936,1988,1881
1823,1795,1851
1803,1941,1889
1920,2027,1783
1991,1776,1808
1861,1783,1856
1840,1859,1856
1872,1955,1872
1907,1974,1865
1936,1911,1853
1882,1979,1920
1891,1878,1879
1899,1942,1875
1889,1920,1791
1946,1886,1869
1977,1904,1875
1929,1790,1781
1857,1827,1774
1771,1904,1838
1877,1945,1904
1859,1875,1873
1936,1872,1853
2005,1909,1834
1856,1889,1847
1856,1883,1873
1855,1869,1877
1919,1894,1893
1942,1981,1866
2094,1927,1827
1840,1887,1757
1815,1913,1872
1959,2036,1997
1914,1890,1846
1904,1776,1763
1837,1863,1803
