1938,2080,1914
1984,1750,1825
1904,1655,1789
1809,1786,1851
1927,1957,1840
1935,1990,1803
1865,1779,1792
1822,1849,1834
1804,1852,1938
1904,1979,1866
1969,1953,1859
1808,1775,1795
1806,1750,1840
1911,1953,1892
1945,1989,1849
1840,1925,1808
1841,1808,1781
1875,1923,1897
1897,1936,1860
1856,1718,1777
1856,1776,1791
1936,1916,1850
1968,2017,1806
1818,1795,1763
1915,1787,1864
1919,1979,1901
1885,2047,2015
1779,1707,1840
1777,1690,1683
1895,1883,1754
1979,1954,1858
1830,1867,1777
1800,1811,1818
1870,1859,1904
1885,1926,1905
1863,2146,1815
1852,1899,1795
1872,1738,1831
1941,1849,1886
1952,1799,1744
1872,1744,1761
1787,1822,1829
1851,1846,1875
1862,1935,1841
1891,1923,1854
1936,2003,1859
1865,1781,1867
1781,1762,1838
1794,1971,1830
1859,1806,1797
1889,1839,1791
1883,1871,1867
1904,1875,1900
1888,1821,1862
1881,1833,1801
1839,1875,1830
1872,2028,1873
1936,1838,1885
1931,1852,1822
1852,1839,1830
1813,1965,1853
1920,1989,1840
1904,1897,1859
1840,1859,1823
1840,1727,1803
1943,1833,1893
1873,1797,1850
1825,1767,1811
1873,1852,1772
1901,1958,1845
1868,1922,1920
1904,1818,1838
1949,1914,1814
1995,2039,1936
1935,2045,1878
1759,1791,1813
1728,1663,1764
1841,1739,1801
1890,1827,1796
1857,1856,1797
1857,1903,1867
1919,1939,1902
1943,2164,1862
1877,1783,1746
1838,1671,1739
1904,1693,1820
1855,1824,1849
1874,1875,1813
1885,1946,1846
1915,2066,1885
2047,2001,1890
2000,1869,1961
1727,1670,1789
1701,1742,1725
1815,1783,1779
1841,1821,1809
1869,1841,1836
1931,1936,1909
1898,1974,1894
1867,1942,1792
1888,2170,1853
1904,1867,1903
1850,1637,1819
1807,1729,1743
1883,1857,1809
1964,1904,1864
1939,1980,1861
1976,1947,1852
1964,1957,1856
1838,1731,1813
1802,1663,1837
1797,1819,1836
1993,2005,1853
1847,1870,1910
1757,1872,1885
1872,2023,1811
1886,1766,1814
2087,1846,1828
1853,1928,1921
1792,1850,1850
1879,1808,1850
1894,1742,1856
1970,1911,1873
1856,1890,1936
1809,1788,1759
1904,1943,1785
1943,1869,1841
1856,1875,1902
1807,1825,1840
1841,1843,1862
1889,1912,1923
1965,1936,1801
1823,1886,1794
1816,1936,1889
1826,1953,1872
1953,1907,1804
1908,1731,1805
1902,1885,1921
1899,1850,1877
1824,1749,1827
1870,1972,1872
1920,1893,1808
1823,1840,1837
1872,1871,1851
1862,1893,1918
1886,1809,1850
1856,1763,1779
1840,1772,1799
1914,1967,1887
1925,2016,1917
1857,1803,1807
1836,1845,1809
1942,1821,1855
1987,1966,1927
2029,2029,1879
1820,1802,1792
1840,1781,1845
1917,1854,1879
1825,1968,1873
1762,1755,1808
1850,1745,1809
1955,1903,1861
1882,2128,1913
1829,1919,1827
1834,1712,1793
1890,1842,1878
1920,1933,1895
1936,1902,1840
1882,1782,1806
1872,1945,1891
1947,1920,1884
1941,1804,1930
1866,1769,1875
1894,1845,1825
1868,2006,1823
1953,2042,1797
1846,1808,1903
1835,1801,1895
1899,1878,1824
1951,1840,1799
1919,1935,1847
1943,1872,1926
1840,1785,1896
1859,1739,1847
1837,2033,1848
1904,1931,1857
1884,1790,1838
1915,1774,1835
1871,1887,1878
1938,1971,1866
1899,1907,1803
1770,1773,1794
1778,1856,1895
1925,1968,1975
1953,1930,1879
2002,1936,1846
1890,1853,1808
1843,1920,1863
1866,1851,1885
1882,1772,1799
1840,1873,1845
1904,1843,1865
1873,1871,1919
1970,2162,1913
1921,1906,1809
1817,1632,1776
1821,1728,1850
1856,1919,1853
1891,1883,1854
1904,1854,1870
1895,1922,1872
1904,1936,1880
1920,1872,1833
2056,1827,1902
1936,1973,1845
1813,1941,1797
1872,1680,1777
1860,1903,1888
1885,1968,1899
1845,1755,1838
1776,1803,1842
1821,1923,1879
1882,1965,1898
1923,1856,1808
1947,1934,1799
1834,1935,1982
1893,1781,1832
1950,1838,1798
1883,1807,1822
1905,1840,1882
1919,2018,1831
1883,1849,1762
1902,1808,1856
1946,1894,1895
1869,2032,1901
1838,2001,1873
1993,1827,1842
1863,1761,1871
1842,1837,1827
1872,1827,1789
1885,1803,1823
1953,1886,1907
1876,2045,1973
1799,1915,1840
1877,1825,1775
1918,1840,1854
1907,1842,1856
1979,1863,1815
1899,1815,1860
1826,1904,1897
1863,1914,1856
1885,1862,1808
1889,1771,1821
1862,1824,1882
1845,1865,1878
1879,1928,1857
1895,1930,1863
1901,1921,1918
1908,1861,1857
1876,1974,1808
1857,1926,1871
1921,1831,1830
1947,1830,1821
1867,1881,1837
1929,1904,1872
1938,1918,1891
1892,1989,1859
1846,1917,1804
1852,1835,1823
1892,1803,1857
1913,1887,1877
1891,1875,1823
1893,1891,1842
1899,1837,1893
1909,2014,1930
1904,1968,1840
1915,1717,1797
1883,1745,1814
1909,1853,1863
1872,1863,1797
1865,1862,1811
1926,1871,1856
1947,1861,1854
1871,1825,1840
1984,1872,1853
1904,2058,1936
1829,1817,1888
1827,1753,1898
1905,1971,1918
1929,1905,1840
1872,1722,1860
1852,1754,1789
1882,1765,1804
1921,1859,1879
1922,2025,1925
1893,1856,1855
1877,1725,1823
1903,1838,1853
1910,1782,1882
1925,1918,1901
1953,1759,1841
2010,1694,1763
1899,1751,1852
1850,1826,1853
1849,1872,1895
1968,1867,1951
1892,1895,1866
1867,1881,1813
1898,1797,1830
1933,1846,1843
1897,1935,1921
1862,1746,1899
1879,1693,1854
1917,1741,1842
1899,1814,1811
1900,1981,1835
1927,1985,1881
1936,1747,1884
2006,1781,1866
1962,1863,1847
1867,1687,1874
1846,1713,1842
1881,1821,1872
1968,1909,1910
1942,1767,1813
1968,1852,1895
1915,1982,1862
1826,1763,1834
1846,1713,1866
1922,1910,1871
2000,1920,1871
1918,1744,1817
1846,1811,1863
1864,1967,1956
1897,1749,1892
1892,1619,1776
1915,1936,1809
1967,1995,1972
1858,1712,1807
1810,1584,1733
1919,1760,1818
1949,1822,1863
1883,1815,1895
2014,1879,1904
1958,2079,1874
1799,1808,1807
1781,1652,1851
1834,1713,1861
1872,1914,1951
1902,2053,1959
1849,1805,1765
1842,1751,1735
1917,1813,1830
1938,1802,1885
1893,1838,1871
1879,2075,1840
1845,1792,1806
1881,1699,1817
1899,1779,1882
1872,1833,1869
1936,2064,1883
1968,1808,1808
1791,1648,1789
1758,1727,1775
1854,1840,1877
1980,2224,1942
1949,1858,1835
1818,1558,1744
1842,1680,1807
1872,1894,1872
1940,2086,1920
1952,1859,1804
1850,1712,1776
1857,1801,1850
1840,1875,1882
1905,1887,1870
1914,1872,1918
1855,1887,1815
1833,1991,1827
1847,1914,1824
1899,1854,1865
2002,1879,1871
1929,1938,1869
1829,1840,1807
1846,1658,1779
1850,1730,1834
1840,1813,1856
1853,1849,1857
1984,2159,1919
1941,2013,1875
1961,1728,1791
1873,2013,1823
1722,1741,1803
1819,1704,1825
1890,1775,1840
1904,1822,1797
1858,1894,1872
1869,1969,1904
1901,2201,1936
1861,1802,1823
1872,1796,1824
1975,1837,1871
1939,1905,1846
1839,1866,1707
1782,1810,1751
1823,1810,1905
1917,1982,1867
1904,1866,1790
1847,1785,1828
1851,1841,1868
1813,1936,1867
1885,1890,1855
2017,1882,1886
1854,1904,1943
1781,1891,1872
1809,1904,1856
1856,1874,1826
1882,1876,1807
1859,1823,1808
1858,1968,1853
1879,2000,1862
1876,1935,1861
1853,1792,1840
1840,1802,1797
1888,1838,1857
1947,1975,1893
1879,1877,1903
1856,1798,1926
1904,1968,1809
1989,2017,1803
1943,1882,1810
1910,1798,1823
1744,1935,1907
1791,1895,1886
1833,1843,1842
1855,1819,1856
1887,2097,1903
1855,1867,1831
1831,1727,1781
1874,1954,1852
1907,2061,1877
1875,1823,1885
1861,1766,1814
1862,1838,1776
1905,2123,1871
1902,1895,1868
1870,1783,1883
1857,1943,1861
1875,1997,1809
1942,1947,1919
1895,1697,1803
1831,1743,1744
1892,1809,1854
1899,1911,1926
2026,1940,1830
1858,2087,1922
1763,1920,1866
1827,1997,1840
1857,1840,1814
1874,1801,1823
1916,1905,1982
1904,1904,1905
1913,1925,1837
1891,1939,1810
1877,1876,1798
1872,1831,1859
1872,1855,1853
1904,1934,1856
1901,1996,1883
1898,2137,1865
1863,1911,1840
1850,1785,1840
1891,1760,1878
1915,1889,1920
1862,1897,1807
1886,1882,1806
1968,2015,1941
1950,2059,1959
1850,1936,1842
1874,1864,1828
1879,1853,1910
1905,2014,1893
1898,1997,1786
1803,1728,1721
1839,1824,1776
1887,1841,1875
1882,1991,1897
1922,2053,1968
1983,1949,1871
1885,1755,1774
1856,1877,1838
1879,2076,1883
1936,1969,1841
2059,1891,1888
1863,1829,1922
1820,1888,1846
1854,1903,1842
1905,1910,1871
1921,1942,1878
1921,1910,1854
1917,1952,1873
1945,1998,1931
1935,2017,1904
1909,2064,1881
1926,1995,1904
1915,1808,1840
1904,1869,1839
1911,1899,1839
1931,1916,1830
1913,1856,1856
1910,1856,1869
1993,2064,1909
2032,2089,1901
1940,1853,1844
1819,1722,1839
1837,1798,1808
1995,1904,1846
2055,2151,2041
1904,1883,1837
1823,1778,1687
1839,1869,1776
1915,1901,1889
1926,1943,1865
1939,1947,1851
1966,2108,1883
1936,2075,1904
1926,1806,1858
1919,1780,1808
1946,1872,1840
1968,1792,1853
1924,1875,1821
1938,1826,1795
2019,1999,1874
2047,2123,1918
1853,1846,1828
1819,1773,1826
1883,1779,1834
1943,1919,1866
1939,1919,1851
1919,1904,1827
1952,1918,1859
1984,1911,1903
1971,1937,1891
1940,1913,1861
1927,1970,1851
1937,1907,1863
1923,1859,1841
1930,1862,1837
1952,1913,1869
1985,1936,1916
1970,1976,1911
1931,1906,1826
1946,1904,1837
1975,1913,1886
1968,1917,1863
1951,1852,1841
1984,1875,1911
2009,1941,1895
1994,1914,1842
1984,1927,1823
2000,1985,1866
2031,1922,1895
2000,1907,1879
2007,1904,1862
2037,1879,1883
2064,1920,1895
2046,1882,1873
2046,1899,1853
2094,1882,1878
2139,1906,1922
2126,1791,1903
2139,1812,1860
2197,1851,1885
2228,1849,1906
2224,1837,1891
2231,1808,1863
2289,1814,1903
2332,1833,1928
2319,1793,1893
2317,1755,1856
2357,1767,1887
2422,1777,1929
2423,1748,1905
2432,1707,1871
2483,1709,1877
2532,1725,1905
2548,1693,1877
2587,1660,1863
2673,1665,1895
2732,1668,1904
2740,1631,1861
2753,1590,1808
2810,1599,1847
2886,1643,1919
2883,1631,1888
2865,1584,1842
2911,1581,1862
2949,1595,1879
2927,1585,1840
2913,1583,1827
2954,1600,1873
2976,1626,1887
2928,1591,1856
2893,1581,1831
2910,1621,1855
2940,1655,1895
2913,1630,1868
2882,1593,1838
2891,1638,1856
2902,1691,1886
2879,1675,1872
2835,1642,1840
2864,1665,1861
2875,1713,1879
2831,1695,1856
2797,1685,1845
2812,1720,1868
2816,1755,1895
2778,1749,1861
2750,1733,1850
2762,1792,1878
2771,1845,1886
2736,1849,1869
2693,1840,1858
2704,1877,1890
2719,1921,1927
2669,1909,1903
2613,1898,1863
2608,1930,1887
2608,1966,1925
2559,1981,1895
2533,1980,1884
2544,2013,1926
2548,2054,1936
2496,2027,1902
2455,2007,1877
2479,2045,1909
2481,2074,1934
2449,2053,1915
2422,2032,1907
2432,2064,1936
2442,2094,1943
2395,2083,1907
2368,2064,1904
2380,2096,1926
2391,2125,1941
2358,2103,1908
2320,2108,1893
2352,2179,1943
2367,2217,1962
2307,2042,1904
2273,1987,1881
2295,2055,1920
2328,2115,1973
2303,2103,1942
2263,2115,1909
2271,2187,1938
2267,2158,1948
2243,2063,1931
2223,2034,1906
2246,2185,1937
2243,2058,1939
2207,1886,1906
2167,1883,1893
2197,1981,1936
2222,2046,1959
2208,2169,1946
2174,2032,1905
2172,2059,1915
2181,1955,1905
2126,1827,1933
2112,1904,1919
2158,2034,1938
2153,1901,1961
2111,1790,1927
2085,1878,1902
2112,2137,1952
2112,1884,1936
2109,1807,1914
2077,1751,1882
2089,1825,1917
2087,1931,1985
2064,1936,1913
2019,1882,1872
2018,1853,1995
2031,1681,2094
2009,1748,1967
2001,1821,1813
2037,1696,1863
2029,1741,1936
1936,1744,1878
1954,1819,1864
2064,1840,1975
2018,1603,1977
1984,1611,1906
2065,1630,2024
1974,1732,1967
2063,1968,1991
1986,1729,1966
1731,1671,1680
1920,1765,1857
2097,1824,2087
1814,1627,1805
1716,1614,1669
1818,1744,1790
1998,1661,1984
1879,1685,1903
1752,1745,1735
1797,1692,1831
1871,1873,1881
1959,1839,1851
1965,1898,1806
1701,1649,1831
1670,1520,1893
1743,1578,1877
1760,1669,1788
1887,1690,1889
1946,1881,2032
1855,1759,1929
1679,1589,1730
1635,1593,1663
1718,1738,1776
1770,1836,1806
1840,1500,1879
2187,1655,2207
2266,1799,2293
1519,1425,1602
1237,1325,1327
1530,1458,1673
1693,1516,1754
1673,1472,1808
1739,1407,1836
1897,1575,2011
1923,1677,1984
1586,1423,1710
1535,1422,1584
1613,1582,1722
1584,1349,1744
1577,1269,1697
1629,1344,1710
1731,1448,1776
1668,1463,1790
1558,1471,1782
1584,1535,1767
1638,1486,1802
1649,1444,1773
1661,1413,1758
1749,1441,1751
1717,1506,1840
1593,1522,1786
1559,1535,1725
1554,1590,1747
1619,1811,1811
1641,1694,1791
1569,1375,1700
1535,1218,1675
1699,1495,1774
1907,1936,1730
1778,1388,1535
1535,1305,1595
1459,1443,1695
1440,1584,1774
1519,2112,1955
1532,1856,1753
1519,1153,1578
1501,947,1622
1529,1206,1754
1590,1930,1872
1569,1771,1936
1502,1360,1589
1490,1044,1392
1630,1261,1532
1830,1936,1671
1837,2192,1772
1633,1153,1615
1175,720,1535
1262,1078,1776
1442,1415,1763
1517,1449,1747
1501,1372,1795
1535,1426,1790
1556,1456,1686
1527,1423,1612
1518,1375,1589
1570,1488,1718
1584,1578,1824
1565,1529,1680
1627,1655,1649
1643,1490,1663
1580,1473,1681
1393,1472,1753
1423,1491,1737
1712,1567,1726
1665,1730,1766
1648,1872,1823
1872,1764,1675
1346,1430,1766
1360,1506,1913
1511,1438,1823
1489,1711,1748
1587,1806,1662
1753,1767,1795
1469,1800,1809
1343,1770,1745
1393,1499,1720
1558,1648,1813
1520,1792,1835
1475,1657,1710
1454,1685,1766
1510,1837,1847
1531,2176,1913
1554,1904,1757
1387,1488,1773
1424,1650,1732
1369,1904,1808
1367,1769,1853
1472,1806,1812
1535,1885,1823
1577,2069,1795
1535,1753,1721
1403,1815,1846
1305,1804,1895
1215,1682,1808
1246,1840,1840
1363,2083,1882
1399,2055,1904
1343,1872,1878
1280,1654,1727
1328,1772,1808
1430,2000,1888
1463,2069,1791
1229,1827,1745
1237,2018,1823
1343,1967,1871
1392,1873,1814
1280,1872,1742
1372,2094,1834
1378,2148,1885
1223,1943,1817
1235,1819,1862
1435,2063,1851
1409,2299,1870
1159,2093,1927
1183,2108,1843
1250,1887,1856
1285,1987,1828
1269,2133,1860
1349,2148,1810
1482,2112,1767
1349,2135,1866
1184,2307,1916
1104,1943,1794
1281,2029,1830
1310,2076,1930
1253,2086,1860
1264,2038,1833
1290,2112,1861
1336,2187,1885
1317,2233,1871
1254,2176,1847
1308,2157,1833
1179,2030,1857
1118,1935,1853
1221,2023,1793
1557,2176,1858
1279,2176,1920
1072,1975,1870
1095,1950,1811
1235,2171,1902
1488,2666,1984
1455,1936,1815
1114,1666,1713
1050,1889,1808
1230,2047,1862
1335,2077,1917
1268,2031,1860
1305,2181,1867
1471,2246,1907
1328,2348,1887
1155,1861,1786
1209,1774,1786
1201,1966,1890
1201,2028,1868
1182,2041,1830
1175,2064,1899
1182,2062,1904
1168,2041,1873
1210,2047,1869
1367,2525,1889
1235,2044,1826
1121,1716,1776
1145,1849,1857
1244,1836,1881
1299,1968,1909
1313,2277,1889
1342,1946,1685
1223,1857,1838
1086,1947,1931
1269,2272,2038
1253,2027,1863
1163,1791,1795
1159,1920,1898
1307,2007,1907
1301,2047,1853
1218,2099,1879
1226,2037,1871
1273,1987,1861
1235,2112,1904
1338,1934,1872
1367,2026,1867
1403,1991,1829
1319,1872,1815
1175,2005,1931
1267,2159,1914
1411,1922,1818
1429,1807,1841
1261,1887,1967
1456,2033,1943
1364,1965,1845
1195,1937,1851
1331,2009,1972
1426,2001,1961
1394,2029,1917
1312,1976,1820
1280,2034,1842
1365,2095,1923
1391,2128,1899
1375,1931,1907
1394,1808,1879
1392,1895,1860
1390,1943,1840
1451,2023,1889
1487,2192,1947
1511,1942,1855
1441,1840,1855
1535,1904,1923
1650,2014,1972
1456,2021,1933
1391,1891,1903
1463,1905,1883
1421,1936,1904
1456,2126,1894
1535,2057,1890
1481,2089,1909
1466,1823,1927
1486,1787,1919
1488,1913,1873
1520,1963,1846
1508,2061,1930
1618,2069,2021
1630,2032,1913
1696,2261,1887
1584,1945,1850
1514,1711,1856
1609,1834,1870
1590,1942,1858
1456,1858,1911
1601,1982,1969
1719,1942,1923
1581,1966,1882
1675,2481,1991
1615,2096,1949
1511,1669,1838
1528,1609,1799
1605,1800,1891
1761,2000,1920
1655,2021,1931
1778,2115,2010
1682,2131,1847
1582,1962,1841
1598,1919,1872
1603,1835,1889
1649,1822,1915
1695,1957,1883
1694,2032,1888
1627,1976,1904
1652,1824,1882
1691,1919,1930
1700,2060,1887
1755,1986,1847
1776,2000,1890
1757,1930,1963
1711,1935,1886
1639,1857,1878
1601,1857,1895
1722,1905,1898
1808,2024,1908
1743,1859,1835
1617,1915,1917
1725,2080,1940
1718,1979,1898
1781,1778,1870
1904,1835,1856
1887,2132,1907
1799,1995,1991
1705,1772,1894
1683,1839,1872
1815,1991,1927
1797,2163,1859
1713,1825,1787
1793,1759,1859
1872,1863,1949
1855,1975,1947
1791,1974,1872
1808,1885,1872
1790,1917,1903
1824,2001,1886
1789,1879,1849
1801,1913,1877
1955,2032,1909
1967,1829,1859
1883,1868,1835
1783,1812,1873
1863,1933,1898
1892,1890,1921
1727,1819,1859
1759,1894,1863
1878,2055,1911
1891,2122,1911
1873,1831,1860
1844,1958,1922
1898,2016,1942
1873,1749,1835
1821,1840,1815
1840,1884,1864
1888,1941,1904
1919,1929,1937
1859,1927,1920
2004,1904,1863
1910,1871,1856
1870,1881,1853
1888,1850,1801
1950,2112,1947
1971,1901,1856
1866,1826,1841
1895,1887,1851
1890,1906,1882
1904,1884,1927
2000,2096,1924
1920,1861,1808
1921,1769,1853
1929,1908,1882
1904,1882,1855
1955,1911,1805
1962,1936,1869
2031,1938,1965
1904,1826,1893
1815,1853,1793
1968,1999,1889
2007,2046,1905
2004,1838,1817
2043,1884,1787
1925,1873,1929
2007,2101,2007
1878,1872,1863
2013,1666,1802
1935,1799,1840
1901,1888,1904
1968,1939,1888
2015,2221,1904
2013,1914,1898
2007,1747,1802
2035,1772,1751
1965,1857,1939
1976,1915,1946
1967,1962,1860
1899,1940,1808
1915,1867,1840
1949,1909,1891
2011,1974,1904
2022,1972,1895
2000,1760,1815
1959,1840,1872
1967,2007,1918
1963,1874,1809
1952,1750,1775
1995,1883,1841
2032,2075,1927
2032,1821,1855
2019,1667,1837
1968,1813,1850
1996,1903,1907
1959,1855,1815
1984,1878,1792
1970,1973,1913
1987,1923,1904
2000,1882,1828
1943,1870,1808
1936,1787,1870
1983,1879,1961
2019,1991,1883
2018,1846,1787
1991,1984,1845
2071,1987,1858
2099,1943,1825
1990,1810,1834
1938,1667,1849
1925,1737,1855
1941,1813,1849
2022,1872,1866
2093,2013,1906
2078,2013,1820
2030,1951,1806
1954,1795,1843
1917,1648,1846
2002,1756,1888
2023,1776,1841
2011,1962,1805
2023,2131,1875
2027,1936,1867
1978,1773,1889
2000,1789,1875
2001,1878,1867
1977,1930,1853
1997,1835,1802
2031,1808,1830
2022,1840,1891
2013,2022,2011
2003,1984,1842
2014,1795,1743
2046,1873,1853
2000,1749,1871
1988,1737,1739
2026,1792,1787
2038,1877,1855
1977,1931,1899
1975,1915,1886
2125,2032,1936
2021,2059,1892
1985,1957,1907
1970,1669,1829
1926,1648,1792
1975,1840,1835
2044,1936,1823
2027,2000,1920
2039,2070,1856
2065,1809,1815
2032,1659,1778
1983,1806,1794
1970,1809,1827
2021,1901,1866
2016,1957,1857
2085,1871,1909
2060,1856,1862
1988,1871,1874
1965,1966,1885
1962,1898,1882
1995,1822,1850
2044,1881,1839
2046,1943,1836
2016,1839,1799
2035,1967,1838
2021,1945,1837
1991,1968,1867
1975,1812,1840
2035,1728,1841
2054,1857,1838
2032,1886,1857
1967,1827,1867
1983,1831,1930
2059,1856,1849
2001,2000,1840
1987,1975,1831
1973,1858,1827
2111,1932,1916
2059,1856,1854
1934,1829,1821
1947,1817,1805
2030,1847,1831
2033,1882,1872
2029,1916,1859
2047,1919,1855
2064,1941,1858
2131,1834,1856
1969,1776,1883
1882,1766,1855
1920,1872,1850
2015,1962,1909
2026,2234,1901
2039,2005,1810
2058,1756,1869
2062,1755,1808
1968,1743,1840
1916,1739,1823
1931,1830,1879
2006,2086,1920
2047,1960,1909
2026,1745,1811
2002,1747,1776
1995,1849,1846
1939,1887,1841
2071,1891,1840
2014,1887,1855
1975,1925,1920
1934,1949,1859
1936,1791,1819
1975,1825,1905
2009,1979,1918
2005,2059,1818
2009,1866,1807
1968,1773,1901
1966,1805,1810
1971,1875,1833
2002,1793,1790
2062,1854,1847
2097,1984,1851
1915,1840,1805
1930,1757,1842
1965,1846,1902
1978,2029,1913
1949,1838,1834
1939,1737,1825
1977,1783,1881
2007,1891,1859
1986,1925,1811
1984,1947,1765
2000,1965,1823
1984,1893,1886
1940,1755,1877
1966,1842,1853
2021,1826,1831
2064,1842,1822
2003,1890,1826
1967,2071,1873
2097,1776,1866
1942,1730,1910
1827,1728,1778
1887,1866,1776
2027,1890,1890
2058,1808,1875
1965,1862,1841
1971,1942,1838
1961,1911,1901
1927,1941,1883
1936,1840,1866
1936,1904,1836
1971,1840,1850
1968,1890,1835
2037,1926,1878
2002,1919,1825
1941,1978,1817
1968,1970,1891
1925,1733,1847
1880,1728,1779
1919,1871,1819
1968,1931,1874
1982,1936,1841
2046,1938,1906
2064,1840,1913
1930,1847,1813
1901,1903,1789
1919,1950,1808
1977,1791,1904
2017,1866,1868
2035,1883,1819
1914,1873,1790
1873,1990,1862
1997,1979,1935
1989,2021,1821
1965,1701,1787
1929,1691,1831
1911,1870,1867
1908,1915,1911
1923,1833,1830
1999,1927,1795
2062,1963,1898
1973,2011,1857
1858,1787,1771
1893,1823,1835
1946,1866,1867
1974,2032,1872
2061,2112,1867
2007,1819,1843
1962,1780,1873
1893,1932,1840
1959,2034,1873
1927,1760,1818
1892,1775,1854
1867,1775,1841
1933,1858,1819
1957,1945,1877
1977,2001,1867
1979,1806,1774
1923,1841,1838
1895,1910,1904
1968,1975,1840
1911,1854,1798
1906,1839,1863
1978,1872,1904
1955,1939,1904
1966,2047,1825
1904,1793,1819
1885,1757,1910
1885,1840,1877
1915,1923,1851
1957,1872,1778
1967,1961,1867
1939,1895,1879
1923,1905,1835
2023,2135,1814
1958,1847,1851
1895,1723,1931
1937,1835,1863
1907,1808,1763
2034,1876,1857
1993,1872,1907
1861,1998,1872
1806,1807,1776
1886,1808,1827
1968,1906,1914
1904,1953,1863
1907,1824,1856
1923,1808,1840
1941,1885,1903
1905,1901,1855
1951,1941,1888
1937,1933,1891
1909,1883,1872
1916,1856,1781
1901,1773,1773
1919,2037,1887
1966,2028,1930
1935,2125,1923
1924,1720,1843
1947,1677,1779
1897,1879,1846
1892,1936,1847
1916,1872,1858
1922,1882,1856
1925,1968,1868
1966,1807,1859
1955,2000,1911
1910,1933,1877
1957,1824,1871
1984,1791,1858
1887,1818,1807
1885,1947,1855
1915,1881,1889
1892,1851,1831
1893,1891,1855
1914,2034,1893
1917,1901,1899
1905,1872,1840
1975,1917,1815
1933,1851,1843
1889,1857,1883
1876,1886,1841
1904,1906,1842
1939,1851,1867
2070,1902,1873
1971,1920,1801
1783,1712,1871
1927,1778,1920
1902,1877,1838
1855,1824,1794
1917,1857,1867
1915,1927,1907
1917,1913,1921
1881,1830,1808
1915,1904,1810
1942,1911,1853
1939,1965,1884
1891,1950,1840
1842,1968,1825
1875,1874,1841
1936,1926,1961
1920,1729,1934
1927,1865,1826
1973,1920,1795
1888,1906,1853
1814,1791,1845
1837,1841,1808
1920,1907,1839
1986,1935,1879
1981,1987,1844
1903,1776,1826
1809,1760,1867
1850,1840,1850
1921,1904,1872
1917,1965,1875
1920,1991,1904
1939,1761,1882
1969,1827,1866
1874,1872,1810
1823,1934,1773
1857,1959,1840
1878,1883,1874
1879,1820,1840
1911,1903,1902
1931,2111,1936
1904,1913,1805
1954,1695,1789
1872,1779,1852
1856,1883,1886
1911,1930,1849
1979,1922,1819
1929,1823,1862
1871,1920,1954
1903,1870,1872
1887,1820,1797
1872,1894,1827
1872,1991,1870
1869,1879,1854
1898,1798,1849
1920,1872,1903
1915,1913,1900
1878,1948,1844
1911,2078,1856
1944,1946,1869
1909,1687,1826
1890,1861,1819
1904,1862,1842
1930,1846,1910
1987,1888,1910
1968,1834,1811
1888,1901,1888
2077,1939,1846
1855,1899,1855
1730,1904,1845
1817,1894,1853
1889,1930,1888
1870,1863,1986
1878,2000,1886
1855,1847,1809
1895,1794,1818
1906,1835,1849
1882,1797,1868
1895,1878,1847
1938,2000,1882
1915,1931,1871
1965,1845,1804
1895,1879,1840
1949,1879,1931
1872,1858,1904
1884,1839,1790
1904,2017,1855
2011,2133,1904
1831,1765,1863
1773,1714,1831
1875,1813,1846
2059,1889,1897
1826,1950,1873
1783,1871,1874
1820,1910,1840
1915,1924,1814
1904,1840,1867
1808,1873,1838
1855,1875,1885
1873,1966,1898
1904,1879,1897
1843,1828,1858
1863,1871,1825
1904,1959,1855
2062,2018,1927
1901,1951,1869
1754,1926,1823
1810,1794,1872
1892,1834,1885
1851,1907,1839
1861,1849,1807
1914,1959,1890
1977,1904,1808
1859,1791,1851
1798,1806,1918
1922,1926,1856
1947,1968,1861
1887,1827,1840
1795,1841,1827
1804,1868,1854
1840,1889,1895
1851,1936,1873
1905,1893,1836
1866,1859,1846
1871,1918,1838
1871,1889,1878
1893,1885,1894
1913,1904,1911
1880,1833,1840
1839,1846,1819
1888,1902,1901
1953,1879,1808
1982,1807,1795
1882,1813,1863
1818,1847,1889
1826,1961,1854
1899,2001,1899
1898,1986,1850
1814,1726,1776
1801,1730,1828
1872,1830,1889
1873,1921,1868
1855,1938,1857
1913,1937,1884
1977,1921,1840
1812,1825,1793
1777,1771,1799
1885,1855,1861
1942,2019,1937
1910,1835,1866
1878,1746,1774
1875,1861,1871
1841,1942,1890
1827,1936,1795
1871,1806,1807
1872,1795,1859
1871,1931,1896
1870,2039,1840
1902,1783,1775
1891,1744,1831
1829,1869,1897
1819,1904,1840
1893,1808,1835
1913,1831,1839
1887,1937,1870
1914,1924,1881
1867,1799,1805
1935,1985,1853
1840,1885,1881
1795,1822,1824
1916,1805,1729
1835,1891,1845
1842,1818,1953
1845,1786,1872
1867,1883,1826
1899,2069,1904
1891,1952,1871
1877,1695,1814
1831,1657,1790
1885,1845,1827
1904,1967,1835
1858,1849,1808
1857,1933,1891
1904,1865,1873
1894,1881,1904
1792,1904,1867
1782,1780,1819
1909,1901,1872
1936,1886,1882
1811,1776,1785
1793,1770,1779
1904,1854,1897
1953,1963,1929
1872,1941,1797
1788,1936,1840
1861,1920,1904
2000,1790,1872
1871,1920,1759
1776,1760,1842
1887,1858,1893
1903,1859,1895
1881,1801,1852
1904,1858,1806
1855,2005,1909
1908,2011,1894
1815,1743,1821
1840,1838,1773
1840,1818,1811
1849,1878,1905
1850,1901,1866
1894,1856,1843
1939,1955,1849
1867,1857,1861
1850,1793,1763
1839,1801,1821
1870,1939,1904
1991,2153,1918
1909,1882,1840
1840,1744,1785
1882,1763,1839
1840,1852,1907
1811,1855,1876
1869,1904,1890
1891,1920,1841
1877,1923,1911
1855,1911,1872
1872,1905,1840
1930,1939,1776
1876,1789,1803
1904,1807,1840
1878,1982,1873
1877,1972,1889
1866,1745,1847
1843,1777,1809
1831,1869,1822
1906,1962,1904
1952,1935,1878
1967,1900,1776
1870,1861,1821
1828,1893,1893
1837,1791,1925
1857,1798,1813
1877,1863,1855
1915,1895,1887
1882,1911,1878
1873,1904,1814
1950,1870,1815
1955,1945,1856
1872,1966,1875
1790,1813,1813
1795,1779,1803
1890,1959,1889
