2297,1801,1935
2299,1811,1943
2320,1827,1967
2298,1831,1939
2261,1799,1920
2281,1758,1931
2293,1838,1959
2268,1855,1971
2242,1819,1949
2257,1814,1934
2286,1839,2032
2263,1845,1983
2228,1827,1948
2224,1814,1939
2245,1830,1944
2229,1833,1979
2205,1797,1929
2203,1787,1952
2234,1821,1962
2224,1814,2010
2194,1781,1959
2188,1776,1963
2205,1780,1982
2199,1759,1970
2170,1744,1953
2176,1794,2000
2186,1810,1946
2163,1771,1970
2145,1738,1952
2162,1725,1936
2182,1779,2000
2144,1783,1950
2112,1744,1917
2128,1728,1872
2159,1795,1966
2130,1795,1974
2085,1738,1904
2101,1727,1949
2141,1729,1977
2124,1721,1979
2094,1739,1936
2097,1760,1935
2113,1776,1974
2095,1753,1965
2062,1696,1936
2064,1703,1956
2096,1737,2000
2084,1719,1978
2047,1671,1919
2029,1652,1934
2032,1680,1972
2032,1680,1966
2019,1646,1935
2046,1627,1968
2053,1674,1972
2017,1657,1939
1989,1614,1905
2000,1615,1931
2030,1628,1973
2027,1604,1982
1987,1601,1939
1974,1584,1920
2000,1597,1950
1979,1573,1936
1957,1535,1906
1991,1562,1936
2017,1584,1976
1990,1571,1952
1936,1521,1883
1941,1507,1899
1980,1517,1953
1962,1501,1933
1923,1491,1902
1968,1511,1936
1961,1553,1948
1901,1471,1911
1878,1399,1890
1935,1409,1929
1978,1509,1935
1901,1574,1920
1881,1438,1886
1904,1365,1908
1899,1313,1924
1911,1329,1903
1888,1393,1889
1936,1405,1914
1927,1379,1951
1918,1374,1936
1889,1429,1871
1891,1424,1883
1931,1392,1949
1953,1504,1936
1872,1365,1866
1886,1227,1872
1927,1327,1938
1894,1301,1908
1855,1255,1837
1889,1349,1883
1946,1528,1959
1853,1347,1920
1843,1118,1859
1870,1234,1873
1936,1331,1887
1846,1247,1879
1852,1251,1867
1872,1239,1888
1885,1224,1924
1884,1239,1890
1885,1202,1837
1861,1238,1845
1900,1301,1915
1890,1283,1915
1874,1264,1872
1874,1317,1895
1920,1413,1968
1855,1200,1823
1836,1111,1797
1829,1157,1873
1864,1249,1938
1857,1251,1904
1856,1250,1851
1877,1171,1865
1875,1265,1882
1853,1255,1892
1822,1232,1840
1847,1252,1860
1898,1299,1939
1904,1263,1918
1808,1293,1845
1809,1327,1856
1886,1307,1941
1823,1235,1892
1779,1201,1810
1803,1264,1842
1846,1311,1901
1866,1339,1885
1847,1302,1850
1845,1380,1870
1841,1245,1840
1811,1200,1866
1793,1235,1847
1776,1279,1857
1859,1322,1895
1856,1328,1868
1777,1296,1825
1838,1318,1840
1829,1328,1882
1857,1365,1878
1731,1344,1821
1821,1326,1818
1864,1346,1854
1780,1350,1844
1797,1340,1811
1749,1358,1839
1765,1379,1856
1791,1394,1839
1799,1350,1799
1776,1359,1834
1766,1410,1875
1776,1406,1869
1805,1392,1822
1767,1397,1837
1735,1419,1852
1763,1407,1822
1733,1415,1809
1744,1433,1810
1809,1450,1850
1733,1453,1843
1793,1445,1821
1755,1477,1821
1745,1491,1849
1712,1488,1857
1700,1472,1813
1713,1501,1812
1747,1512,1852
1712,1496,1818
1692,1482,1794
1710,1509,1827
1718,1535,1853
1667,1553,1824
1659,1509,1791
1706,1515,1805
1635,1571,1836
1681,1567,1813
1633,1535,1779
1665,1553,1793
1734,1601,1818
1642,1613,1809
1663,1587,1770
1567,1634,1777
1646,1658,1831
1730,1627,1807
1599,1573,1755
1680,1595,1774
1632,1675,1801
1689,1694,1803
1605,1674,1760
1631,1691,1772
1671,1691,1803
1618,1744,1783
1615,1749,1744
1641,1748,1776
1665,1778,1817
1651,1749,1797
1606,1731,1741
1615,1781,1759
1611,1809,1808
1633,1792,1781
1626,1781,1739
1613,1826,1767
1649,1861,1807
1626,1872,1781
1600,1867,1748
1631,1929,1766
1670,1927,1791
1647,1895,1776
1612,1905,1735
1613,1936,1774
1607,1941,1808
1685,1950,1795
1617,1916,1744
1636,1945,1761
1645,1994,1793
1648,2005,1774
1597,1985,1738
1652,2000,1761
1659,1972,1776
1616,1998,1761
1509,1989,1743
1649,2011,1761
1697,2043,1814
1639,2043,1799
1626,2055,1751
1632,2007,1751
1648,2047,1777
1638,2039,1783
1605,2005,1726
1616,2059,1730
1664,2114,1808
1648,2091,1802
1616,2043,1750
1637,2037,1753
1661,2125,1790
1648,2142,1788
1619,2109,1746
1636,2105,1761
1665,2145,1793
1648,2162,1801
1613,2119,1771
1635,2122,1778
1685,2123,1811
1667,2097,1775
1616,2096,1744
1617,2171,1759
1651,2176,1792
1654,2144,1795
1638,2112,1762
1647,2144,1769
1666,2205,1813
1661,2192,1807
1623,2160,1738
1629,2169,1745
1665,2215,1827
1666,2243,1808
1629,2151,1745
1648,2156,1776
1679,2166,1824
1663,2181,1794
1644,2144,1746
1655,2190,1774
1696,2222,1809
1680,2169,1787
1638,2229,1750
1647,2240,1776
1670,2249,1789
1647,2227,1777
1643,2192,1769
1665,2203,1781
1683,2256,1825
1654,2197,1801
1635,2179,1750
1670,2235,1765
1687,2249,1810
1669,2235,1807
1655,2203,1759
1659,2246,1761
1684,2271,1794
1682,2240,1795
1653,2221,1760
1681,2235,1781
1711,2267,1821
1691,2257,1794
1664,2192,1746
1680,2187,1762
1714,2259,1812
1695,2242,1799
1666,2192,1758
1696,2214,1773
1718,2256,1830
1703,2235,1823
1680,2192,1792
1695,2279,1815
1718,2244,1803
1705,2203,1791
1683,2175,1769
1696,2179,1794
1729,2220,1872
1721,2228,1807
1696,2208,1760
1706,2219,1791
1733,2237,1837
1727,2215,1823
1711,2175,1802
1717,2194,1801
1747,2224,1840
1731,2192,1808
1697,2170,1776
1707,2167,1808
1745,2246,1853
1739,2186,1835
1715,2130,1787
1728,2144,1792
1750,2181,1847
1741,2173,1841
1715,2149,1797
1741,2164,1819
1771,2214,1857
1747,2209,1839
1727,2151,1783
1733,2141,1799
1760,2143,1840
1749,2142,1826
1744,2155,1814
1759,2168,1840
1778,2156,1865
1763,2128,1837
1736,2113,1789
1754,2119,1832
1791,2156,1933
1775,2189,1855
1735,2100,1758
1749,2100,1783
1793,2137,1841
1775,2140,1849
1744,2112,1810
1773,2091,1829
1794,2107,1863
1774,2100,1840
1759,2083,1801
1785,2103,1838
1814,2097,1895
1808,2117,1857
1755,2112,1808
1774,2081,1830
1802,2123,1869
1783,2105,1857
1757,2077,1825
1788,2069,1836
1814,2081,1871
1801,2073,1869
1776,2027,1840
1791,2064,1861
1815,2086,1893
1798,2074,1871
1779,2043,1827
1791,2047,1856
1833,2053,1889
1815,2082,1886
1771,2039,1826
1783,2013,1856
1826,2057,1899
1817,2070,1873
1792,2017,1823
1811,2002,1841
1839,2064,1874
1816,2046,1870
1799,1995,1835
1811,2005,1846
1838,2062,1894
1810,2045,1877
1790,2006,1841
1810,1979,1852
1838,2073,1887
1812,2018,1872
1799,1957,1828
1825,1930,1853
1859,2016,1887
1839,1977,1875
1813,1968,1851
1830,2033,1871
1863,2031,1899
1842,1986,1880
1822,2031,1841
1835,1984,1849
1858,1997,1891
1845,2017,1873
1809,1965,1851
1822,1965,1855
1854,1943,1883
1859,1936,1873
1835,1955,1849
1837,2023,1873
1853,2001,1895
1830,1977,1873
1809,1943,1840
1835,1938,1857
1860,1971,1887
1840,1971,1867
1814,1987,1851
1835,1914,1867
1865,1961,1889
1856,1950,1873
1838,1979,1863
1842,1904,1869
1865,1930,1884
1840,1953,1872
1819,1954,1840
1842,1898,1855
1862,1941,1901
1856,1964,1888
1840,1921,1840
1847,1970,1851
1867,1920,1883
1842,1947,1877
1829,1935,1847
1851,1972,1856
1872,1963,1893
1856,1957,1877
1837,1942,1849
1856,1889,1846
1869,1925,1871
1850,1936,1881
1830,1900,1866
1853,1899,1870
1871,1854,1858
1846,1955,1856
1828,1897,1849
1863,1939,1876
1875,1883,1881
1843,1915,1858
1822,1891,1843
1847,1943,1874
1872,1925,1903
1867,1921,1872
1839,1904,1840
1856,1904,1859
1873,1936,1889
1866,1907,1872
1847,1918,1854
1856,1879,1872
1879,1921,1903
1869,1881,1879
1841,1904,1837
1865,1907,1866
1886,1951,1888
1872,1922,1859
1847,1872,1837
1865,1926,1857
1882,1887,1898
1868,1841,1872
1856,1886,1831
1867,1882,1867
1891,1889,1895
1875,1843,1889
1854,1866,1861
1872,1926,1874
1910,1887,1895
1872,1879,1870
1841,1872,1822
1857,1843,1849
1887,1953,1877
1871,1895,1865
1857,1847,1844
1871,1897,1859
1881,1918,1892
1869,1886,1855
1841,1808,1829
1872,1854,1883
1901,1923,1895
1856,1856,1856
1834,1805,1817
1861,1824,1849
1892,1872,1886
1868,1874,1867
1838,1779,1831
1855,1872,1841
1893,1899,1881
1885,1846,1857
1855,1834,1833
1870,1857,1849
1899,1935,1888
1885,1949,1871
1856,1827,1826
1870,1835,1853
1901,1889,1878
1881,1905,1868
1866,1777,1853
1869,1849,1863
1887,1839,1879
1911,1901,1898
1932,1909,1890
1926,1871,1872
1917,1825,1904
1950,1884,1922
2001,1998,1951
1945,1959,1907
1984,1855,1963
1971,1831,1970
1872,1943,1862
1904,2000,1843
1892,1858,1870
1797,1943,1776
1811,1968,1634
1934,1872,1722
1783,1845,1841
1823,1914,1930
1842,1984,1876
1970,2259,1901
2005,2297,1776
1808,2218,1811
1925,2365,2125
2040,2515,2208
1826,2285,1917
1941,2378,1920
1726,2355,1717
1442,2190,1498
1612,2352,1661
1887,2683,1910
2064,2782,2064
1703,2559,1749
1483,2530,1495
1554,2789,1589
1664,2786,1722
1792,2983,1840
1776,2815,1862
1703,2864,1758
1834,2957,1888
1793,2945,1815
1683,2982,1679
1518,2953,1591
1509,2935,1619
1520,2897,1606
1563,2997,1664
1623,3057,1698
1661,3056,1710
1632,3091,1731
1594,3122,1742
1581,3234,1704
1535,3310,1684
1535,3008,1687
1584,2865,1709
1589,2871,1687
1586,2911,1647
1593,2951,1693
1634,2988,1729
1641,2942,1657
1593,2846,1665
1662,2884,1746
1740,3059,1755
1648,3427,1779
1434,2720,1639
1448,2305,1621
1578,2512,1743
1535,2591,1731
1557,2669,1678
1597,2850,1731
1618,2849,1755
1731,2369,1623
1521,2352,1721
1531,2617,1831
1737,2739,1797
1719,2415,1663
1598,2613,1711
1475,2432,1811
1453,1923,1783
1535,1978,1751
1589,2171,1716
1649,2277,1762
1692,2366,1839
1664,2274,1725
1605,2143,1696
1698,2256,1791
1685,1862,1744
1677,1967,1787
1792,2078,1726
1601,1921,1835
1488,1813,1863
1535,1833,1808
1619,1903,1783
1677,1873,1837
1700,1818,1893
1695,1733,1919
1673,1781,1786
1689,1870,1737
1722,1762,1775
1761,1770,1856
1711,1600,1829
1648,1580,1869
1801,1564,1782
1743,1663,1765
1712,1669,1870
1616,1301,1861
1645,1320,1869
1728,1414,1757
1733,1602,1799
1766,1563,1907
2003,1379,1870
1818,1311,1819
1387,1314,1799
1488,1427,1910
1671,1339,1884
1691,1231,1844
1696,1488,1856
1712,1376,1883
1714,1045,1837
1616,1109,1863
1650,1358,1885
1718,1441,1814
1728,1188,1787
1695,1175,1822
1763,1268,1869
1631,1382,1942
1668,1330,1830
1654,1162,1786
1685,1094,1777
1594,1102,1886
1776,1327,1901
1680,1200,1868
1563,1158,1831
1703,1264,1841
1677,1197,1900
1707,1433,1937
1594,1237,1871
1577,1072,1794
1629,1126,1847
1661,1258,1872
1728,1313,1837
1714,1394,1855
1728,1296,1924
1604,1433,1918
1577,1306,1747
1675,1423,1807
1695,1191,1824
1606,1134,1837
1567,1368,1840
1633,1776,1922
1648,1535,1891
1633,1443,1875
1555,1507,1809
1645,1535,1840
1743,1597,1826
1559,1618,1803
1535,1802,1872
1655,1797,1903
1664,1535,1889
1535,1495,1870
1531,1535,1888
1629,1713,1854
1653,1806,1838
1582,1487,1842
1486,1535,1813
1575,1790,1860
1730,1840,1840
1657,1840,1808
1565,1666,1808
1570,1815,1918
1619,1938,1893
1535,1797,1818
1503,1819,1774
1587,1934,1811
1632,2098,1875
1523,1920,1840
1487,1851,1869
1605,2103,1883
1577,1859,1834
1555,1925,1822
1575,1910,1856
1585,2015,1827
1584,2136,1842
1742,2240,1837
1651,1979,1799
1447,1877,1784
1453,1927,1885
1562,2140,2003
1523,2045,1757
1535,2014,1728
1655,2159,1795
1676,2099,1828
1511,2016,1871
1505,2075,1853
1527,2133,1870
1581,2365,1863
1616,2247,1842
1555,1936,1763
1597,1915,1744
1601,1983,1808
1648,2047,1754
1488,2169,1919
1471,2010,1911
1535,2126,1877
1630,2409,1877
1600,1968,1820
1578,1871,1833
1577,2139,1898
1665,1962,1776
1616,1887,1771
1492,1925,1843
1463,2171,1945
1488,2192,1911
1505,1911,1840
1535,1968,1825
1591,1984,1795
1531,1936,1739
1454,1915,1874
1473,1987,1921
1491,2119,1858
1462,2095,1826
1465,1967,1808
1535,2000,1895
1507,1945,1843
1443,1843,1827
1585,1984,1859
1555,2003,1909
1429,1910,1856
1423,1802,1771
1482,1837,1776
1535,2078,1882
1584,1871,1829
1660,1813,1807
1616,1935,1822
1402,1934,1894
1390,1919,1902
1482,2006,1904
1553,2001,1903
1510,1794,1825
1476,1801,1829
1482,1941,1807
1527,1993,1828
1579,1911,1904
1535,2000,1872
1515,1918,1861
1535,1806,1821
1578,1847,1855
1535,1919,1837
1488,1915,1891
1524,1831,1887
1617,1873,1867
1616,1968,1842
1575,2074,1820
1604,1954,1853
1619,1775,1859
1558,1873,1898
1488,1888,1847
1567,1935,1947
1632,1941,1898
1648,1792,1806
1584,1792,1763
1639,1834,1947
1695,2019,1933
1603,2045,1888
1535,1782,1797
1598,1750,1845
1666,2023,1965
1702,1967,1904
1600,1729,1828
1603,1698,1876
1648,1835,1882
1678,1885,1885
1661,1873,1797
1680,1775,1839
1729,1920,1879
1657,1899,1936
1615,1820,1891
1665,1909,1842
1683,1754,1811
1702,1791,1860
1727,1872,1889
1716,1934,1947
1681,1840,1901
1661,1806,1815
1679,1853,1872
1725,1919,1930
1751,1854,1922
1712,1920,1859
1670,1730,1769
1750,1707,1850
1801,1920,1990
1801,2238,1907
1723,1682,1729
1654,1593,1792
1706,1765,1907
1758,1981,1919
1771,2052,1878
1774,1831,1920
1802,1809,1843
1796,1834,1829
1791,1842,1892
1760,1855,1924
1761,1910,1909
1771,2006,1840
1760,1904,1837
1857,1886,1840
1831,1861,1843
1733,1843,1863
1732,1840,1841
1815,1851,1845
1811,1901,1904
1806,1943,1918
1824,1971,1878
1842,1943,1855
1818,1915,1856
1801,1959,1871
1857,1994,1901
1871,1807,1835
1818,2012,1865
1797,1845,1894
1766,1751,1775
1828,1789,1792
1889,1938,1904
1986,2055,1903
1863,1882,1814
1771,1811,1871
1797,1946,1958
1846,1922,1916
1847,1859,1857
1874,1879,1842
1905,1983,1877
1935,1965,1858
1936,1885,1872
1862,1966,1936
1847,1804,1869
1874,1823,1808
1866,1872,1876
1904,1936,1888
1937,2021,1903
1963,2029,1936
2019,1962,1901
1839,1913,1776
1819,1687,1867
1862,1744,1872
1901,1904,1827
1936,1946,1785
1980,1867,1889
1936,1856,1843
1855,1797,1798
1909,1866,1847
1979,1919,1886
1971,1953,1890
1920,1902,1840
1984,1943,1885
1982,1929,1907
1890,1867,1904
1904,1890,1840
1933,1959,1863
1930,2053,1935
1945,1875,1938
1933,1802,1840
1979,1929,1805
1941,1820,1840
1905,1821,1875
1904,1776,1823
1950,1858,1857
1998,1973,1925
2047,2065,1935
1942,1882,1831
1927,1771,1823
2002,1830,1878
2100,1892,1901
1939,1941,1843
1878,1874,1840
1909,1888,1879
1957,1818,1875
1975,1813,1854
1970,2032,1870
1987,1938,1917
1973,1906,1879
1965,1833,1830
1942,1762,1830
2031,1825,1922
2074,1920,1927
1968,1919,1825
1969,1811,1821
2043,1887,1918
2141,1941,1897
2015,1867,1815
1931,1735,1819
1936,1815,1851
1962,1925,1867
1991,1952,1842
2102,1899,1943
1995,1889,1914
1973,1971,1855
1968,1857,1822
2011,1768,1855
2063,1727,1872
1995,1866,1907
1965,1830,1846
1969,1862,1860
2037,1946,1910
2009,1861,1840
2032,1835,1853
2076,1749,1878
1971,1865,1871
2017,1843,1879
2010,1831,1856
2047,2030,1871
2016,1876,1922
1956,1726,1874
1967,1683,1825
2094,1969,1907
2117,1898,1875
1931,1701,1825
1905,1774,1831
2027,1873,1918
2141,1856,1919
2022,1968,1872
2038,1961,1828
1974,1723,1808
1994,1760,1869
2055,1801,1850
2031,1830,1840
1971,1785,1861
2000,1886,1904
1987,1844,1872
2015,1777,1854
2011,1817,1886
2094,1886,1897
2083,1974,1863
2018,1903,1831
1984,1773,1865
1935,1735,1871
2043,1801,1859
1983,1779,1857
1929,1773,1840
2101,1805,1865
2064,1877,1889
2055,2018,1901
2047,1862,1843
2002,1769,1881
1984,1717,1835
1997,1755,1834
2007,1887,1889
2041,1945,1940
2000,1872,1840
1984,1767,1792
1981,1823,1874
2047,1868,1872
1972,1775,1792
1965,1718,1799
2000,1769,1869
2047,1899,1872
2127,1841,1893
2063,1744,1799
1952,1792,1844
1993,1839,1906
1936,1781,1856
1991,1774,1811
2064,1807,1829
2091,1855,1903
2011,1871,1846
2029,1763,1831
1987,1821,1865
2032,1808,1931
1954,1839,1831
1935,1801,1799
1889,1833,1882
2032,1787,1860
1987,1776,1807
2096,1895,1796
1979,1957,1909
1958,1834,1904
2004,1667,1823
1986,1773,1815
2016,1837,1910
2043,1885,1920
1983,1725,1827
1949,1683,1779
1999,1759,1807
2089,1860,1843
1948,1888,1847
1936,1850,1841
2007,1825,1846
1986,1840,1854
2002,1797,1810
1968,1785,1830
1904,1927,1883
2064,1795,1892
2075,1813,1873
1965,1804,1775
1990,1919,1843
2018,1828,1885
2055,1669,1814
1870,1754,1799
1953,1830,1843
2013,1856,1856
2037,1734,1822
2000,1750,1829
1963,1847,1859
2003,1941,1894
1924,1885,1883
2013,1773,1854
2021,1861,1848
1961,1840,1874
1968,1859,1888
2000,1906,1869
1977,1849,1815
1983,1891,1851
1968,1872,1868
2000,1783,1862
2068,1793,1808
1984,1806,1785
1845,1718,1798
1925,1803,1802
2006,1890,1843
2054,1863,1879
1986,1841,1872
1946,1920,1839
1968,1840,1842
2027,1863,1909
1936,1888,1856
1936,1875,1827
2069,1899,1860
2046,1961,1897
1838,1765,1792
1914,1659,1769
2017,1719,1825
1886,1888,1917
1875,1941,1875
1931,1849,1795
1982,1800,1803
1978,1972,1883
1901,1833,1869
1951,1798,1867
1991,1943,1915
2063,1893,1887
1943,1778,1753
1859,1731,1790
1943,1801,1872
1936,1895,1879
1920,1920,1823
1914,1863,1776
1954,1903,1866
1967,1849,1866
1978,1942,1867
1943,1856,1787
1955,1855,1859
2005,1895,1898
1943,1776,1815
1940,1776,1791
1984,1872,1923
1953,1938,1872
1909,1872,1789
1907,1802,1778
1946,1908,1894
1952,1873,1903
1901,1776,1821
1938,1830,1809
1949,1909,1887
1970,1904,1909
1941,1886,1861
1920,1846,1824
1953,1893,1882
1947,1873,1875
1973,1853,1840
1935,1883,1824
1924,1968,1882
1935,1801,1840
1930,1754,1774
1920,1826,1806
2021,1925,1899
1981,1973,1924
1928,1847,1817
1925,1856,1799
1936,1861,1871
1971,1866,1872
1953,1971,1857
1955,2091,1821
1922,1683,1826
1910,1648,1857
1941,1838,1821
1920,1956,1815
1919,1978,1918
1957,1856,1904
1968,1845,1856
1943,2002,1847
1948,1941,1837
1884,1719,1861
1871,1718,1812
1921,1834,1841
1936,1920,1854
1926,1920,1905
1957,1869,1843
1939,1867,1788
2001,1869,1872
1990,1820,1845
1920,1837,1780
1858,1840,1805
1921,1899,1890
1927,1935,1895
1905,1911,1810
1882,1962,1824
1891,1875,1859
1919,1869,1902
1933,1830,1842
1901,1761,1793
1927,1810,1827
2015,1894,1870
1941,1939,1837
1842,1860,1820
1854,1792,1819
1968,1911,1869
2000,2002,1887
1857,1847,1830
1877,1818,1887
1942,1873,1870
1903,1903,1777
1854,1744,1798
1923,1841,1840
1920,1811,1841
1887,1826,1811
1881,1837,1812
2019,1943,1840
1917,2005,1847
1846,1856,1845
1833,1805,1851
1895,1878,1891
1974,2026,1903
1904,1922,1840
1855,1755,1808
1939,1806,1819
1946,1989,1878
1909,2000,1841
1855,1807,1760
1851,1685,1790
1945,1889,1898
1925,1920,1854
1856,1799,1788
1899,1827,1834
1951,1937,1866
1934,1969,1875
1913,1798,1860
1936,1778,1840
1853,1869,1834
1824,1943,1840
1845,1845,1823
1904,1904,1848
1909,1870,1865
1910,1975,1855
1870,1813,1829
1887,1965,1873
1919,1975,1854
1865,1783,1801
1842,1760,1808
1909,1855,1879
1942,1889,1855
1901,1936,1803
1892,1867,1831
1872,1808,1870
1947,1926,1863
1920,1854,1839
1808,1883,1844
1856,1937,1885
1857,1904,1865
1845,1871,1807
1872,1847,1796
1913,1857,1862
1925,1983,1927
1874,1856,1823
1899,1878,1831
1910,1813,1840
1901,1813,1856
1853,1829,1835
1872,1965,1827
1908,2059,1846
1904,1954,1855
1962,2011,1840
1860,1828,1813
1821,1691,1808
1966,1753,1844
1839,1862,1837
1806,1850,1792
1868,1936,1847
1910,1945,1906
1884,1871,1868
1875,1871,1822
1905,1926,1889
1930,1984,1891
1881,1842,1781
1888,1768,1779
1915,1856,1842
1912,2034,1891
1891,1776,1853
1853,1842,1840
1917,2113,1904
1934,2033,1897
1874,1691,1818
1835,1630,1761
1813,1744,1775
1866,1971,1845
1875,1938,1841
1877,1885,1818
1895,1872,1879
1904,2033,1902
1883,1933,1835
1873,1711,1796
1949,1858,1867
1919,1867,1881
1783,1933,1874
1787,1878,1840
1873,1829,1845
1968,1872,1887
1841,1890,1835
1799,1934,1798
1872,1958,1865
1949,1935,1920
1895,1963,1901
1843,1881,1852
1862,1783,1823
1917,1869,1869
1906,1914,1862
1884,1846,1841
1905,1881,1874
1901,1863,1910
1851,1767,1823
1808,1865,1792
1894,1858,1869
1898,1904,1905
1849,1921,1857
1830,1958,1853
1888,1983,1894
1898,1880,1913
1874,1957,1890
1872,1808,1813
1897,1789,1827
1903,1891,1850
1849,1840,1828
1865,1904,1827
1892,1886,1835
1887,1872,1840
1898,1967,1869
1850,1845,1857
1838,1839,1889
1871,1959,1847
1904,2060,1817
1878,1843,1742
1853,1721,1825
1871,1856,1909
1868,1927,1901
1875,1916,1838
1857,1936,1825
1862,1803,1835
1872,1766,1851
1889,2021,1842
1923,1941,1872
1983,1840,1856
1823,1857,1810
1747,1824,1794
1851,1873,1885
1866,1835,1890
1870,1931,1834
1850,1790,1827
1872,1890,1840
1893,1940,1894
1867,1829,1819
1840,1809,1776
1857,1823,1831
1902,1981,1887
1920,2030,1867
1885,1915,1838
1859,1857,1865
1909,1879,1867
1887,1949,1830
1874,1917,1825
1888,1747,1830
1842,1772,1823
1830,1804,1802
1867,1856,1815
1887,1870,1861
1850,2039,1904
1840,1930,1855
1859,1808,1797
1893,1889,1845
1904,1925,1873
1846,2010,1840
1819,1783,1789
1871,1779,1840
1930,1893,1910
1866,1849,1853
1868,1840,1797
1933,1879,1860
1937,1951,1888
1899,1904,1855
1869,1944,1813
1801,1849,1815
1820,1744,1859
1796,1729,1833
1859,1824,1803
1939,1993,1810
1910,2060,1902
1787,1778,1904
1792,1744,1826
1882,1759,1814
1870,1904,1872
1871,1889,1821
1847,1830,1783
1931,1905,1821
1938,1911,1849
1796,1887,1840
1769,1962,1851
1854,1950,1911
1856,1827,1845
1825,1785,1773
1806,1753,1775
1847,1832,1855
1890,1938,1868
1869,1943,1853
1893,1898,1844
1889,1961,1821
1863,1980,1871
1808,1795,1831
1839,1709,1778
1872,1790,1831
1871,1866,1856
1846,1916,1847
1898,1895,1808
1927,1842,1819
1919,1872,1866
1813,1840,1792
1763,1883,1841
1797,2034,1936
1858,1885,1885
1859,1903,1809
1863,1872,1812
1899,1815,1847
1902,1934,1869
1835,1985,1846
1829,1904,1819
1871,1913,1882
1903,1957,1905
1840,1850,1824
1821,1815,1792
1905,1871,1839
1914,1861,1852
1936,1872,1763
1885,2026,1839
1813,2047,1948
1797,1856,1871
1835,1805,1797
1802,1840,1831
1839,1897,1863
1886,1991,1886
1890,1915,1820
1861,1788,1747
1852,1920,1819
1909,2158,1939
1856,1961,1853
1802,1689,1773
1874,1790,1857
1922,1891,1865
1872,2003,1804
1873,1975,1842
1886,1984,1897
1859,1903,1862
1808,1939,1841
1823,1997,1825
1859,1877,1866
1841,1819,1877
1851,1878,1860
1837,2059,1834
1817,1878,1792
1838,1849,1827
1872,1913,1840
1904,2086,1895
1886,1936,1815
1874,1845,1789
1839,1925,1867
1867,1986,1841
1943,1847,1824
1845,1862,1831
1771,1856,1845
1856,2062,1860
1907,1973,1883
1904,1810,1830
1795,1817,1823
1796,1970,1823
1858,2000,1840
1901,2036,1819
1909,1984,1809
1834,1773,1804
1830,1827,1827
1867,1892,1887
1872,1982,1908
1888,2111,1872
1872,1799,1808
1898,1781,1781
1953,2096,1818
1845,2141,1867
1744,1846,1814
1858,1821,1840
1875,1923,1840
1821,2055,1839
1842,2137,1883
1869,1815,1829
1851,1786,1789
1875,1927,1874
1831,1862,1818
1846,1933,1810
1885,2052,1812
1934,1930,1809
1889,1955,1860
1901,2039,1905
1869,1890,1799
1831,1775,1827
1904,1898,1833
1857,2028,1878
1801,2019,1890
1794,1846,1841
1904,1902,1805
1911,1927,1849
1865,1943,1827
1871,2005,1850
1848,1986,1882
1932,2109,1895
1830,1872,1810
1826,1834,1806
1814,1768,1826
1873,2000,1849
1893,1964,1825
1887,1852,1808
1866,1898,1885
1861,1940,1887
1841,1943,1837
1809,1923,1840
1872,2061,1875
1917,2096,1898
1874,1872,1850
1875,1745,1812
1814,1917,1877
1840,1950,1905
1842,1956,1826
1869,2047,1812
1891,1852,1831
1891,1908,1878
1845,1913,1853
1884,1991,1823
1890,1919,1842
1872,1804,1829
1913,1866,1838
1818,1882,1828
1819,2015,1886
1868,1983,1902
1889,1846,1835
1821,1857,1806
1863,1950,1856
1917,1925,1878
1899,1855,1858
1846,1978,1825
1842,1859,1823
1840,1914,1883
1855,1913,1877
1895,1914,1872
1937,1826,1834
1898,1968,1855
1879,1924,1827
1845,1906,1834
1850,1904,1872
1882,1931,1908
1854,1897,1831
1837,1933,1841
1885,2037,1867
1895,1787,1837
1812,1669,1787
1854,1774,1808
1889,1904,1888
1932,2011,1911
1859,1968,1858
1818,1874,1810
1861,1872,1856
1943,2009,1945
1942,2187,1810
1900,1751,1755
1838,1641,1801
1812,1784,1910
1818,1875,1856
1863,1872,1805
1919,1933,1909
1866,1899,1857
1863,1904,1826
1837,1875,1795
1898,1968,1867
1911,1950,1920
1919,1978,1849
1872,1883,1799
1871,1901,1839
1905,1895,1859
1854,1824,1772
1824,1721,1791
1857,1813,1893
1898,1860,1893
1918,1904,1847
1916,2086,1878
1913,2032,1861
1878,1813,1824
1904,1740,1846
1856,1781,1831
1828,1851,1808
1905,1868,1867
1931,1854,1846
1914,1915,1839
1874,1930,1873
1942,2111,1921
1936,1841,1879
1829,1738,1808
1795,1825,1840
1859,1957,1867
1883,1925,1837
1871,1783,1863
1897,1840,1854
1908,1904,1891
1891,1860,1865
1883,1871,1842
2002,2070,1895
1967,1818,1844
1856,1727,1808
1826,1847,1809
1863,1988,1921
1886,2064,1937
1878,1935,1865
1897,1886,1838
1914,1719,1820
1935,1831,1870
1812,1911,1874
1798,1811,1846
1887,1874,1850
1919,1906,1906
1883,1945,1869
1892,1869,1780
1883,1909,1863
1891,1984,1926
1856,1777,1838
1871,1761,1825
1911,1837,1855
1904,1863,1856
1903,1919,1851
1895,1969,1903
1915,1965,1877
1809,1778,1835
1815,1733,1797
1934,1862,1846
1936,2025,1920
1872,1949,1892
1794,1719,1827
1840,1744,1859
1913,1931,1811
1919,1974,1874
1857,1839,1897
1851,1815,1842
1921,1902,1914
1961,1871,1844
1909,1805,1793
1818,1778,1835
1904,2029,1851
1878,2159,1949
1808,1814,1820
1828,1697,1778
1888,1747,1851
1893,1843,1831
1868,1842,1807
1943,1842,1874
1891,1975,1894
1870,2015,1895
1840,1872,1809
1850,1838,1858
1885,1843,1822
1934,1783,1847
1921,1843,1789
1806,1852,1830
1887,1779,1863
1904,1883,1890
1844,1939,1853
1856,2023,1851
1871,1881,1845
1905,1855,1873
1846,1939,1899
1808,1825,1815
1883,1773,1840
1923,1745,1829
1909,1791,1801
1849,1994,1856
1840,1916,1878
1905,1808,1869
1878,1833,1776
1875,1875,1840
1884,1906,1912
1862,1946,1839
1903,1750,1789
1840,1853,1771
1872,1925,1875
1893,1825,1936
1866,1823,1781
1841,2096,1883
