1904,1959,1855
1936,1944,1890
1882,1731,1821
1839,1849,1838
1879,1920,1842
1903,1878,1885
1920,1935,1901
1907,1900,1849
1890,1882,1826
1909,1926,1906
1904,1794,1870
1891,1763,1822
1979,1797,1799
1881,1892,1871
1830,2009,1876
1894,1962,1825
1894,1901,1839
1874,1875,1887
1895,1809,1922
1890,1819,1808
1892,1849,1845
1898,1871,1906
1860,1894,1901
1873,1865,1841
1911,2144,1881
1920,1937,1817
1855,1673,1792
1868,1706,1813
1866,1840,1857
1905,1987,1922
1968,2129,1913
1871,2025,1814
1815,1622,1776
1904,1653,1869
1895,1820,1883
1911,1959,1840
1877,1872,1799
1923,1840,1841
1930,1856,1883
1867,1943,1890
1814,1984,1872
1878,2153,1851
1874,1808,1823
1856,1663,1809
1846,1712,1881
1870,1853,1873
1872,1927,1801
1863,1872,1788
1903,1998,1887
1894,1958,1901
1899,1962,1854
1869,1787,1790
1890,1727,1789
1909,1808,1876
1962,1841,1872
1921,1818,1821
1897,1939,1818
1828,1914,1811
1890,1964,1856
1798,1850,1806
1773,1829,1872
1827,1849,1924
1863,1906,1853
1887,1890,1789
1872,1951,1806
1872,1907,1836
1856,1776,1850
1847,1776,1811
1889,1795,1855
1915,1879,1859
1904,1928,1847
1917,1851,1805
1963,1968,1830
1850,1902,1847
1875,1863,1840
1840,1873,1808
1885,1928,1808
1884,1898,1872
1883,1925,1872
1808,1826,1829
1807,1776,1813
1856,1878,1866
1859,1871,1853
1872,1825,1791
1925,1947,1872
1889,1844,1872
1856,1881,1787
1840,1872,1776
1860,1883,1841
1877,1953,1872
1877,1943,1867
1898,1987,1850
1891,1835,1811
1873,1793,1845
1846,1744,1847
1835,1759,1814
1854,1884,1849
1907,1957,1829
1842,1880,1813
1856,1811,1807
1971,1930,1865
1872,1956,1934
1808,1967,1898
1841,2111,1857
1879,1801,1807
1872,1791,1843
1844,1797,1820
1861,1761,1805
1901,1859,1825
1956,1919,1871
1904,1902,1823
1763,1835,1797
1810,1837,1806
1879,1984,1877
1917,1979,1894
1859,1925,1828
1890,1981,1853
1905,1775,1843
1822,1789,1810
1803,1770,1787
1820,1753,1838
1885,1858,1902
1904,1986,1893
1892,2005,1858
1878,1819,1830
1914,1873,1827
1871,1987,1845
1862,1931,1792
1892,1736,1826
1890,1774,1870
1907,1862,1885
1863,1910,1838
1808,1867,1858
1867,1886,1919
1859,1889,1870
1872,1969,1840
1909,1978,1850
1927,1931,1874
1879,1791,1851
1834,1763,1786
1878,1758,1751
1871,1929,1890
1844,1911,1900
1859,1904,1831
1901,2065,1840
1909,1910,1873
1905,1857,1855
1839,1795,1831
1847,1811,1831
1957,1838,1850
1919,1863,1870
1875,1956,1895
1885,1955,1938
1872,1888,1821
1841,1936,1801
1883,1853,1786
1838,1793,1817
1849,1813,1868
1875,1935,1856
1920,2028,1778
1872,1810,1847
1899,1884,1919
1855,1805,1885
1842,1883,1868
1886,1863,1829
1940,1950,1854
1845,2018,1882
1792,1728,1805
1865,1779,1824
2000,1929,1869
1965,1949,1835
1792,1860,1822
1814,1893,1840
1860,1923,1859
1877,1986,1869
1856,1804,1813
1895,1795,1865
2013,1841,1895
1898,1862,1867
1779,1921,1811
1813,1840,1805
1901,1874,1883
1872,1825,1856
1839,1922,1829
1891,2023,1855
1907,1910,1872
1846,1845,1853
1841,1862,1818
1872,1867,1829
1901,1842,1866
1939,1921,1879
1904,1941,1854
1937,1827,1859
1898,1810,1839
1778,1867,1839
1815,1945,1872
1899,2043,1904
1933,1904,1841
1805,1722,1821
1803,1781,1814
1867,1875,1827
1946,1942,1871
1875,1947,1857
1838,1932,1835
1854,1855,1831
1897,1979,1865
1904,1894,1890
1869,1805,1831
1931,1954,1821
1889,1867,1808
1904,1785,1855
1835,1810,1844
1791,1846,1805
1842,1858,1811
1954,1997,1840
1808,1825,1793
1805,1803,1872
1851,1866,1873
1858,1907,1840
1869,1970,1822
1936,1946,1850
1879,1878,1845
1808,1778,1847
1819,1757,1776
1870,1851,1829
1927,2066,1914
1862,1969,1889
1836,1787,1797
1895,1725,1795
1852,1844,1878
1840,1890,1905
1873,1886,1863
1916,1972,1796
1906,1904,1879
1844,1837,1840
1811,1860,1773
1899,1915,1847
1904,1847,1850
1846,1772,1847
1775,1778,1818
1818,1843,1825
1879,1909,1874
1875,1923,1861
1870,1872,1842
1889,1904,1845
1885,1926,1863
1872,1809,1840
1839,1803,1840
1874,1841,1845
2011,1997,1872
1823,1873,1840
1759,1775,1862
1842,1894,1859
1889,1831,1827
1871,1817,1823
1855,1904,1837
1894,2001,1883
1876,1860,1839
1874,1798,1857
1885,1847,1804
1856,1882,1827
1862,1827,1937
1826,1823,1866
1873,1855,1734
1978,1975,1810
1889,1976,1908
1783,1753,1881
1790,1772,1829
1855,1963,1855
1874,1971,1872
1867,1906,1875
1870,1833,1808
1866,1803,1842
1858,1907,1891
1860,1899,1858
1841,1744,1808
1863,1815,1839
1907,1919,1895
1925,1857,1850
1863,1854,1815
1919,1839,1814
1931,1857,1872
1904,1872,1850
1815,1905,1894
1767,1904,1898
1849,1840,1874
1851,1855,1855
1845,1995,1848
1888,2027,1847
1907,1914,1856
1869,1781,1840
1823,1786,1818
1840,1780,1831
1901,1808,1888
1910,1992,1881
1867,2005,1845
1863,1895,1853
1910,1846,1886
1907,1851,1870
1888,1846,1795
1857,1821,1917
1890,1898,1893
1953,1856,1831
1947,1906,1824
1810,1806,1801
1793,1741,1869
1819,1830,1894
1824,1909,1856
1872,1938,1873
1913,1888,1873
1895,1871,1856
1849,1858,1872
1893,2006,1826
1926,2094,1963
1828,1901,1893
1811,1691,1794
1885,1797,1837
1919,1881,1872
1845,1817,1795
1856,1830,1808
1881,1846,1895
1860,1887,1893
1893,1930,1875
1919,1882,1819
1886,1939,1723
1846,1957,1865
1909,1939,1904
1889,1842,1815
1810,1794,1836
1855,1821,1920
1914,1920,1886
1886,1887,1805
1840,1773,1842
1866,1945,1927
1838,1891,1833
1825,1807,1792
1886,1871,1838
1920,1891,1887
1910,1903,1825
1828,1813,1814
1830,1855,1847
1872,1917,1875
1872,1851,1845
1926,1860,1807
2029,2103,1915
1963,1857,1881
1780,1744,1837
1771,1783,1812
1847,1786,1836
1856,2053,1876
1834,1917,1898
1805,1714,1813
1853,1776,1833
1905,1904,1930
1968,1974,1897
1862,1885,1799
1808,1778,1780
1872,1850,1905
1904,1999,1905
1879,2009,1765
1882,1771,1773
1852,1789,1847
1847,1806,1888
1917,1878,1868
1917,1962,1820
1865,1981,1914
1822,1881,1841
1856,1846,1805
1895,1856,1843
1903,1915,1881
1870,1941,1907
1871,1776,1852
1879,1823,1844
1859,1857,1791
1871,1913,1845
1847,1988,1879
1877,1828,1775
1954,1937,1811
1909,1779,1814
1808,1743,1785
1796,1955,1872
1887,2053,1943
1872,1692,1844
1834,1878,1840
1914,2107,1883
1825,1741,1891
1786,1634,1802
1805,1835,1785
1872,2156,1841
1993,1999,1869
1891,1707,1754
1739,1677,1776
1810,1840,1931
1861,1887,1897
1924,2070,1827
1865,1773,1798
1808,1849,1844
1871,1891,1927
1919,1918,1891
1831,1808,1770
1798,1820,1822
1869,1853,1875
1950,1883,1827
1843,1907,1792
1819,1873,1837
1818,1780,1855
1851,1776,1856
1910,2003,1824
1956,1962,1809
1883,1776,1841
1798,1749,1879
1854,1797,1855
1904,1870,1872
1890,1893,1856
1808,1883,1819
1820,1919,1798
1857,1687,1846
1903,1801,1851
1899,1827,1859
1861,1808,1837
1854,1905,1910
1862,1846,1941
1873,1807,1888
1919,1889,1873
1891,1834,1866
1935,1829,1761
1798,1850,1798
1803,1906,1835
1809,1843,1865
1847,1759,1882
1857,1861,1851
1879,1921,1835
1949,2103,1929
1931,1958,1927
1805,1719,1786
1783,1673,1776
1829,1671,1837
1867,1789,1902
1902,1887,1889
1886,1967,1873
1885,1877,1808
1983,1819,1855
1857,1840,1833
1793,1881,1872
1853,1902,1842
1875,1907,1856
1838,1808,1841
1859,1905,1899
1868,1791,1875
1871,1849,1840
1861,1888,1840
1937,2093,1929
1859,1840,1849
1811,1710,1855
1811,1741,1845
1853,1824,1808
1894,2023,1837
1965,2285,1955
1936,1926,1824
1805,1558,1811
1814,1535,1819
1858,1779,1886
1919,1839,1759
1874,1905,1818
1895,1923,1887
1905,1920,1933
1836,1888,1857
1805,1875,1795
1933,1921,1803
1922,1979,1872
1873,2092,1891
1872,1969,1872
1871,1799,1824
1893,1790,1840
1841,1737,1829
1827,1733,1779
1890,1891,1829
1918,1957,1906
1907,1868,1862
1841,1821,1831
1907,1956,1856
2018,1984,1918
1891,1881,1818
1791,1792,1791
1806,1818,1824
1884,1909,1875
1897,1841,1833
1947,1887,1826
1879,2089,1910
1857,1986,1904
1834,1761,1840
1831,1877,1819
1910,1887,1881
1958,1942,1885
1890,1886,1824
1827,1734,1817
1847,1827,1841
1963,1958,1937
1982,2186,1922
1888,1872,1804
1838,1642,1768
1870,1698,1856
1861,1939,1872
1873,1976,1834
1918,1876,1840
1951,1951,1875
1850,1921,1872
1775,1776,1823
1860,1823,1857
1919,1915,1879
1889,2021,1889
1902,1936,1840
1891,1831,1871
1858,1808,1843
1840,1879,1823
1875,1978,1856
1936,1969,1885
1909,1869,1934
1813,1780,1795
1878,1882,1808
1885,1840,1841
1866,1891,1901
1853,1945,1894
1871,1941,1845
1948,2000,1823
1925,1937,1847
1859,1774,1840
1786,1739,1821
1854,1999,1869
1931,1968,1874
1847,1722,1863
1840,1904,1874
1948,1995,1835
1854,1846,1822
1788,1751,1819
1841,1853,1833
1853,1951,1856
1861,1910,1904
1876,1997,1872
1845,1819,1795
1907,1808,1829
1979,1984,1879
1846,1938,1856
1808,1808,1792
1861,1888,1857
1872,1989,1879
1859,1904,1824
1872,1786,1807
1877,1847,1898
1887,1833,1904
1950,1989,1870
1849,1987,1872
1797,1718,1775
1855,1758,1855
1872,1917,1872
1867,1863,1827
1927,2079,1859
1901,1892,1855
1991,1709,1819
1857,1831,1877
1856,1973,1891
1850,1965,1856
1830,1905,1872
1894,1795,1850
1906,1833,1826
1829,1866,1874
1810,1954,1919
1874,1872,1870
1919,1963,1819
1913,1999,1842
1899,1683,1815
1834,1734,1839
1923,2007,1875
1890,1911,1847
1821,1759,1819
1835,1825,1818
1897,1948,1877
1887,2023,1924
1856,1857,1858
1786,1799,1831
1784,1953,1882
1870,2011,1868
1862,1927,1871
1840,1763,1825
1981,1988,1847
1983,2145,1858
1861,2019,1841
1759,1568,1765
1766,1631,1822
1904,2054,1923
1903,1904,1912
1808,1829,1793
1856,1863,1767
1904,1989,1851
1856,1808,1854
1823,1762,1838
1946,1975,1852
1991,1973,1900
1758,1750,1820
1741,1751,1776
1815,1827,1851
1947,2104,1899
1942,1981,1835
1827,1706,1830
1805,1744,1874
1851,1907,1904
1840,1857,1811
1835,1751,1785
1875,1933,1880
1929,2005,1881
1907,2115,1829
1878,1773,1789
1803,1680,1783
1829,1856,1883
1890,1985,1904
1858,1879,1845
1851,1857,1831
1891,1777,1808
1891,1866,1813
1835,1855,1862
1830,1942,1898
1879,1963,1895
1872,1898,1864
1841,1840,1808
1902,1870,1821
1872,1840,1855
1855,1904,1861
1906,1837,1850
1895,1776,1803
1870,1831,1872
1826,1865,1849
1854,1941,1861
1935,2138,1875
1907,1805,1872
1865,1722,1853
1840,1846,1840
1890,1898,1854
1917,1887,1885
1847,1793,1889
1911,2005,1840
1863,2157,1860
1831,1723,1873
1838,1725,1874
1853,1949,1837
1925,1958,1820
1898,1777,1889
1859,1727,1809
1827,1875,1793
1871,2127,1903
1914,2129,1926
1868,1752,1827
1904,1822,1795
1956,1904,1885
1926,1879,1874
1870,1765,1808
1872,1762,1805
1887,1875,1872
1887,2002,1926
1891,1985,1908
1951,1939,1822
1927,1950,1844
1835,1948,1914
1811,1869,1922
1849,1740,1805
1910,1841,1789
1917,1936,1881
1935,2187,1936
1847,1685,1809
1872,1590,1777
1889,1826,1859
1903,1931,1890
1848,1821,1831
1918,1879,1840
1963,2032,1904
1916,2011,1872
1799,1751,1792
1877,1818,1840
1969,1958,1873
1872,2018,1862
1765,1731,1901
1824,1746,1853
1870,1867,1856
1879,1988,1843
1859,1829,1793
1893,1843,1865
1953,2097,1969
1930,1924,1851
1855,1754,1727
1959,2128,1917
1944,1869,1859
1778,1699,1803
1744,1808,1822
1846,1857,1936
1934,2027,1939
1951,1942,1842
1809,1755,1749
1873,1859,1818
1907,1957,1897
1859,1819,1862
1830,1886,1829
1947,1968,1890
1957,1895,1904
1872,1759,1858
1807,1808,1788
1878,1996,1860
1889,1948,1866
1866,1787,1865
1852,1773,1846
1867,1878,1858
1943,2160,1921
1936,1878,1907
1847,1790,1813
1894,1830,1853
1968,2008,1847
1858,1899,1846
1759,1745,1861
1867,1788,1867
1936,1904,1877
1931,1980,1860
1935,1933,1879
1882,1910,1917
1861,2021,1926
1835,1968,1808
1835,1742,1780
1898,1778,1821
1905,1872,1878
1877,1846,1817
1872,1856,1790
1902,1979,1859
1904,1875,1904
1933,1856,1869
1935,2006,1857
1825,1911,1834
1797,1853,1850
1881,1700,1840
1879,1771,1875
1886,2000,1895
1921,1946,1878
1872,1933,1840
1845,1833,1837
1877,1899,1887
1946,1984,1903
1903,1961,1868
1863,1915,1812
1903,1901,1872
1934,2090,1909
1894,1761,1834
1840,1600,1814
1857,1703,1866
1936,1882,1918
1951,2003,1904
1840,2085,1869
1844,2000,1840
1846,1730,1871
1883,1824,1861
1857,1885,1819
1839,1749,1861
1887,1815,1865
1955,1794,1837
1890,1821,1810
1850,1909,1827
1910,2059,1933
1887,2030,1927
1899,1925,1824
1896,1924,1833
1959,1851,1877
1877,1823,1861
1833,2032,1874
1898,1885,1897
1883,1754,1904
1881,1875,1855
1873,1810,1849
1840,1831,1826
1879,1923,1870
1909,1936,1839
1868,1846,1777
1877,1890,1837
1923,1856,1893
1897,1852,1866
1903,1830,1827
1903,1826,1855
1936,2030,1905
1904,1903,1901
1813,1914,1882
1813,1783,1826
1893,1803,1854
1909,1957,1879
1856,1949,1853
1866,1776,1826
1883,1859,1870
1872,1883,1866
1863,1831,1846
1898,1854,1827
1951,1855,1871
1905,2115,1840
1843,1904,1851
1868,1904,1902
1905,1874,1859
1969,1750,1819
1901,1879,1847
1828,1869,1902
1870,1827,1858
1942,1808,1821
1917,1910,1839
1859,1937,1847
1875,1887,1870
1879,1861,1853
1876,1947,1823
1883,1958,1879
1903,1908,1903
1877,1866,1815
1854,1904,1841
1889,1959,1844
1903,1830,1897
1877,1791,1869
1856,1818,1835
1918,1900,1841
1961,1936,1904
1931,1849,1877
1888,1902,1841
1947,2101,1877
1873,1995,1851
1831,1707,1746
1814,1730,1786
1914,1919,1878
1935,1915,1909
1843,1797,1820
1901,1850,1839
1870,1858,1865
1882,1861,1885
1962,1936,1811
1857,1958,1822
1842,1905,1883
1904,1928,1981
1877,1826,1870
1842,1740,1766
1863,1917,1837
1904,1970,1885
1879,1920,1870
1838,1792,1815
1872,1969,1840
1952,2032,1962
1974,2059,1911
1938,1994,1853
1835,1626,1770
1825,1702,1822
1856,1817,1875
1872,1898,1898
1936,1895,1844
1918,1920,1830
1869,1880,1863
1876,1846,1821
1908,1846,1855
1922,1945,1902
1909,2063,1889
1814,1794,1851
1850,1844,1870
1874,1867,1874
1947,1978,1853
1920,1987,1824
1843,1840,1837
1824,1697,1862
1891,1968,1889
1901,1894,1861
1872,1868,1826
1906,1898,1818
1900,1877,1848
1901,1951,1840
1842,1859,1904
1930,1753,1843
1921,1808,1834
1922,1881,1847
1888,1903,1811
1897,1886,1840
1839,1806,1813
1825,1805,1841
1922,1932,1884
1958,2000,1906
1779,1857,1842
1771,1809,1819
1857,1969,1876
1909,1955,1872
1902,1984,1856
1920,1829,1821
1961,1898,1808
1945,1886,1909
1802,1873,1839
1881,1847,1799
1905,1762,1790
1840,1930,1904
1837,2003,1890
1861,1846,1809
1860,1823,1792
1853,1918,1841
1872,1843,1871
1862,1751,1835
1978,1894,1840
2094,1968,1894
1791,1867,1815
1739,1697,1795
1857,1936,1863
1922,1758,1855
1870,1787,1811
1856,1766,1858
1954,1917,1906
1941,2029,1897
1840,1984,1834
1841,1776,1792
1819,1731,1797
1877,1823,1847
1892,1776,1839
1904,1809,1850
1991,1982,1877
1974,1891,1873
1833,1873,1859
1731,1907,1814
1815,1801,1845
1856,1825,1833
1877,1878,1807
1875,1930,1844
1892,1941,1965
1872,1790,1867
1850,1747,1800
1873,1779,1789
1882,1926,1837
1919,2101,1911
1885,2026,1879
1861,1863,1799
1863,1691,1776
1899,1776,1846
1874,1859,1868
1822,1899,1815
1910,1970,1838
1999,1874,1875
1836,1806,1808
1827,1853,1808
1899,1971,1861
1917,1915,1922
1911,1760,1824
1840,1891,1803
1827,1881,1847
1856,1905,1872
1868,1847,1839
1882,1777,1792
1875,1904,1834
1897,1958,1904
1887,1979,1886
1861,1852,1774
1910,1767,1810
1884,1794,1878
1855,1803,1850
1863,1837,1827
1925,1938,1865
2005,1962,1915
1904,1939,1870
1830,1902,1831
1841,1849,1852
1873,1872,1898
1839,1893,1834
1856,1911,1856
1898,1899,1846
1904,1869,1798
1876,1857,1801
1851,1872,1805
1887,1887,1898
1919,1983,1957
1881,1839,1821
1857,1834,1803
1880,1795,1839
1936,1840,1950
1934,1867,1905
1911,1979,1809
1943,1914,1851
1949,1930,1902
1881,1911,1831
1729,1724,1798
1808,1818,1843
1898,2070,1884
1885,1949,1881
1840,1787,1802
1870,1795,1840
1911,1920,1886
1899,1894,1889
1873,1847,1837
1882,1862,1871
1914,1890,1872
1893,1911,1870
1870,1920,1823
1899,1870,1835
1949,1951,1899
1943,1991,1914
1847,1781,1831
1859,1793,1803
1858,1824,1885
1843,1878,1874
1869,1959,1857
1910,1939,1867
1893,1923,1904
1904,1953,1870
1895,1883,1841
1872,1770,1865
1845,1887,1883
1838,1846,1867
1893,1853,1857
1895,1938,1889
1910,2037,1908
1872,1824,1863
1871,1764,1822
1906,1799,1911
1950,1949,1911
1920,1961,1820
1885,1901,1781
1888,1820,1866
1904,1964,1920
1877,1929,1887
1829,1756,1822
1903,1842,1861
1893,1911,1920
1839,1901,1901
1840,1849,1844
1888,1883,1864
1925,1995,1899
1894,1823,1830
1899,1808,1782
1855,1913,1904
1990,1968,1949
1889,1872,1879
1805,1849,1835
1795,1842,1903
1877,1846,1877
1878,1949,1845
1857,1870,1803
1871,1805,1833
1883,1913,1877
1939,1952,1905
1861,1777,1834
1847,1843,1873
1889,1903,1936
1919,1893,1846
1835,1775,1783
1898,1936,1856
1920,1899,1910
1829,1919,1893
1843,1878,1843
1887,1744,1842
1851,1824,1853
1867,1883,1863
1888,1914,1840
1868,2064,1847
1878,1937,1867
1843,1705,1823
1873,1707,1790
1889,1809,1902
1877,1858,1934
1842,1894,1863
1827,1915,1807
1860,1914,1866
1941,1910,1932
1904,1809,1848
1808,1882,1769
1915,1973,1907
1877,2000,1914
1870,1776,1838
1883,1822,1823
1843,1769,1818
1861,1900,1872
1930,1961,1904
1865,1856,1831
1803,1907,1823
1810,1814,1858
1829,1856,1840
1858,1867,1804
1874,1844,1823
1887,1867,1917
1882,1835,1907
1876,1878,1794
1868,1971,1794
1877,1889,1847
1873,1867,1840
1807,1856,1792
1936,1947,1846
1891,1873,1901
1820,1735,1872
1807,1839,1807
1872,1890,1847
1830,1915,1890
1808,1878,1814
1814,1802,1827
1857,1886,1870
1943,1968,1914
1927,1813,1859
1840,1931,1776
1837,1917,1811
1860,1883,1865
1881,1869,1850
1902,1840,1831
1855,1821,1808
1858,1951,1817
1898,1823,1842
1888,1727,1808
1895,1825,1838
1865,1967,1872
1907,2091,1873
1804,1905,1883
1795,1819,1781
1837,1776,1821
1841,1807,1778
1887,1805,1827
1905,1839,1855
1893,1936,1865
1866,1937,1845
1808,1925,1766
1808,1877,1846
1855,1828,1879
1890,1970,1872
1856,1895,1851
1838,1738,1802
1879,1826,1839
1867,1825,1853
1872,1855,1854
1952,2086,1831
1968,1903,1817
1872,1755,1808
1892,1840,1785
1850,1937,1859
1854,1909,1937
1789,1755,1857
1801,1808,1808
1831,1877,1825
1857,1887,1911
1847,1904,1821
1870,1999,1893
1881,1921,1855
1870,1862,1831
1872,1826,1855
1862,1861,1840
1904,1867,1850
1951,1935,1861
1840,1917,1840
1779,1843,1828
1829,1839,1856
1904,1836,1842
1866,1840,1825
1840,1798,1827
1903,1904,1842
1999,1981,1826
1843,1964,1803
1766,1959,1822
1851,1943,1906
1899,1889,1855
1865,1745,1801
1833,1785,1806
1891,1875,1867
1891,1852,1902
1851,1847,1841
1839,1853,1791
1862,1887,1891
1879,1904,1869
1891,1968,1883
1899,1977,1821
1891,1923,1840
1856,1936,1872
1858,1861,1811
1839,1719,1805
1887,1772,1794
1873,1857,1885
1869,1950,1881
1843,1923,1853
1857,1866,1881
1893,1882,1877
1882,1879,1817
1854,1845,1856
1904,2047,1933
1883,1919,1811
1904,1703,1846
1878,1775,1823
1904,1852,1831
1872,1937,1872
1817,1934,1774
1827,1909,1852
1887,1953,1840
1886,1924,1872
1840,1677,1776
1915,1752,1853
1872,1935,1872
1873,1917,1891
1846,1821,1841
1864,1798,1811
1931,1891,1867
1904,1987,1872
1835,1905,1827
1814,1838,1821
1863,1840,1873
1936,1929,1890
1954,2026,1809
1866,1811,1809
1841,1805,1872
1866,1806,1934
1871,1851,1808
1906,1903,1818
1865,1952,1882
1809,1823,1861
1868,1869,1809
1889,1778,1799
1869,1835,1872
1877,1883,1884
1845,1936,1814
1840,1951,1822
1853,1835,1936
1935,1863,1846
1872,1923,1861
1802,1878,1819
1839,1791,1829
1889,1851,1850
1910,1897,1819
1915,1791,1765
1901,1811,1878
1808,1825,1874
1850,2003,1886
1855,1931,1872
1844,1760,1775
1903,1776,1845
1819,1840,1849
1840,1922,1868
1918,1913,1886
1883,1981,1879
1841,1903,1840
1904,1889,1825
1875,1780,1873
1857,1851,1879
1872,1786,1856
1856,1842,1838
1950,1948,1863
2004,1843,1874
1826,1805,1886
1775,1921,1803
1899,1920,1878
1854,1890,1886
1808,1927,1793
1827,1779,1808
1885,1814,1825
1895,1833,1831
1877,1878,1869
1845,1859,1843
1881,1818,1936
1917,1952,1838
1866,1962,1798
1811,1904,1812
1879,1910,1902
1955,1983,1951
1869,1723,1846
1840,1659,1866
1825,1824,1870
1837,1915,1842
1870,1968,1946
1871,1907,1837
1882,1839,1810
1856,1815,1862
1851,1924,1883
1861,1897,1843
1911,1793,1806
1883,1815,1833
1840,1854,1887
1878,1921,1847
1923,2023,1829
1890,1859,1840
1868,1805,1847
1798,1773,1806
1822,1799,1837
1856,1920,1891
1870,1904,1860
1887,1827,1824
1951,2000,1867
1851,1973,1894
1840,1892,1850
1845,1732,1807
1840,1766,1811
1850,1913,1802
1872,1921,1855
1831,1737,1822
1872,1764,1871
1915,1968,1887
1876,1904,1842
1839,1831,1805
1891,1950,1872
1926,2123,1895
1811,1727,1840
1785,1712,1775
1902,1876,1877
1907,1859,1869
1853,1868,1845
1878,2031,1882
1920,1936,1856
1840,1742,1879
1795,1718,1819
1842,1811,1774
1897,1906,1837
1984,1962,1872
1840,1973,1815
1815,1840,1863
1891,1946,1873
1942,2085,1882
1868,1757,1785
1808,1652,1789
1871,1783,1859
1930,1923,1875
1889,1893,1837
1821,1858,1808
1847,1886,1857
1873,1892,1886
1892,1878,1858
1861,1901,1831
1953,2032,1902
1945,1947,1920
1841,1725,1776
1813,1717,1723
1837,1807,1827
1914,1904,1899
1877,1929,1830
1835,2000,1799
1844,1943,1895
1879,2034,1937
1847,1821,1842
1840,1718,1769
1883,1786,1817
1920,1851,1849
1830,1873,1872
1856,1889,1904
1913,1918,1922
1933,1929,1830
1888,1835,1786
1837,1839,1809
1968,2105,1923
1883,2028,1957
1814,1712,1783
1769,1678,1731
1839,1863,1840
1926,1927,1911
1877,1913,1908
1837,1841,1847
1861,1874,1828
1876,1851,1890
1906,1983,1855
1847,1943,1806
1855,1905,1850
1904,1811,1849
1881,1773,1827
1863,1789,1819
1897,1926,1858
1953,1904,1878
1845,1857,1858
1829,1929,1855
1867,1949,1918
1918,2073,1946
1865,1977,1849
1865,1699,1749
1815,1646,1781
1857,1838,1906
1861,1856,1904
1847,1810,1827
1903,1909,1865
1926,1971,1902
1886,2018,1852
1850,1922,1822
1927,1937,1827
1938,2039,1866
1836,1888,1860
1810,1712,1805
1834,1779,1839
1881,1885,1856
1867,1837,1886
1838,1871,1856
1869,1895,1856
1922,1965,1879
1886,1993,1847
1869,1922,1822
1875,1857,1829
1891,1792,1856
1847,1776,1863
1868,1826,1870
1898,1918,1899
1936,1973,1876
2038,2106,1826
1872,1901,1824
1776,1710,1846
1811,1712,1871
1858,1887,1881
1918,1977,1867
1843,1914,1815
1846,1842,1840
1841,1815,1852
1860,1847,1836
1904,1941,1871
1921,1949,1908
1904,1937,1846
1890,1779,1786
1897,1957,1856
1903,1983,1883
1830,1818,1839
1867,1888,1859
1974,2078,1904
1943,1872,1895
1789,1745,1789
1792,1771,1761
1861,1833,1831
1888,1883,1855
1883,1893,1885
1871,1884,1867
1893,2014,1830
1893,1886,1821
1879,1813,1835
1901,1920,1854
1894,1931,1874
1872,1856,1845
1835,1779,1818
1862,1841,1840
1904,1942,1862
1941,2000,1897
1929,1847,1829
1819,1818,1877
1922,1883,1872
1890,1927,1834
1832,1807,1810
1841,1807,1821
1905,1867,1874
1957,2082,1916
1947,2113,1882
1823,1762,1730
1795,1655,1772
1840,1804,1899
1872,1875,1921
1947,1899,1893
1915,1930,1797
1888,1840,1792
1861,1846,1822
1855,1859,1839
1872,1824,1870
1899,1886,1887
1875,1979,1889
1867,2046,1869
1858,1927,1826
1867,1770,1852
1872,1756,1843
1858,1823,1865
1889,1826,1872
1921,2043,1895
1909,1971,1860
1872,1834,1846
1904,1849,1828
1893,1854,1823
1861,1838,1805
1870,1907,1835
1926,1947,1901
1897,1830,1872
1850,1819,1819
1872,1951,1838
1873,1937,1938
1891,1796,1877
1865,1865,1834
1843,1968,1839
1922,1886,1881
1914,1828,1867
1895,1905,1854
1840,1909,1813
1874,1876,1840
1898,2037,1887
1840,1767,1799
1867,1793,1793
1937,1998,1893
1917,1879,1840
1847,1744,1803
1861,1823,1803
1910,1915,1851
1949,2032,1936
1904,1903,1921
1840,1755,1823
1851,1820,1869
1858,1935,1863
1877,1938,1851
1862,1889,1818
1894,1901,1851
1874,1971,1874
1843,1914,1871
1852,1692,1826
1891,1808,1854
1933,1985,1875
1877,1996,1856
1873,1836,1841
1885,1808,1843
1909,1902,1867
1921,1873,1866
1915,1789,1817
2014,1791,1858
1899,1856,1893
1807,1971,1883
1936,1909,1807
1835,1801,1845
1806,1840,1856
1827,1931,1849
1859,1935,1861
1866,1841,1843
1893,1856,1881
1862,1935,1847
1865,1904,1811
1865,1845,1840
1868,1792,1840
1902,1907,1862
1895,1881,1847
1922,1897,1856
1951,1888,1887
1852,1826,1882
1829,1920,1867
1904,2079,1863
1902,1809,1823
1824,1791,1808
1852,1791,1857
1875,1824,1856
1872,1871,1885
1842,1893,1879
1875,2027,1865
1904,1957,1840
1871,1899,1846
1871,1716,1833
1873,1726,1834
1911,1897,1859
1875,1962,1897
1908,1879,1863
1856,1835,1874
1875,2001,1872
1850,1910,1840
1887,1991,1847
1936,1907,1819
1856,1734,1841
1849,1767,1875
1847,1889,1879
1884,2061,1873
1918,1873,1839
1877,1691,1833
1878,1810,1803
1869,1979,1851
1873,1925,1907
1859,1766,1865
1899,1750,1826
1835,1843,1841
1851,1911,1874
1891,1931,1869
1873,1916,1859
1871,1986,1857
1904,2090,1856
1886,1831,1822
1838,1713,1808
1840,1744,1819
1869,1886,1856
1878,1904,1883
1885,1891,1895
1904,1917,1872
1869,1917,1877
1859,1841,1794
1866,1759,1759
1870,1776,1799
1885,1954,1858
1972,2061,1890
1922,1775,1842
1839,1734,1778
1790,1859,1856
1807,2000,1919
1871,1979,1863
1916,1970,1821
1917,1827,1857
1840,1687,1837
1799,1760,1809
1824,1911,1815
1871,1919,1841
1903,1942,1904
1897,2033,1875
1884,1851,1818
1921,1887,1886
1891,1779,1815
1866,1769,1773
1843,1773,1798
1878,1937,1886
1954,1870,1911
1904,1963,1835
1856,1866,1787
1856,1842,1867
1832,1835,1893
1827,1904,1870
1856,1967,1849
1904,1921,1866
1901,1799,1818
1853,1762,1783
1813,1884,1813
1872,1949,1904
1899,1872,1890
1881,1931,1855
1871,1946,1866
1876,1859,1825
1871,1918,1838
1890,1902,1820
1858,1891,1849
1869,1830,1871
