1891,1861,1813
1883,1835,1819
1872,1818,1856
1901,1822,1845
1883,1849,1843
1887,1904,1915
1875,1927,1832
1886,1828,1815
1907,1903,1878
1870,1919,1886
1837,1760,1831
1859,1795,1839
1866,1907,1843
1876,1870,1821
1882,1851,1856
1879,1888,1840
1921,1946,1942
1873,1818,1906
1828,1773,1789
1851,1835,1808
1897,1975,1893
1927,2026,1904
1841,1728,1791
1869,1711,1793
1893,1840,1996
1887,1923,1867
1856,1890,1851
1891,1775,1802
1936,1920,1881
1856,1895,1796
1842,1887,1827
1899,1857,1798
1923,1791,1839
1863,1803,1871
1807,1798,1845
1838,1818,1872
1898,1939,1883
1917,1898,1872
1977,1968,1933
1882,1929,1824
1829,1762,1776
1853,1760,1856
1856,1795,1872
1887,1843,1845
1925,1995,1868
1945,1872,1850
1886,1811,1776
1823,1766,1855
1863,1843,1872
1913,1920,1862
1856,1856,1840
1840,1808,1794
1904,1889,1903
1950,2026,1943
1932,1861,1839
1869,1803,1820
1886,1887,1849
1866,2010,1914
1834,1759,1785
1855,1762,1794
1895,1840,1966
1927,1897,1897
1853,1821,1719
1834,1822,1635
1916,1904,1872
1927,1935,1920
1954,1827,1827
1888,1927,1808
1874,2054,1888
1846,1790,1827
1805,1797,1806
1872,1922,1867
1967,1856,1911
1914,1857,1859
1827,1907,1854
1804,1797,1778
1862,1744,1807
1936,1959,1874
1855,1796,1843
1815,1763,1800
1887,1840,1883
1998,1907,1904
1887,1930,1802
1783,1917,1803
1843,1935,1903
1860,1844,1868
1869,1712,1839
1870,1776,1835
1867,1889,1874
1901,1936,1818
1869,1829,1853
1896,1836,1802
1933,1968,1943
1843,1898,1881
1911,1895,1858
1852,1744,1808
1862,1847,1862
1862,1840,1862
1873,1859,1831
1837,1853,1805
1906,2070,1962
1879,1779,1899
1821,1649,1775
1852,1898,1839
1907,1993,1915
1902,1865,1839
1858,1738,1755
1872,1840,1797
1897,1936,1883
1875,1904,1914
1841,1782,1823
1840,1741,1839
1873,1863,1926
1925,1963,2087
1903,1937,1805
1844,1774,1702
1901,1783,1811
1886,1869,1894
1861,1872,1895
1869,1779,1867
1920,1829,1822
1867,1929,1812
1778,1840,1812
1827,1891,1855
1882,1769,1883
1867,1857,1898
1838,1826,1859
1873,1887,1822
1993,1867,1854
1858,2025,1851
1846,1925,1837
1842,1744,1836
1879,1665,1859
1867,1789,1825
1890,1857,1858
1915,1900,1933
1940,1861,1946
1885,1981,1872
1782,1703,1707
1821,1730,1791
1904,1844,1887
2014,1825,1895
1869,1817,1803
1841,1886,1809
1794,1903,1875
1896,1855,1901
1869,1846,1875
1833,1837,1889
1903,1904,1951
1843,1822,1837
1827,1815,1791
1872,1840,1803
1855,1814,1844
1851,1836,1851
1857,1870,1838
1937,1879,1829
1903,1909,1869
2004,1893,1975
1860,1858,1881
1818,1794,1744
1918,1752,1794
1830,1855,1891
1859,1810,1865
1865,1936,1879
1919,1858,1821
1854,1869,1819
1806,1845,1829
1841,1846,1850
1959,1851,1948
1973,2042,1919
1878,1859,1840
1783,1739,1817
1862,1846,1875
1896,1974,1935
1918,1933,1858
1833,1872,1776
1888,1803,1889
1898,1851,1904
1859,1757,1792
1891,2004,1840
1890,2075,1841
1840,1699,1829
1790,1689,1811
1872,1854,1871
1920,2017,1958
1827,1886,1904
1773,1787,1790
1807,1783,1807
1943,1904,1911
1893,1943,1906
1883,1936,1808
1840,1868,1767
1921,1860,1872
1882,1862,1935
1904,1872,1822
1872,1984,1823
1892,2127,1909
1822,1658,1859
1798,1635,1743
1818,1807,1788
1916,1926,1851
1948,1913,1892
1969,1888,1891
1802,1909,1846
1840,1909,1840
1877,1978,1874
1851,1831,1791
1895,1855,1818
1887,1968,1840
1872,1922,1849
1812,1838,1853
1831,1834,1861
1935,1877,1916
1886,1914,1956
1867,1886,1836
1801,1911,1807
1926,1936,1825
1904,1935,1917
1897,1995,1838
1856,1827,1762
1853,1814,1823
1808,1835,1866
1872,1893,1872
1893,1969,1903
1899,1973,1883
1842,1922,1833
1819,1831,1803
1869,1830,1806
1975,1881,1834
1953,1968,1882
1897,1945,1909
1815,1891,1943
1859,1923,1887
1938,1999,1904
1841,1883,1841
1902,1916,1804
1883,1862,1830
1913,1925,1862
1883,1872,1837
1883,1818,1820
1940,1858,1878
1940,1910,1891
1817,1936,1840
1879,2006,1800
1871,1952,1872
1906,1861,1887
1754,1856,1867
1845,1876,1869
1931,2043,1920
1923,1869,1855
1915,1770,1809
1899,1773,1848
1905,1882,1879
1883,2055,1871
1858,1969,1834
1900,1883,1878
1805,1903,1919
1875,1863,1805
1821,1870,1785
1927,1972,1835
1891,1905,1900
1891,2013,1910
1793,1835,1866
1893,1856,1805
1893,1897,1843
1842,1865,1843
1814,1903,1840
1871,1905,1874
1894,1919,1893
1915,1929,1867
1847,2019,1872
1862,1873,1824
1869,1885,1847
1871,1868,1840
1857,1860,1795
1874,1949,1825
1990,2095,1947
1913,1868,1920
1823,1708,1760
1805,1821,1775
1855,1874,1865
1769,1937,1887
1898,2000,1850
1855,1879,1834
1961,2000,1920
1843,2108,1904
1830,1748,1786
1822,1762,1781
1885,1876,1881
1902,1954,1870
1830,1875,1846
1858,1872,1867
1893,1944,1904
1879,1966,1836
1868,1982,1791
1874,1823,1778
1925,1897,1882
1890,2032,1919
1795,1872,1851
1822,1833,1840
1892,1839,1876
1882,1907,1855
1840,1904,1802
1865,1982,1855
1957,1939,1930
1847,1862,1905
1791,1935,1812
1855,1920,1763
1913,1936,1875
1875,1905,1862
1840,1879,1823
1875,1932,1879
1902,1943,1890
1889,1872,1863
1839,1847,1831
1841,1937,1872
1931,2007,1935
1906,1946,1875
1822,1767,1712
1807,1748,1817
1865,1933,1900
1895,1964,1895
1854,1915,1831
1889,1936,1901
1920,2140,1902
1892,1874,1840
1851,1723,1823
1839,1819,1811
1847,1947,1867
1895,1940,1888
1882,1961,1893
1910,1978,1839
1938,1795,1809
1886,1885,1869
1847,1934,1871
1814,1840,1823
1853,1893,1847
1867,1922,1863
1841,1847,1807
1856,1886,1824
1884,1917,1856
1905,1987,1881
1930,2079,1904
1906,1872,1857
1921,1863,1829
1863,1900,1852
1797,1790,1845
1898,1805,1855
1877,1892,1893
1872,2067,1953
1841,1907,1792
1857,1813,1802
1929,1831,1861
1901,1920,1899
1873,2058,1862
1863,1937,1867
1899,1841,1886
1872,1818,1823
1877,1857,1787
1968,2070,1913
1911,1997,1856
1840,1808,1826
1822,1744,1805
1854,1834,1818
1874,2017,1902
1872,1905,1878
1847,1851,1840
1872,1936,1867
1915,1898,1889
1909,1859,1856
1883,1993,1877
1873,1978,1848
1933,1965,1894
1905,1840,1920
1840,1824,1917
1945,1841,1830
1877,1879,1843
1873,2006,1927
1850,1902,1864
1906,1871,1819
1872,1897,1836
1861,1953,1908
1871,1872,1904
1871,1936,1889
1909,1905,1897
1914,1890,1839
1855,1861,1836
1863,1959,1891
1902,1987,1899
1915,1927,1841
1853,1821,1778
1866,1950,1865
1929,1963,1906
1900,1791,1863
1841,1838,1805
1913,1934,1840
1962,1985,1962
1915,1931,1961
1828,1887,1764
1845,1969,1802
1939,1930,1930
1899,1937,1904
1853,1906,1861
1888,1966,1825
1950,1808,1839
1934,1827,1857
1858,1967,1809
1839,1968,1852
1872,1908,1894
1959,1986,1927
1941,1858,1845
1919,1875,1872
1869,1840,1868
1875,1927,1883
1862,1894,1829
1901,1871,1801
1927,1985,1872
1902,1977,1872
1872,1906,1867
1925,1921,1847
1906,1843,1851
1893,1821,1862
1883,1891,1834
1925,1869,1881
1967,1935,1933
1910,1893,1886
1874,1921,1886
1955,1967,1840
1936,1909,1834
1877,1907,1829
1866,1873,1802
1889,1776,1821
1964,2032,1911
1991,2097,1869
1898,1739,1778
1873,1803,1867
1872,1847,1925
1892,1813,1839
1925,1905,1805
1904,2088,1843
1907,1927,1867
1901,1837,1861
1895,1815,1794
1904,1979,1843
1955,1898,1913
1959,1963,1901
1855,1794,1804
1853,1792,1814
1941,1927,1872
1953,2002,1920
1922,1972,1866
1926,1862,1889
1920,1943,1834
1921,2075,1866
1898,1968,1853
1908,1781,1863
1969,1793,1840
1968,1873,1882
1904,1982,1840
1900,1922,1808
1986,1774,1892
2010,1919,1963
1900,2021,1845
1845,2097,1819
1887,1861,1866
1925,1792,1890
1950,1839,1855
1931,1914,1854
1968,2019,1951
1948,1983,1953
1899,2032,1831
1946,1830,1839
1951,1878,1874
1946,2019,1953
1934,1955,1840
1951,1829,1801
1994,1962,1903
1918,1975,1895
1851,1866,1822
1886,1916,1811
1938,1918,1914
1953,1985,1968
1911,2022,1934
1891,1885,1773
1972,1962,1840
1987,2147,1915
1869,1873,1843
1911,1818,1854
2026,2000,1918
1980,1949,1934
1862,1904,1887
1867,1922,1837
1936,1986,1872
1951,1909,1879
1906,2010,1869
1886,2017,1840
1912,1976,1851
1920,1935,1872
1885,1968,1910
1881,1920,1858
1929,1831,1883
1971,1937,1845
1934,1841,1793
1871,1806,1814
1922,2010,1901
1943,2000,1922
1895,1957,1863
1882,1854,1779
1947,2076,1854
1945,1925,1891
1900,1775,1807
1904,1793,1821
1907,2000,1895
1895,1985,1885
1889,1889,1857
1887,1995,1879
1927,1954,1894
1922,1930,1904
1885,1962,1818
1883,1872,1785
1909,1969,1863
1901,1989,1885
1861,1935,1829
1875,1834,1819
1922,1884,1874
1925,1937,1853
1884,1978,1833
1870,1985,1865
1936,1947,1905
1955,2065,1872
1854,1935,1801
1821,1790,1766
1920,1908,1853
1936,2017,1855
1871,1856,1840
1865,1808,1827
1903,1950,1862
1890,1978,1859
1855,1944,1814
1872,2011,1872
1919,1983,1860
1927,1885,1834
1872,1832,1808
1872,1877,1837
1930,1990,1895
1954,2038,1870
1919,1829,1776
1843,1886,1806
1911,1931,1910
1913,1916,1890
1809,1915,1776
1806,2000,1820
1904,1910,1879
1913,1872,1841
1929,1873,1766
1819,1919,1830
1855,1904,1947
1902,1879,2006
1827,1966,1799
1834,1959,1769
1878,1886,1793
1919,1883,1824
1833,1855,1797
1828,1914,1813
1904,1998,1884
1906,1943,1882
1858,1861,1777
1874,1911,1762
1850,1927,1913
1857,1893,1904
1823,1916,1781
1827,1957,1818
1871,1866,1819
1891,1866,1842
1865,1822,1798
1822,1920,1776
1879,1982,1861
1904,1955,1867
1847,1849,1789
1831,1778,1774
1885,1936,1859
1904,1927,1871
1885,1891,1779
1849,1921,1879
1904,1909,1855
1923,1854,1791
1840,1913,1776
1798,1982,1763
1858,1894,1847
1858,1847,1857
1860,1853,1815
1855,1904,1815
1893,1984,1881
1871,1867,1834
1835,1811,1767
1840,1909,1793
1892,1906,1858
1920,1936,1855
1835,1828,1815
1837,1903,1811
1899,2000,1853
1905,1893,1869
1859,1881,1787
1856,1875,1823
1904,1866,1861
1897,1886,1837
1779,1881,1814
1775,1885,1808
1852,1869,1855
1872,1925,1844
1840,1891,1854
1847,1872,1803
1889,1934,1843
1899,1969,1847
1841,1829,1835
1840,1840,1814
1895,1925,1898
1929,1881,1834
1839,1834,1778
1856,1902,1817
1900,1968,1937
1858,1936,1857
1827,1799,1771
1810,1843,1789
1881,2000,1904
1879,1902,1857
1829,1836,1798
1862,1862,1839
1894,1953,1890
1875,1917,1881
1853,1856,1751
1843,1796,1743
1863,1936,1840
1867,1935,1873
1834,1799,1823
1860,1787,1875
1907,1904,1890
1874,1943,1807
1853,1865,1757
1855,1859,1808
1870,1942,1873
1872,1935,1865
1839,1859,1807
1841,1869,1815
1902,1925,1866
1912,1961,1872
1849,1791,1811
1840,1810,1813
1898,1910,1889
1904,1931,1871
1855,1909,1819
1866,1904,1837
1921,1946,1975
1895,1856,1904
1827,1779,1727
1839,1824,1749
1907,1920,1862
1904,1891,1875
1858,1858,1835
1868,1890,1835
1914,1931,1872
1917,2013,1897
1845,1791,1812
1846,1772,1826
1919,1877,1927
1915,1926,1876
1856,1894,1803
1863,1913,1815
1911,1820,1872
1920,1808,1901
1873,1808,1843
1887,1853,1942
1952,1968,2001
1962,1984,1849
1876,1749,1754
1887,1754,1814
1959,1859,1907
1968,1894,1906
1936,1866,1850
1959,1911,1914
2032,1995,1947
2003,1794,1898
1945,1683,1808
1974,1744,1840
2086,1847,1937
2124,1926,1936
2095,1850,1862
2132,1818,1879
2238,1872,1939
2259,1872,1919
2233,1843,1858
2266,1873,1876
2352,1786,1936
2358,1804,1919
2311,1843,1849
2339,1859,1868
2420,1878,1927
2416,1831,1934
2377,1793,1875
2383,1811,1880
2453,1859,1937
2457,1818,2058
2390,1797,1859
2384,1722,1777
2465,1847,1879
2491,1844,1936
2431,1737,1884
2423,1752,1855
2479,1788,1902
2483,1783,1917
2439,1753,1927
2455,1825,1931
2481,1829,1873
2480,1779,1861
2433,1712,1839
2454,1753,1881
2528,1831,1947
2512,1826,1911
2433,1808,1835
2457,1902,1907
2511,1758,1947
2495,1721,1923
2429,1724,1845
2432,1763,1861
2503,1840,1936
2506,1853,1936
2426,1785,1872
2418,1799,1887
2480,1809,1941
2476,1797,1921
2414,1783,1856
2401,1771,1874
2468,1824,1936
2511,1918,2045
2430,1991,1968
2355,1668,1793
2407,1701,1828
2417,1750,1872
2373,1717,1856
2384,1853,1882
2443,1919,1967
2460,2035,1996
2394,1851,1986
2320,1600,1803
2384,1701,1831
2403,1809,1904
2343,1806,1840
2351,1847,1874
2433,1902,1970
2508,2074,1956
2341,1809,1925
2246,1646,1893
2339,1773,1936
2339,1853,1890
2298,1784,1841
2359,1989,1962
2395,1920,1905
2361,1764,1897
2301,1715,1836
2337,1769,1879
2385,1872,1905
2431,1875,1936
2343,1780,1883
2308,1822,1835
2301,1947,1938
2288,1930,1911
2256,1813,1879
2391,1735,1874
2338,1870,1936
2259,1950,1946
2186,1811,1829
2213,1801,1840
2295,1875,1919
2299,1872,1915
2221,1819,1852
2224,1881,1920
2315,1985,1915
2277,1967,1882
2181,1776,1853
2175,1747,1840
2271,1921,1919
2272,1936,1897
2138,1845,1879
2185,1840,1931
2240,1962,1908
2231,1982,1859
2141,1856,1840
2135,1728,1860
2210,1825,1915
2215,1918,1875
2122,1911,1791
2118,1871,1808
2182,1962,1989
2160,1934,1917
2089,1840,1830
2096,1831,1805
2173,1943,1865
2192,1999,1959
2074,1950,1872
2066,1911,1843
2117,1849,1863
2139,2023,1917
2059,1930,1874
2131,1815,1791
2126,1917,1949
2108,2046,1971
2033,1977,1856
2032,1886,1867
2121,1854,2096
2158,2066,1951
2000,1952,1712
1973,1863,1770
2083,2018,1883
2080,1905,1904
2000,1831,1806
2016,1914,1869
2079,1938,1890
2079,2017,1905
1995,2023,1870
1976,1793,1863
2038,1818,1808
2027,1925,1820
1945,1911,1856
1950,1876,1929
2022,1999,1863
2119,2047,1850
1901,1927,1761
1861,1843,1782
1946,1760,1840
1972,1858,1773
1919,1991,1886
1888,1862,1910
2035,1891,1824
1941,1962,1811
1838,1892,1776
1857,1973,1799
1951,1963,1894
1958,1925,1874
1898,1811,1794
1854,1823,1793
1913,1968,1930
1905,1981,1837
1856,1834,1774
1843,1828,1782
1926,1869,1840
1885,1914,1852
1803,1857,1778
1819,1904,1788
1918,2035,2012
1882,2054,1795
1785,1872,1680
1781,1846,1698
1840,1851,1817
1855,1877,1868
1797,1888,1789
1847,1885,1829
1881,1927,1867
1789,2034,1766
1730,1840,1680
1744,1741,1719
1842,1834,1786
1837,1977,1759
1761,1834,1754
1769,1824,1805
1805,1967,1738
1749,1962,1722
1698,1808,1654
1709,1708,1691
1774,1833,1733
1782,1978,1821
1726,1824,1770
1715,1756,1682
1746,1840,1659
1808,1902,1719
1764,1791,1651
1667,1723,1680
1637,1826,1727
1649,1831,1744
1642,1798,1675
1654,1722,1679
1708,1868,1737
1709,1849,1707
1693,1829,1797
1680,1737,1762
1738,1744,1741
1746,1795,1699
1653,1733,1615
1645,1793,1696
1717,1799,1757
1742,1807,1777
1731,1782,1728
1763,1869,1856
1690,2000,1742
1588,1856,1655
1595,1648,1633
1641,1639,1690
1713,1805,1792
1703,1818,1808
1640,1763,1728
1661,1757,1695
1683,1903,1759
1675,1825,1733
1633,1674,1691
1647,1771,1744
1681,1750,1774
1677,1745,1759
1678,1842,1855
1694,1923,1782
1661,1660,1630
1664,1658,1664
1629,1692,1695
1710,1755,1742
1703,1808,1770
1663,1799,1801
1637,1764,1761
1653,1773,1739
1706,1808,1809
1728,1774,1814
1678,1718,1757
1680,1754,1762
1738,1840,1826
1737,1821,1827
1678,1722,1754
1669,1686,1740
1707,1823,1815
1713,1827,1840
1665,1793,1787
1659,1762,1789
1652,1775,1808
1743,1808,1840
1684,1818,1825
1739,1948,1831
1731,1654,1814
1692,1602,1797
1761,1709,1842
1805,1695,1879
1735,1744,1822
1664,1762,1776
1664,1696,1757
1747,1743,1807
1722,1753,1885
1748,1712,1842
1669,1663,1792
1693,1683,1783
1751,1742,1854
1795,1729,1872
1744,1616,1830
1907,1726,1958
1885,1666,2030
1718,1614,1858
1616,1574,1703
1758,1595,1847
1977,1729,2045
1872,1627,1997
1665,1665,1712
1623,1557,1673
1765,1600,1831
1872,1574,1864
1718,1616,1791
1863,1604,1867
2375,1859,2259
2359,1936,2288
1575,1329,1613
1453,1218,1520
1787,1479,1824
1904,1665,1903
1750,1461,1731
1813,1636,1789
1953,1520,1881
1840,1427,1742
1709,1383,1594
1935,1515,1793
2107,1633,2001
1891,1535,1682
1799,1499,1601
1847,1463,1664
1854,1587,1653
1819,1520,1535
1895,1535,1607
1835,1390,1600
1967,1625,1776
2041,1747,1806
1619,1252,1354
1636,1238,1413
2032,1520,1772
1933,1477,1645
1628,1349,1314
1661,1345,1323
1617,1395,1419
1747,1461,1472
1772,1447,1498
1687,1409,1456
1741,1455,1482
1778,1402,1497
1861,1374,1530
1963,1498,1566
1778,1446,1446
1509,1353,1328
1579,1347,1333
1682,1394,1363
1714,1465,1391
1737,1479,1361
1712,1439,1317
1898,1509,1414
1868,1520,1360
1607,1514,1235
1670,1697,1249
1670,1520,1243
1729,1137,1235
1763,1232,1206
1727,1343,1174
1775,1463,1237
2028,2141,1386
1883,1441,1271
1477,1053,1168
1745,1229,872
2106,1488,752
1795,1856,1056
1707,1968,1119
1615,1279,931
1632,1031,959
2463,1739,916
2485,1779,560
1332,1162,891
1111,1481,1168
1470,1923,1275
1762,1916,1198
2208,1014,579
1972,1072,473
1372,1426,1008
1323,1891,1321
1510,1911,1119
1619,1312,721
1718,1216,839
1744,1452,864
1602,1406,1009
1590,1929,1223
1630,1895,946
1685,1253,705
1406,1326,1097
1680,1695,1265
1803,1935,1086
1341,1904,1337
1307,1694,1280
1463,1686,914
1770,1710,944
1498,1963,1147
1373,2138,1377
1387,2112,1399
1308,1839,1359
1362,2159,1489
1633,2001,1403
1503,2075,1397
1431,2229,1567
1535,2293,1770
1526,2599,1825
1271,2353,1581
1263,2228,1643
1217,2338,1695
1245,2448,1722
1357,2405,1753
1334,2544,1904
1246,2531,1773
1274,2800,1822
1208,2295,1744
1112,2333,1876
1141,2375,1850
1151,2438,1851
1152,2473,1892
1306,2608,1914
1266,2627,1862
1230,2500,1898
1230,2343,1879
1270,2269,1936
1184,2384,1909
1264,2463,1887
1392,2442,1997
1244,2627,2032
1011,2427,1971
1323,2304,2001
1504,2352,2025
1274,2458,2016
1096,2390,1935
1136,2406,1940
1342,2490,1977
1213,2473,2098
1197,2416,2053
1265,2257,1958
1248,2183,1993
1229,2256,2015
1261,2342,2019
1342,2608,2089
1348,2397,2071
1394,2165,2062
1280,2146,2121
1214,2258,2043
1356,2368,2054
1367,2244,2039
1262,2202,2062
1333,2262,2082
1573,2289,2144
1382,2159,2061
1246,2380,2096
1276,2311,2096
1413,2191,2080
1403,2176,2070
1378,2135,2141
1363,2166,2153
1453,2301,2150
1408,2242,2119
1375,2128,2045
1415,2239,2083
1462,2118,2143
1503,2143,2151
1495,2240,2159
1442,2163,2153
1456,2081,2112
1456,2119,2118
1443,2131,2103
1487,2340,2187
1653,2178,2166
1559,2032,2135
1361,2058,2116
1409,2095,2114
1509,2144,2149
1553,2146,2148
1535,2070,2113
1535,2320,2208
1643,2081,2187
1649,1989,2130
1466,2000,2113
1453,2079,2143
1567,2170,2212
1600,2208,2179
1629,2047,2143
1616,1999,2230
1743,2170,2130
1535,2092,2143
1483,1946,2115
1559,1978,2145
1654,2118,2199
1723,2091,2255
1653,2037,2250
1607,2045,2235
1616,2096,2288
1618,2031,2283
1616,1921,2304
1637,1987,2367
1747,2102,2437
1711,2016,2503
1585,1978,2559
1585,1946,2494
1707,1975,2469
1715,2031,2538
1651,1982,2559
1648,1979,2618
1697,2054,2657
1715,1984,2619
1617,1922,2627
1643,1925,2706
1695,1945,2679
1721,1925,2631
1670,1873,2559
1697,1840,2611
1722,1974,2748
1702,1953,2689
1714,1911,2651
1798,1871,2613
1698,1791,2559
1654,1834,2627
1677,1889,2618
1712,1845,2593
1744,1904,2685
1729,1869,2661
1717,1914,2591
1761,1897,2557
1814,1835,2655
1771,1935,2665
1707,1810,2495
1744,1853,2501
1806,1844,2548
1776,1870,2590
1744,1806,2523
1881,1953,2502
1984,1789,2528
1790,1778,2534
1638,1784,2535
1680,1774,2487
1808,1857,2476
1843,1886,2469
1858,1972,2448
1776,1726,2416
1782,1725,2479
1808,1793,2401
1819,1808,2343
1869,1988,2397
1872,1970,2434
1873,1869,2432
1819,1690,2405
1823,1669,2362
1935,1814,2291
1953,1885,2315
1819,1813,2291
1760,1775,2325
1841,1904,2353
1922,1935,2352
1884,1830,2252
1840,1776,2272
1872,1822,2301
1936,2025,2323
1906,1843,2224
1859,1797,2183
1942,1811,2286
1904,1817,2237
1855,1803,2171
1889,1886,2210
1940,1921,2240
1919,1808,2210
1901,1698,2143
1870,1789,2159
1925,1884,2191
1995,1856,2160
1907,1858,2142
1887,1904,2147
1984,2017,2179
1963,1767,2122
1920,1659,2020
1917,1757,2061
1984,1911,2149
1920,1920,2178
1887,1883,2045
1934,1772,1994
1961,1842,2059
1952,2019,2121
1921,1774,2038
1921,1722,2031
1985,1805,2064
1969,1803,2042
1915,1895,2019
1958,1851,1975
2005,1878,2015
2034,1803,2028
1959,1758,1963
1897,1773,1958
1936,1936,1965
2000,1921,1983
2035,1859,1967
1951,1730,1963
1923,1973,1952
1938,1899,1919
1930,1781,1882
2027,1888,1920
2053,1903,1949
1977,1910,1943
1920,1757,1867
1946,1771,1831
2058,1913,1943
1975,1845,1918
1915,1789,1859
1938,1799,1875
1985,1889,1904
2042,1968,1882
1969,1887,1841
1908,1667,1848
1961,1762,1937
2111,1930,1967
2054,1799,1810
1894,1812,1728
1931,1887,1809
2001,1873,1875
1951,1823,1825
1979,1875,1840
2033,1930,1840
1983,1831,1806
1981,1883,1827
1995,1851,1830
1997,1743,1837
1987,1833,1803
1965,1895,1788
2000,1931,1796
2021,1860,1825
2087,1878,1824
2061,1983,1799
1942,1917,1780
2000,1869,1776
2012,1766,1750
1995,1795,1741
1916,1765,1761
1975,1860,1803
1969,1904,1847
1959,1794,1778
1991,1952,1745
2009,2037,1755
2009,1895,1771
2005,1733,1709
1945,1737,1680
1994,1802,1770
1974,1840,1782
1974,1807,1767
2041,1974,1754
2061,2064,1757
1933,1863,1712
1936,1646,1663
2059,1739,1713
2013,1915,1749
1935,1904,1729
1937,1882,1718
1947,1786,1710
2062,1886,1752
2023,1970,1776
1968,1959,1655
1929,1776,1616
1969,1751,1698
2007,1857,1759
1982,1840,1728
1949,1864,1678
2034,1903,1685
2077,1999,1664
1927,1807,1697
1930,1953,1745
1927,1710,1679
2000,1739,1685
1955,1783,1727
1975,1933,1794
2005,1943,1718
2026,1808,1633
1978,1858,1651
1935,1841,1728
1970,1846,1685
2034,1839,1672
1977,1747,1631
1883,1761,1579
1947,1850,1682
2021,1942,1699
1995,1841,1648
2021,1841,1663
1962,1938,1807
1919,1809,1725
1933,1778,1599
1929,1727,1600
2005,1851,1718
1986,1858,1711
1920,1883,1666
1949,1898,1679
2008,1803,1703
1994,1824,1701
2015,1828,1663
1963,1822,1653
1968,1873,1712
1930,1909,1838
1958,2064,1698
1963,1840,1585
1981,1727,1659
1989,1901,1684
1968,1763,1655
1975,2000,1666
1949,1840,1711
1952,1834,1761
1921,1776,1725
1962,1801,1621
2017,1921,1666
2030,1978,1712
1984,1867,1689
1949,1713,1696
1997,1878,1698
2001,2000,1686
2067,1821,1691
1887,1739,1703
1891,1805,1702
2002,1839,1723
1971,1845,1655
1949,1868,1734
1962,1957,1746
1934,1843,1689
1968,1732,1622
2015,1887,1682
1939,1813,1759
1932,1778,1747
1981,1872,1659
1987,1936,1680
1938,1858,1755
2007,1872,1745
2006,1773,1648
1913,1877,1690
1881,1895,1716
1934,1936,1714
2031,1904,1680
2034,1757,1669
1910,1709,1782
1875,1793,1719
1934,1812,1689
2032,1937,1686
1963,1936,1730
1923,1809,1728
1983,1935,1712
1973,1777,1679
1881,1750,1769
1914,1825,1776
1978,1943,1733
2070,2039,1696
1929,1809,1711
1856,1664,1690
1911,1763,1693
2067,1906,1674
1921,1919,1790
1919,1983,1786
1968,1693,1656
1961,1861,1696
1891,1834,1791
1877,1808,1759
1914,1825,1658
1959,1913,1711
1984,1968,1852
1965,1728,1673
1886,1791,1648
1904,2096,1723
1970,1759,1759
1994,1814,1744
1921,1688,1701
1886,1708,1761
2012,1899,1778
2037,1937,1746
1855,1997,1715
1789,1817,1714
1910,1827,1743
1959,1863,1781
1925,1776,1698
1900,1744,1658
1901,1794,1751
1935,1889,1818
1994,1825,1766
1969,1965,1826
1886,1910,1758
1881,1811,1707
1875,1713,1621
1922,1791,1759
2091,1949,1806
1966,1886,1769
1808,1822,1764
1831,1776,1730
1933,1827,1767
2047,1861,1892
1909,1880,1729
1861,1855,1744
1872,1823,1731
1879,1812,1716
1870,1840,1739
1919,1871,1783
1996,1821,1791
1887,1883,1795
1856,1872,1801
1903,1887,1825
1957,1839,1783
1929,1829,1769
1918,1861,1759
1915,1999,1760
1930,1808,1769
1884,1777,1859
1903,1862,1845
1961,1947,1777
2038,2000,1775
2000,2014,1837
1809,1686,1745
1818,1664,1709
1878,1813,1838
1918,1911,1833
1899,1888,1757
1890,1893,1743
1968,2037,1822
2007,1793,1818
1886,1780,1757
1821,1936,1831
1867,1930,1867
1903,1839,1835
1948,1877,1775
1977,1962,1849
1960,1840,1831
1879,1762,1744
1841,1855,1788
1905,1963,1813
2007,2015,1793
1913,1840,1785
1797,1822,1825
1856,1845,1841
1987,1970,1856
2000,1855,1827
1837,1813,1789
1936,1845,1804
1914,1866,1843
1901,1882,1838
1871,1872,1786
1930,2005,1813
1955,2011,1877
1907,1926,1890
1902,1804,1778
1849,1791,1747
1856,1794,1821
1904,1856,1912
1902,1904,1865
1911,1946,1765
1894,1883,1819
1889,1862,1856
1870,1940,1852
1893,1923,1815
1971,1905,1904
1920,1976,1806
1885,1901,1729
1990,1847,1776
1905,1831,1774
1878,1857,1818
1835,1805,1867
1850,1905,1867
1934,2047,1899
1887,1883,1872
1851,1799,1765
1877,2017,1801
1920,1921,1878
1948,1793,1916
1904,1799,1776
1846,1850,1750
1979,1906,1817
1943,2007,1834
1843,1927,1840
1949,1818,1885
1904,1878,1858
1852,1937,1891
1818,1943,1858
1859,1914,1813
1941,1878,1855
1933,1874,1814
1969,2011,1883
1839,1782,1821
1840,1770,1841
1942,1872,1855
1904,1920,1828
1857,1905,1806
1890,1906,1843
1980,1907,1936
1940,1983,1861
1898,1840,1827
1863,1897,1829
1870,2014,1810
1861,1822,1830
1868,1782,1863
1915,1861,1905
1925,1891,1956
1946,2003,1873
2006,2123,1823
1905,1847,1814
1808,1710,1855
1795,1731,1875
1878,1881,1808
1964,1989,1861
1941,1911,1871
1843,1840,1889
1863,1858,1949
1995,2195,1891
1926,2026,1841
1831,1616,1733
1824,1692,1802
1912,1872,1904
1927,1918,1951
1850,1899,1836
1863,1927,1805
1893,2038,1881
1905,1978,1871
1861,1953,1840
1858,1944,1847
1914,1781,1931
1923,1799,1903
1886,1839,1792
1873,1878,1875
1910,1963,1856
1918,1957,1843
1904,1830,1782
1936,1858,1840
1870,1914,1875
1856,1913,1905
1874,1933,1905
1936,1898,1852
1943,1876,1863
1850,1904,1879
1827,1943,1869
1878,1964,1895
1934,2017,1987
1890,1846,1840
1854,1765,1860
1895,1857,1880
1923,1907,1863
1911,1991,1840
1905,1871,1873
1901,1821,1808
1922,1837,1828
1871,1872,1901
1866,1891,1874
1979,1956,1920
1954,1988,1950
1859,1979,1935
1840,1802,1799
1875,1839,1873
1919,1996,1963
