1906,1904,1899
1872,1835,1794
1863,1808,1775
1857,1884,1857
1959,1936,1925
1865,1871,1873
1849,1849,1847
1846,1882,1854
1869,1894,1851
1902,1850,1802
1832,1841,1810
1874,1865,1869
1886,1877,1895
1886,1868,1823
1867,1852,1792
1859,1897,1857
1904,1910,1906
1872,1874,1856
1870,1857,1850
1897,1874,1899
1894,1916,1860
1829,1868,1783
1855,1827,1804
1917,1877,1866
1904,1904,1914
1873,1874,1854
1872,1866,1836
1904,1893,1872
1886,1915,1878
1843,1897,1847
1869,1855,1855
1902,1858,1872
1903,1888,1866
1866,1858,1829
1840,1872,1842
1902,1903,1885
1899,1906,1879
1875,1875,1837
1921,1855,1830
1887,1878,1856
1909,1903,1883
1866,1879,1840
1806,1870,1833
1917,1890,1885
1887,1909,1894
1874,1887,1851
1869,1871,1845
1904,1899,1873
1982,1904,1893
1905,1875,1858
1872,1863,1851
1936,1901,1872
1911,1924,1889
1885,1904,1850
1877,1866,1852
1919,1886,1891
1922,1902,1893
1865,1881,1844
1904,1878,1842
1925,1891,1894
1925,1904,1904
1858,1874,1847
1877,1871,1840
1892,1904,1893
1961,1918,1905
1904,1880,1856
1887,1871,1856
1911,1893,1895
1925,1916,1907
1917,1883,1856
1855,1893,1852
1920,1905,1885
1936,1918,1902
1885,1886,1857
1855,1867,1845
1930,1891,1897
1926,1918,1919
1915,1889,1859
1850,1887,1852
2000,1897,1898
1985,1889,1907
1907,1884,1872
1902,1887,1862
1935,1922,1897
1998,1935,1910
1893,1883,1871
1913,1856,1856
1929,1883,1891
1951,1914,1914
1927,1888,1867
1911,1875,1845
1951,1901,1878
1953,1914,1904
1909,1886,1856
1905,1889,1859
1942,1961,1898
1951,1913,1901
1922,1850,1854
1925,1859,1847
1968,1907,1904
1968,1929,1914
1916,1885,1855
1913,1873,1842
1964,1925,1903
1974,1947,1917
1922,1863,1865
1916,1840,1853
1953,1878,1890
1954,1908,1902
1921,1885,1852
1920,1899,1855
1965,1929,1891
1956,1883,1886
1925,1852,1853
1922,1856,1857
1965,1897,1893
1963,1921,1904
1918,1874,1854
1919,1872,1855
1966,1882,1898
1965,1889,1893
1926,1874,1856
1927,1889,1868
1958,1891,1897
1964,1875,1894
1931,1872,1855
1936,1869,1870
1964,1891,1890
1967,1901,1891
1925,1864,1849
1913,1845,1840
1957,1891,1889
1975,1919,1899
1927,1856,1851
1909,1847,1840
1951,1913,1885
1959,1904,1898
1929,1878,1866
1927,1843,1858
1958,1871,1886
1961,1902,1885
1920,1881,1835
1929,1885,1845
1967,1910,1893
1971,1870,1892
1937,1842,1864
1931,1887,1856
1959,1871,1880
1958,1866,1873
1906,1856,1835
1909,1866,1846
1963,1898,1893
1970,1894,1888
1932,1855,1854
1924,1856,1855
1957,1882,1887
1957,1893,1891
1921,1850,1840
1920,1842,1840
1962,1884,1878
1968,1891,1885
1931,1856,1846
1918,1850,1843
1946,1904,1874
1943,1895,1885
1919,1851,1840
1911,1848,1831
1954,1888,1878
1965,1905,1889
1920,1847,1840
1921,1831,1843
1943,1870,1869
1953,1883,1883
1931,1854,1845
1922,1840,1838
1949,1888,1882
1957,1913,1901
1927,1882,1840
1925,1859,1839
1961,1871,1881
1959,1873,1885
1914,1870,1831
1919,1858,1833
1959,1871,1872
1951,1878,1875
1917,1855,1826
1927,1844,1836
1953,1874,1867
1966,1891,1883
1929,1857,1850
1904,1846,1831
1937,1859,1872
1945,1872,1882
1923,1870,1841
1913,1851,1837
1939,1855,1866
1949,1883,1875
1920,1856,1850
1911,1839,1840
1942,1883,1869
1950,1872,1869
1919,1835,1841
1920,1859,1855
1946,1863,1891
1935,1857,1873
1904,1843,1838
1905,1862,1842
1936,1915,1882
1938,1890,1872
1898,1828,1830
1885,1812,1830
1927,1870,1879
1949,1879,1902
1915,1856,1843
1903,1867,1833
1917,1868,1877
1920,1865,1887
1901,1845,1850
1892,1841,1840
1936,1878,1886
1939,1894,1895
1903,1859,1840
1897,1835,1827
1933,1879,1866
1932,1854,1885
1904,1821,1845
1890,1831,1835
1921,1865,1874
1920,1872,1874
1886,1839,1823
1886,1826,1821
1911,1878,1879
1919,1878,1891
1888,1841,1842
1885,1840,1834
1920,1869,1873
1918,1878,1878
1888,1863,1840
1885,1878,1839
1926,1872,1881
1935,1881,1900
1891,1836,1840
1882,1864,1835
1904,1936,1870
1908,1872,1874
1885,1808,1835
1879,1802,1834
1919,1876,1861
1911,1869,1874
1873,1866,1821
1872,1840,1822
1918,1865,1872
1920,1936,1873
1876,1857,1839
1870,1831,1823
1903,1838,1845
1910,1866,1865
1873,1854,1831
1874,1851,1838
1913,1919,1879
1910,1917,1869
1872,1853,1819
1872,1824,1827
1897,1896,1856
1904,1872,1861
1887,1833,1839
1878,1819,1830
1901,1867,1872
1904,1904,1873
1865,1863,1837
1872,1859,1878
1902,1847,1882
1899,1904,1833
1863,1911,1801
1856,1875,1827
1910,2000,1885
1915,1951,1872
1855,1829,1808
1850,1744,1808
1885,1799,1861
1904,1922,1892
1879,2033,1859
1862,1888,1820
1856,1668,1818
1875,1768,1846
1889,2147,1875
1872,2081,1863
1859,1680,1813
1870,1645,1827
1841,1679,1808
1854,1808,1826
1902,1936,1891
1879,1771,1867
1826,1766,1797
1840,1750,1801
1888,1870,1878
1897,1839,1886
1854,1728,1822
1840,1760,1811
1883,1810,1838
1898,1842,1872
1861,1808,1847
1856,1734,1840
1883,1725,1868
1879,1826,1869
1849,1805,1819
1856,1851,1840
1893,1751,1882
1883,1829,1877
1841,1648,1840
1858,1712,1840
1890,1690,1869
1891,1738,1872
1857,1730,1831
1859,1712,1817
1891,1794,1879
1887,1762,1894
1855,1722,1831
1855,1743,1834
1900,1738,1872
1898,1727,1880
1858,1725,1839
1855,1680,1833
1891,1728,1870
1909,1749,1871
1873,1698,1821
1859,1710,1825
1882,1745,1872
1890,1723,1873
1852,1691,1828
1859,1680,1838
1902,1673,1884
1898,1710,1873
1855,1677,1818
1859,1687,1827
1890,1728,1885
1894,1728,1891
1853,1686,1830
1841,1690,1825
1883,1730,1874
1894,1743,1887
1857,1691,1837
1852,1682,1837
1882,1749,1887
1882,1745,1886
1871,1648,1851
1856,1712,1840
1884,1717,1872
1890,1749,1891
1863,1620,1842
1857,1769,1842
1889,1774,1895
1887,1681,1893
1847,1687,1843
1847,1614,1835
1893,1695,1873
1891,1712,1873
1866,1711,1840
1854,1664,1854
1901,1715,1885
1898,1714,1888
1853,1687,1838
1859,1707,1830
1902,1791,1885
1907,1751,1904
1861,1715,1859
1855,1718,1853
1886,1811,1875
1895,1829,1885
1867,1748,1844
1872,1744,1853
1903,1815,1899
1895,1744,1904
1863,1667,1840
1859,1691,1839
1899,1794,1907
1903,1778,1917
1871,1727,1835
1862,1739,1839
1895,1747,1872
1897,1857,1872
1850,1773,1838
1854,1738,1837
1893,1798,1875
1905,1917,1903
1869,1869,1867
1851,1647,1831
1881,1689,1856
1891,1801,1877
1856,1742,1843
1857,1743,1849
1882,1837,1879
1891,1846,1891
1859,1702,1842
1858,1706,1847
1873,1729,1857
1885,1749,1852
1872,1815,1827
1872,1776,1866
1904,1798,1906
1899,1779,1893
1834,1749,1802
1834,1757,1841
1872,1770,1904
1878,1802,1887
1853,1776,1838
1857,1776,1846
1895,1829,1902
1898,1827,1872
1856,1786,1829
1870,1773,1847
1878,1836,1885
1878,1839,1900
1840,1802,1855
1854,1789,1831
1878,1811,1872
1879,1844,1894
1855,1836,1854
1856,1782,1843
1883,1808,1879
1895,1845,1877
1863,1872,1815
1825,1809,1837
1852,1822,1877
1874,1826,1879
1845,1794,1823
1839,1795,1817
1875,1824,1878
1871,1835,1867
1837,1830,1851
1847,1836,1850
1887,1872,1859
1886,1872,1878
1830,1837,1845
1829,1840,1840
1871,1877,1886
1873,1856,1889
1843,1828,1851
1842,1840,1845
1872,1887,1868
1867,1901,1862
1838,1867,1833
1840,1850,1841
1874,1879,1865
1872,1898,1861
1840,1866,1817
1829,1842,1808
1858,1881,1852
1879,1921,1883
1840,1858,1829
1825,1865,1815
1859,1967,1867
1871,1968,1884
1828,1824,1810
1822,1783,1783
1861,1859,1850
1867,1902,1855
1838,1876,1808
1856,1898,1833
1871,1931,1869
1863,1935,1862
1837,1879,1812
1857,1872,1840
1872,1904,1874
1856,1911,1862
1827,1897,1808
1822,1895,1785
1878,1915,1847
1871,1914,1857
1839,1903,1837
1827,1904,1818
1840,1914,1839
1867,1936,1856
1834,1897,1803
1835,1936,1826
1869,1967,1875
1865,1900,1863
1832,1887,1819
1821,1863,1791
1883,1895,1855
1873,1938,1872
1819,1910,1825
1821,1904,1811
1865,1941,1837
1872,1955,1847
1855,1927,1837
1849,1936,1851
1852,1925,1869
1841,1936,1846
1811,1903,1795
1821,1904,1808
1869,1931,1861
1875,1970,1869
1835,1922,1825
1802,1838,1751
1897,1909,1869
1869,1958,1885
1808,1935,1807
1804,1889,1799
1840,1924,1843
1856,1955,1867
1845,1919,1831
1837,1904,1813
1856,1935,1847
1856,1966,1843
1828,1956,1813
1826,1887,1825
1857,1900,1851
1879,1931,1871
1841,1910,1809
1831,1908,1805
1856,1936,1869
1847,1938,1847
1808,1915,1776
1812,1889,1774
1855,1918,1820
1869,1936,1861
1823,1923,1823
1817,1919,1808
1845,1950,1841
1855,1978,1849
1824,1899,1810
1826,1873,1808
1867,1923,1862
1887,1955,1907
1860,1935,1870
1835,1909,1776
1851,1937,1787
1849,1959,1813
1831,1929,1808
1825,1917,1801
1857,1953,1840
1861,1958,1861
1822,1923,1820
1833,1921,1809
1872,1955,1844
1874,1969,1852
1834,1936,1823
1829,1925,1808
1877,1949,1865
1872,1965,1904
1838,1931,1840
1840,1918,1829
1872,1946,1852
1886,1958,1862
1861,1950,1849
1831,1935,1801
1849,1936,1811
1859,1935,1847
1839,1904,1795
1836,1915,1826
1884,1956,1845
1873,1964,1868
1830,1923,1833
1842,1927,1850
1887,1956,1860
1903,1957,1811
1853,1921,1827
1833,1935,1834
1872,1974,1840
1894,1928,1872
1840,1894,1817
1842,1895,1814
1883,1941,1859
1870,1963,1843
1840,1941,1822
1853,1918,1830
1873,1936,1852
1872,1936,1840
1838,1913,1769
1845,1919,1822
1877,1943,1857
1885,1954,1862
1851,1929,1872
1855,1923,1846
1893,1957,1849
1885,1967,1824
1853,1929,1798
1857,1919,1815
1899,1961,1843
1888,1962,1873
1840,1921,1840
1839,1921,1808
1899,1955,1847
1904,1961,1879
1853,1907,1794
1858,1903,1839
1904,1958,1904
1904,1984,1901
1853,1927,1802
1856,1893,1789
1902,1936,1857
1904,1947,1872
1869,1920,1865
1863,1915,1859
1894,1943,1866
1899,1943,1822
1871,1907,1815
1872,1897,1858
1895,1946,1901
1899,1959,1872
1873,1919,1791
1863,1907,1809
1901,1951,1889
1905,1968,1899
1872,1914,1851
1878,1910,1808
1907,1943,1840
1902,1947,1895
1871,1920,1826
1877,1921,1859
1909,1947,1854
1905,1943,1825
1882,1903,1873
1878,1916,1847
1920,1945,1875
1920,1942,1856
1872,1924,1856
1873,1946,1889
1909,1953,1865
1914,1921,1839
1879,1888,1827
1882,1894,1829
1918,1930,1955
1920,1935,2018
1872,1907,1834
1871,1905,1776
1920,1935,1854
1917,1959,1865
1873,1922,1843
1865,1920,1815
1906,1945,1853
1915,1942,1857
1860,1934,1853
1872,1904,1890
1921,1917,1899
1921,1923,1881
1874,1929,1891
1882,1935,1903
1917,1971,1878
1910,1913,1893
1874,1872,1904
1875,1885,1795
1911,1935,1829
1913,1936,1866
1879,1906,1808
1877,1907,1845
1904,1935,1882
1907,1941,1872
1882,1911,1808
1882,1916,1902
1909,1968,1936
1909,1934,1870
1871,1872,1780
1884,1881,1840
1921,1922,1895
1915,1931,1877
1875,1913,1824
1873,1899,1849
1920,1931,1854
1920,1936,1915
1880,1899,1803
1889,1901,1847
1926,1946,1887
1919,1927,1859
1877,1919,1753
1887,1901,1855
1927,1841,1866
1952,1904,1904
1894,1937,2011
1861,1920,1936
1898,1911,1863
1906,1899,1807
1873,1879,1799
1885,1889,1851
1936,1984,1891
1923,1954,1872
1870,1855,1835
1869,1849,1834
1905,1893,1859
1915,1915,1865
1871,1872,1838
1885,1855,1808
1911,1927,1866
1901,1957,1873
1859,1894,1807
1855,1872,1826
1913,1893,1863
1887,1874,1831
1882,1902,1845
1866,1877,1858
1916,1909,1915
1920,1915,1887
1870,1879,1840
1865,1887,1769
1891,1904,1897
1895,1893,1937
1887,1867,1850
1867,1865,1813
1872,1913,1821
1879,1931,1855
1891,1887,1819
1873,1841,1783
1843,1872,1793
1871,2011,1861
1893,1958,1840
1913,1808,1792
1839,1754,1835
1875,2133,1937
1872,2054,1837
1799,1517,1755
1859,1655,1835
1863,2019,1808
1783,1731,1805
1786,1630,1820
1856,1793,1867
1856,1877,1867
1827,1744,1805
1801,1669,1794
1849,1910,1814
1877,2016,1809
1808,1589,1787
1931,1712,1915
1994,2175,2206
1823,1841,1820
1776,1227,1607
1791,1357,1670
1878,1628,1862
1870,1905,2017
1772,1681,1985
1770,1520,1924
1831,1622,1926
1846,1632,1930
1821,1634,1904
1894,1712,1901
1871,1525,1927
1882,1485,1954
1809,1709,1929
1833,1520,1952
1936,1733,2032
1871,1504,1984
1776,1237,1895
1843,1374,1941
1920,1535,2025
1937,1446,2054
1957,1373,1951
1853,1509,1939
1850,1335,2047
1878,1296,2015
1936,1461,1979
1902,1580,1967
1946,1589,2001
1845,1346,1977
1788,1247,1986
1791,1361,2023
1866,1430,2045
1963,1775,2033
1825,1185,1902
1799,1163,1932
1933,1339,2032
1932,1620,1997
1831,1559,1927
1859,1499,1908
1861,1505,1970
1846,1399,1989
1791,1680,2037
1776,1863,2055
1860,1921,1989
1809,1906,1955
1797,1897,1941
1840,2170,2009
1874,2559,2046
1882,2907,2032
1799,2368,1968
1749,2495,1966
1726,2416,1870
1803,2597,1861
1775,2896,1909
1901,3130,1994
1883,3178,1973
1872,2911,1829
1743,2911,1866
1759,3343,1935
1750,3537,1875
1869,3933,2035
1811,3514,1983
1748,3157,1719
1709,3773,1808
1613,3920,1835
1642,3705,1845
1588,3966,1837
1664,4095,1895
1705,4095,1841
1588,4095,1727
1601,4095,1858
1665,4095,1789
1658,4095,1808
1570,4095,1758
1622,4095,1791
1591,4095,1777
1657,4095,1749
1600,4095,1717
1711,4095,1709
1679,4095,1840
1604,4095,1856
1596,4095,1754
1600,4095,1767
1535,4095,1814
1641,4095,1744
1520,4095,1667
1527,4095,1738
1535,4095,1841
1523,4095,1773
1589,4095,1756
1520,4095,1745
1633,4095,1769
1605,4095,1840
1510,4095,1781
1559,4095,1826
1675,4095,1765
1584,4095,1680
1387,4095,1749
1463,4095,1838
1643,4095,1775
1647,4095,1712
1506,4095,1714
1520,4095,1764
1674,4095,1817
1574,4095,1768
1495,4095,1712
1557,4095,1777
1591,4095,1803
1615,4095,1842
1645,4095,1821
1510,4015,1775
1480,4032,1777
1659,4062,1683
1535,4000,1712
1630,4095,1872
1616,3974,1909
1501,3733,1860
1521,3633,1715
1571,3755,1741
1584,3802,1739
1529,3728,1795
1516,3747,1805
1535,4095,1813
1573,3631,1769
1603,3347,1779
1526,3542,1789
1626,3717,1813
1824,4006,1856
1662,3713,1895
1433,3662,1926
1424,3563,1683
1567,3599,1701
1644,3801,1825
1637,3524,1759
1603,3565,1853
1616,3602,1824
1562,3760,1890
1571,3665,1827
1589,3634,1842
1577,3767,1885
1600,3536,1793
1586,3514,1765
1605,3495,1819
1623,3385,1855
1647,3431,1888
1645,3540,1862
1689,3683,1926
1702,4005,1728
1657,3227,1748
1700,3093,1774
1601,3287,1882
1575,3279,1946
1631,3385,1922
1535,3369,1776
1577,3229,1823
1712,3168,1885
1675,3211,1797
1664,3024,1779
1691,3019,1885
1687,2957,1968
1726,2989,1913
1655,2906,1817
1760,2988,1829
1687,2906,1841
1685,2882,1927
1672,2683,1904
1721,2759,1856
1731,2698,1965
1796,2842,1901
1742,2731,1761
1713,2545,1849
1816,2625,1983
1783,2591,1988
1706,2463,1918
1680,2447,1959
1713,2525,1909
1792,2559,1870
1759,2487,1873
1788,2320,1854
1837,2559,1984
1790,2396,2043
1735,2246,1915
1763,2356,1887
1847,2291,1968
1920,2209,1872
1776,2192,1890
1729,2127,1936
1840,2179,2000
1825,2370,2001
1781,2192,1901
1823,1931,1920
1965,1996,1999
2089,2086,2002
1798,1984,1901
1758,2045,1931
1827,1967,2032
1874,1919,1990
1823,1906,1932
1823,1922,1943
1851,1856,2033
1858,1820,1967
1867,1821,1894
1858,1794,1925
1948,2002,1991
1909,1726,1903
1863,1600,1919
1908,1825,1993
1972,1755,2063
2011,1702,1963
1859,1567,1906
1769,1524,1989
1862,1595,1977
2002,1621,1930
1975,1666,1900
1797,1529,1934
1907,1568,1962
1895,1616,1994
1979,1535,2021
1943,1488,1917
1849,1394,1973
1843,1481,1995
1946,1606,2010
1967,1584,1979
1870,1266,1907
1838,1211,1936
1891,1342,1903
1989,1567,1959
2063,1472,2011
1918,1296,1968
1761,1194,1935
1904,1323,1907
2020,1450,1876
1886,1301,1927
1797,1202,1949
1920,1341,1939
2032,1463,1953
1919,1395,1955
1867,1197,1918
1897,1132,1894
1888,1279,1961
2160,1535,1949
1909,1456,1899
1744,932,1951
1838,976,1964
2135,1190,1867
1936,1322,1797
1775,1338,1937
1826,1328,2000
2024,1367,1931
1822,1073,1872
1746,1036,1867
1815,1139,1910
1781,1152,1937
1783,1287,1949
1687,1263,1909
1691,1299,1919
1732,1186,1853
1694,1107,1874
1706,1330,1918
1750,1300,1963
1675,1117,1915
1724,1277,1840
1661,1264,1860
1701,1200,2000
1687,1124,1929
1651,1200,1825
1609,1195,1826
1646,1296,1878
1814,1257,1916
1611,1130,1922
1556,1228,1904
1673,1313,1948
1726,1267,1882
1730,1341,1809
1680,1235,1853
1695,1109,1936
1652,1298,1949
1783,1398,1828
1807,1419,1873
1526,1200,1922
1527,1239,1968
1707,1362,1904
1817,1408,1808
1621,1173,1861
1533,1223,1887
1586,1357,1857
1706,1578,1856
1702,1709,1853
1615,976,1862
1535,991,1862
1616,1295,1858
1781,1579,1950
1761,1439,1881
1904,1472,1759
1695,1607,1781
1508,1277,1910
1595,1408,1883
1695,1394,1851
1739,1345,1834
1798,1627,1860
1695,1746,1952
1562,1489,1797
1597,1506,1794
1786,1520,1841
1801,1778,1859
1599,1438,1822
1520,1355,1805
1621,1503,1930
1700,1733,1930
1691,1685,1813
1718,1526,1791
1677,1633,1876
1636,1419,1853
1735,1459,1791
1712,1570,1838
1775,1815,2111
1728,1698,1846
1699,1730,1715
1638,1396,1693
1689,1651,1950
1774,1951,1947
1674,1383,1807
1584,1360,1705
1722,1657,1866
1792,1705,1941
1667,1893,1904
1603,1488,1806
1665,1343,1840
1741,1526,1837
1757,1653,1809
1706,1905,1825
1683,1535,1850
1648,1487,1934
1745,1566,1823
1792,1563,1889
1792,1623,1863
1897,1680,1836
1669,1693,1827
1535,1525,1835
1706,1775,1933
1866,1641,1862
1732,1524,1763
1611,1658,1921
1650,1645,1911
1673,1423,1758
1712,1530,1802
1745,1593,1943
1744,1740,1890
1678,1732,1785
1680,1403,1758
1806,1438,1776
1767,1598,1838
1666,1577,1845
1659,1650,1853
1808,1691,1823
1845,1430,1830
1906,1566,1787
1653,1691,1895
1648,1589,1888
1710,1610,1879
1743,1520,1895
1751,1408,1781
1810,1399,1826
1741,1492,1830
1694,1669,1808
1745,1613,1806
1812,1470,1849
1809,1564,1869
1766,1741,1810
1683,1446,1803
1654,1367,1814
1743,1680,1867
1753,1525,1811
1834,1398,1789
1750,1442,1894
1756,1488,1808
1735,1591,1818
1733,1501,1792
1789,1472,1797
1839,1525,1861
1866,1486,1909
1931,1451,1763
1797,1488,1786
1806,1643,1918
1835,1554,1797
1728,1421,1718
1670,1367,1821
1687,1574,1857
1686,1389,1801
1658,1365,1790
1700,1535,1815
1685,1815,1913
1618,1519,1813
1571,1333,1775
1680,1467,1933
1682,1461,1827
1511,1312,1767
1494,1475,1697
1738,1518,1776
1751,1660,1817
1535,1631,1869
1473,1425,1856
1492,1383,1838
1535,1341,1800
1591,1493,1807
1575,1472,1787
1581,1535,1794
1575,1665,1931
1525,1513,1863
1638,1509,1729
1627,1445,1744
1511,1451,1856
1518,1481,1862
1590,1527,1935
1623,1620,1787
1589,1527,1796
1590,1431,1795
1525,1445,1754
1535,1521,1819
1662,1735,1875
1597,1526,1895
1587,1438,1928
1634,1572,1794
1601,1407,1725
1579,1575,1811
1552,1552,1838
1535,1520,1817
1607,1554,1803
1662,1569,1822
1589,1535,1850
1601,1563,1892
1653,1584,1845
1634,1573,1745
1597,1532,1814
1710,1443,1861
1721,1586,1779
1650,1617,1789
1619,1639,1851
1690,1595,1839
1658,1602,1873
1595,1408,1836
1589,1520,1837
1705,1641,1867
1735,1780,1968
1701,1808,1872
1630,1455,1728
1674,1423,1790
1685,1605,1857
1717,1687,1905
1734,1667,1798
1763,1727,1813
1712,1590,1968
1689,1642,1770
1648,1633,1766
1694,1637,1835
1775,1695,1840
1791,1767,1911
1636,1552,1803
1635,1664,1805
1751,1783,1850
1879,1795,1885
1740,1646,1809
1701,1535,1806
1697,1745,1872
1699,1723,1859
1696,1603,1799
1808,1695,1797
1777,1874,1851
1755,1904,1838
1705,1648,1823
1697,1574,1827
1744,1712,1823
1743,1712,1823
1817,1793,1813
1776,1730,1812
1735,1770,1902
1742,1808,1881
1815,1931,1857
1835,1682,1833
1781,1723,1907
1744,1747,1744
1819,1757,1743
1919,1693,1805
1856,1840,1911
1810,1844,1890
1686,1712,1799
1699,1725,1808
1790,1882,1853
1857,1889,1936
1871,1842,1821
1761,1738,1789
1761,1797,1875
1810,1872,1888
1808,1743,1850
1813,1801,1786
1846,1786,1826
1863,1838,1840
1893,1939,1865
1840,1719,1863
1841,1744,1899
1811,1808,1905
1844,1897,1741
1819,1795,1808
1968,1898,1910
1936,1887,1887
1851,1773,1799
1770,1798,1826
1826,1870,1896
1856,1889,1936
1856,1866,1840
1835,1872,1815
1883,1925,1820
1998,1891,1827
1851,1798,1773
1760,1712,1850
1825,1827,1904
1919,1917,1903
1902,2071,1874
1884,1781,1855
1907,1887,1940
1868,1837,1888
1856,1751,1759
1878,1838,1776
1946,2007,1878
1931,1949,1850
1935,1803,1808
1943,1819,1836
2014,1970,1901
1895,1931,1889
1783,1845,1854
1840,1843,1879
1905,1913,1905
1906,1936,1840
1887,1840,1811
1909,1857,1882
1974,1923,1933
1939,1902,1814
1901,1921,1776
1866,1818,1840
1925,1901,1911
1968,1909,1918
1910,1834,1823
1911,1851,1855
1968,2035,1885
1999,2171,1965
1943,1861,1827
1879,1898,1797
1968,1830,1840
1936,1822,1848
1901,1877,1883
1935,1888,1840
2007,1987,1867
2150,2031,1906
1901,1898,1799
1836,2002,1840
1946,2147,1999
1997,1846,1819
1935,1771,1745
1915,1840,1834
1989,2013,1907
1962,2064,1919
1911,1911,1846
1908,1853,1799
1968,1847,1867
1987,2017,1877
1919,1888,1847
1924,1914,1851
1965,1952,1893
1979,1997,1877
1998,2102,1791
1934,1882,1776
1967,1923,1827
1989,1815,1827
1938,1820,1908
1883,1892,1848
2032,2015,1755
2016,1973,1805
1997,1903,1872
1938,1995,1879
1935,1906,1887
1974,1829,1857
1971,1798,1794
2005,1932,1857
1926,1983,1878
1936,1951,1871
1999,1951,1877
1973,2096,1851
1936,1866,1851
1941,1831,1897
1936,1839,1825
1965,1938,1791
2003,1929,1831
2029,1986,1841
1955,1904,1890
1926,1920,1913
2047,2017,1827
2109,1865,1795
1891,1943,1806
1909,2000,1862
1983,1818,1914
1923,1806,1838
1950,1887,1823
1990,1962,1835
1978,2060,1860
2000,1849,1856
1930,1973,1861
1913,1952,1858
2033,1905,1863
2059,1840,1899
1963,1939,1840
1898,1920,1809
1983,2118,1883
1985,1856,1875
1941,1791,1793
1985,1968,1840
2054,1983,1877
1984,1952,1936
1923,1813,1802
1979,1808,1849
2013,2000,1932
2031,2031,1846
2031,2096,1914
2064,1854,1815
1966,1770,1846
1952,1871,1926
2032,1935,1823
1937,1926,1776
1958,1967,1808
2018,1975,1872
1990,1996,1871
1917,1845,1840
1968,1889,1880
2023,1994,1908
1979,1872,1891
2029,1771,1847
1977,1981,1889
1949,2084,1806
1931,1866,1823
2035,1811,1884
2027,1888,1891
1984,1947,1831
2015,1893,1807
2032,1958,1856
1968,1945,1878
1981,1931,1846
2027,1957,1904
1926,1929,1859
1949,2005,1905
2035,1922,1795
1991,1855,1792
1973,1863,1856
1965,1959,1903
1978,1994,1840
1968,1701,1822
1969,1769,1829
1986,1904,1873
1990,2002,1922
1983,1923,1894
2005,1929,1821
2064,1985,1831
2059,1872,1874
1951,1808,1872
1930,1883,1837
2017,1870,1933
2037,1923,1852
2046,2033,1811
2035,1963,1881
1920,1796,1851
1899,1833,1831
1936,1921,1830
2008,1875,1826
2057,1950,1887
2062,1904,1968
1936,1859,1856
1968,1983,1905
2025,1978,1888
2015,1955,1815
2000,1803,1811
1931,1720,1867
1975,1828,1886
2091,1955,1845
2057,1907,1872
1996,2032,1906
2202,2112,1916
1922,1814,1833
1783,1681,1776
1875,1815,1911
1974,1921,1899
2034,1872,1808
1998,1907,1790
1969,1898,1862
2019,1971,1948
1999,2085,1928
1915,1834,1800
1941,1855,1770
1995,1936,1894
2000,1825,1938
2017,1899,1890
1991,2064,1810
1984,1790,1840
1991,1855,1847
1958,1966,1872
1971,1851,1794
2043,1799,1931
2054,1904,1941
2021,1956,1776
2067,1914,1846
1941,1950,1808
1915,2013,1882
1973,1784,1815
1993,1869,1882
1996,2021,1919
1948,1914,1792
1952,1873,1815
1977,1877,1856
2010,1869,1887
2002,2043,1895
1970,1889,1783
1955,1920,1803
2020,1779,1843
2016,1866,1918
1952,1914,1931
1975,1929,1816
2027,1967,1859
1955,2011,1808
1895,1827,1827
1911,1715,1840
2000,1904,1911
2003,1937,1904
1968,1947,1856
1978,1893,1904
1978,1937,1895
1967,1991,1851
1945,1840,1823
1982,1798,1795
2018,1957,1895
1968,2141,1974
1927,1803,1890
1935,1811,1767
1972,1890,1828
2034,1935,1919
1999,1955,1865
1984,1871,1831
1938,1902,1856
1936,1867,1930
1931,1872,1889
1953,1840,1822
2046,2031,1838
1999,2059,1911
1969,1856,1881
1941,1910,1798
1954,1801,1831
1938,1877,1904
1920,1881,1904
1957,1863,1829
1969,1974,1839
1940,1951,1841
1997,1999,1849
2032,1885,1872
1953,1821,1936
1902,1819,1865
1903,1927,1838
1953,1930,1794
1984,1846,1819
1983,1863,1833
1914,1840,1872
1909,1876,1856
1984,2160,1919
2065,1993,1899
2031,1737,1809
1893,1947,1883
1875,1840,1836
1908,1813,1831
1913,1849,1845
1918,1936,1938
1936,1962,1846
1939,2030,1877
1949,1815,1765
1936,1808,1801
1950,1858,1898
1941,1830,1927
1931,1910,1851
1927,1899,1814
2001,2046,1922
2032,1904,1950
1902,1842,1782
1891,1855,1779
1950,1925,1841
1981,1994,1863
1977,1856,1815
1925,1792,1808
1904,1885,1840
1957,1959,1940
1936,1850,1957
1926,1872,1939
1941,1888,1777
1943,1958,1781
1889,1914,1840
1920,1872,1935
1973,1958,1886
1936,1825,1808
1959,1753,1824
1941,1921,1855
1953,1910,1914
1934,1881,1890
1908,1989,1854
1910,1942,1838
1960,1777,1856
1897,1809,1904
1997,1879,1854
2041,1873,1831
1855,1854,1867
1809,1872,1843
1894,1902,1870
1915,2025,1879
2011,2063,1894
1954,1873,1843
1871,1793,1787
1845,1733,1840
1915,1800,1858
1949,1902,1894
2026,2055,1886
1919,1872,1776
1951,1798,1825
1863,1847,1891
1933,1882,1872
2015,2028,1961
1945,1943,1827
1879,1790,1775
1858,1763,1797
1861,1850,1835
1930,1875,1855
1874,1843,1866
1870,1873,1818
1935,1858,1851
2010,1886,1867
1946,1884,1870
1872,1885,1838
1921,2009,1910
1953,1933,1866
1939,1804,1803
1872,1798,1789
1921,1791,1805
1919,1905,1890
2032,2020,1827
1933,1808,1860
1831,1784,1858
1904,1906,1890
1898,1955,1866
1950,1865,1850
1969,1911,1857
1936,1993,1867
1825,1793,1861
1832,1798,1837
1864,1833,1822
1936,1899,1919
1983,1951,1904
1917,1917,1846
1896,1872,1781
1913,1924,1851
1888,1809,1894
1862,1765,1786
1856,1808,1846
1913,2001,1942
1949,1973,1854
1927,1789,1739
1904,1806,1840
1936,1890,1930
1872,1875,1890
1905,1929,1862
2003,1982,1854
1903,1808,1872
1875,1791,1961
1893,1817,1778
1990,1915,1775
1968,1966,1874
1890,1955,1920
