1891,1917,1896
1894,1826,1886
1913,1898,1872
1881,1916,1835
1867,1882,1858
1902,1888,1889
1936,1915,1894
1902,1936,1867
1866,1867,1867
1890,1890,1895
1924,1921,1891
1901,1891,1857
1879,1866,1868
1904,1863,1893
1934,1892,1879
1900,1840,1856
1893,1872,1887
1904,1910,1894
1926,1927,1891
1888,1903,1854
1873,1855,1861
1910,1840,1895
1929,1915,1883
1914,1872,1873
1891,1798,1889
1903,1842,1900
1921,1907,1877
1904,1890,1866
1892,1844,1897
1917,1872,1925
1935,1910,1897
1897,1897,1858
1882,1874,1883
1919,1853,1917
1947,1894,1898
1920,1933,1875
1887,1815,1869
1919,1806,1890
1947,1858,1904
1936,1894,1889
1930,1929,1923
1936,1937,1915
1913,1827,1851
1897,1801,1842
1913,1821,1893
1961,1875,1936
1977,1911,1927
1949,2001,1903
1909,1846,1889
1919,1773,1892
1936,1856,1872
1921,1859,1869
1921,1840,1906
1946,1883,1931
1955,1926,1901
1910,1862,1860
1904,1815,1879
1935,1850,1915
1968,1898,1920
1952,1872,1887
1920,1853,1895
1933,1872,1904
1952,1874,1897
1949,1858,1891
1933,1853,1910
1939,1883,1916
1961,1907,1889
1941,1878,1879
1919,1810,1889
1946,1879,1926
1975,1910,1905
1939,1840,1867
1927,1859,1893
1955,1911,1917
1966,1897,1886
1931,1847,1869
1925,1839,1894
1955,1877,1927
1985,1929,1919
1954,1934,1895
1918,1818,1893
1946,1857,1918
1966,1904,1897
1941,1856,1875
1923,1845,1899
1954,1872,1927
1973,1903,1905
1943,1884,1888
1929,1866,1904
1953,1911,1927
1968,1910,1897
1939,1856,1872
1926,1849,1898
1952,1888,1926
1975,1920,1920
1963,1906,1908
1939,1887,1921
1964,1886,1929
1974,1889,1904
1951,1904,1881
1934,1874,1899
1949,1882,1923
1981,1908,1907
1959,1897,1898
1952,1883,1923
1983,1920,1946
1989,1905,1921
1946,1892,1855
1930,1872,1900
1970,1926,1937
1998,1921,1917
1967,1887,1895
1936,1872,1904
1959,1905,1942
1990,1929,1923
1957,1895,1904
1930,1867,1888
1968,1908,1933
1997,1920,1906
1963,1909,1906
1939,1900,1914
1968,1895,1954
1995,1930,1935
1961,1901,1870
1936,1875,1946
1959,1903,1904
1977,1930,1951
1963,1922,1877
1937,1920,1909
1955,1913,1916
1995,1927,1888
1982,1885,1929
1953,1861,1870
1968,1911,1943
1998,1942,1962
1975,1910,1900
1957,1894,1883
1978,1907,1923
1988,1941,1920
1949,1916,1878
1938,1903,1903
1966,1921,1927
1985,1953,1929
1957,1923,1883
1936,1901,1903
1953,1936,1938
1981,1939,1934
1968,1931,1913
1955,1919,1919
1975,1923,1966
1993,1949,1907
1963,1936,1882
1927,1901,1893
1947,1936,1919
1971,1950,1933
1953,1937,1883
1938,1930,1906
1968,1952,1933
1986,1994,1922
1962,1983,1898
1946,1968,1901
1959,2000,1906
1979,2018,1904
1955,2002,1883
1931,1988,1885
1960,2002,1897
1975,2029,1884
1950,2010,1856
1936,1997,1905
1959,2017,1911
1980,2051,1888
1954,2036,1839
1930,2031,1849
1950,2060,1914
1979,2064,1906
1957,2013,1839
1936,2002,1909
1959,2063,1920
1985,2131,1874
1953,2113,1871
1923,2096,1852
1951,2127,1938
1975,2161,1933
1949,2146,1885
1925,2145,1930
1942,2153,1951
1971,2134,1873
1937,2150,1845
1911,2153,1867
1942,2175,1895
1975,2193,1901
1943,2189,1872
1907,2170,1923
1939,2211,1909
1963,2246,1891
1936,2240,1854
1922,2224,1910
1947,2261,1899
1973,2279,1863
1943,2261,1905
1924,2245,1840
1936,2281,1904
1958,2305,1851
1935,2289,1874
1911,2267,1851
1936,2287,1903
1973,2334,1909
1945,2270,1877
1911,2210,1869
1936,2256,1908
1973,2289,1856
1953,2255,1863
1926,2231,1890
1940,2254,1900
1952,2246,1875
1927,2229,1856
1933,2223,1901
1952,2231,1914
1970,2255,1905
1951,2233,1874
1933,2192,1887
1951,2205,1917
1973,2202,1894
1958,2199,1887
1936,2166,1891
1959,2182,1915
1982,2192,1904
1952,2191,1875
1926,2162,1883
1950,2166,1905
1977,2175,1903
1969,2171,1897
1948,2175,1915
1957,2149,1905
1979,2169,1899
1968,2164,1857
1953,2127,1877
1973,2119,1925
1988,2135,1903
1968,2123,1893
1950,2092,1892
1978,2126,1936
2004,2138,1936
1983,2121,1911
1959,2112,1922
1974,2089,1933
2000,2106,1907
1987,2102,1911
1967,2078,1926
1991,2090,1994
2005,2118,1891
1974,2106,1875
1959,2046,1877
1984,2059,1930
2011,2074,1961
1985,2078,1927
1968,2035,1911
1987,2043,1946
2014,2071,1933
1997,2058,1900
1967,2026,1897
1990,2032,1997
2009,2070,1930
1987,2032,1904
1973,2002,1889
1996,2021,1938
2021,2043,1904
1995,2007,1919
1963,1987,1915
1993,2008,1953
2019,2013,1927
1999,2014,1901
1982,1997,1931
2006,2013,1952
2030,2022,1945
2000,2013,1906
1978,1975,1914
2005,1986,1923
2031,2011,1946
2007,2003,1936
1986,1968,1919
2001,1974,1943
2023,2006,1944
2002,1999,1906
1997,1948,1910
2017,1963,2003
2036,2004,1911
2015,2003,1922
1982,1956,1911
2005,2000,1952
2043,2020,1921
2026,1997,1947
1994,1950,1907
2011,1970,1956
2045,1969,1934
2027,1941,1920
1987,1969,1911
2017,1987,1948
2039,1998,1922
2016,1970,1904
1984,1951,1915
2001,1967,1935
2036,1984,1936
2029,1995,1920
2003,1954,1926
2021,1967,1940
2039,1953,1918
2014,1946,1889
2003,1954,1920
2022,1965,1947
2058,1986,1933
2025,1991,1904
1997,1955,1907
2021,1931,1936
2061,1943,1936
2031,1955,1905
2000,1965,1904
2017,1948,1935
2061,1968,1939
2047,1942,1923
2019,1935,1929
2031,1974,1940
2058,1953,1934
2031,1950,1903
1999,1921,1910
2019,1911,1936
2042,1963,1926
2019,1939,1893
1937,1885,1915
2029,1919,1953
2099,1962,1936
2000,1951,1899
1995,1895,1895
2046,1903,1935
2097,1960,1934
2064,1968,1911
2063,1931,1921
1990,1933,1934
2045,1941,1929
2014,1918,1908
2041,1906,1915
2041,1926,1937
2103,1924,1927
2045,1920,1904
2066,1904,1909
2047,1925,1949
2067,1939,1939
2046,1909,1904
1995,1904,1901
2035,1920,1933
2074,1946,1949
2066,1949,1919
2014,1920,1907
2006,1925,1926
2039,1941,1937
2062,1919,1925
2010,1901,1923
2021,1918,1952
2070,1953,1942
2039,1927,1909
2015,1883,1920
2034,1905,1951
2075,1936,1936
2054,1938,1907
2043,1903,1919
1994,1898,1956
2017,1936,1943
2042,1933,1908
2025,1904,1921
2045,1915,1954
2075,1948,1941
2083,1932,1904
2010,1893,1920
2079,1897,1952
2057,1934,1939
2075,1913,1918
2001,1891,1920
2024,1899,1955
2090,1914,1942
2053,1918,1922
2015,1874,1926
2041,1905,1965
2069,1941,1954
2042,1904,1914
2011,1897,1914
2035,1937,1957
2087,1968,1947
2083,1904,1921
2064,1885,1925
2059,1902,1953
2043,1937,1946
2042,1935,1919
2009,1903,1926
2011,1904,1943
2032,1923,1945
2075,1925,1922
1998,1914,1917
2004,1922,1940
2064,1957,1934
2031,1927,1905
2015,1898,1927
2055,1918,1967
2084,1981,1958
2079,1936,1918
2025,1851,1906
2025,1871,1939
2053,1933,1936
1996,1939,1908
1997,1916,1920
2046,1914,1942
2075,1936,1936
2071,1904,1907
2065,1916,1919
2070,1958,1952
2130,1982,1941
2066,1946,1904
1974,1879,1910
2011,1904,1932
2022,1943,1926
2067,1915,1905
2028,1882,1915
2010,1894,1947
2081,1920,1954
2056,1904,1907
1997,1904,1900
2009,1925,1934
2093,1948,1938
2059,1935,1906
2015,1897,1904
2085,1918,1938
2074,1936,1945
2060,1937,1912
2034,1927,1917
2027,1936,1937
2075,1941,1937
2064,1929,1909
2026,1902,1915
2032,1909,1937
2077,1947,1936
2047,1943,1904
2009,1931,1904
2030,1908,1927
2065,1943,1928
2046,1920,1911
2076,1905,1926
2032,1913,1950
2037,1949,1926
2096,1943,1903
1995,1909,1904
2036,1930,1936
2069,1945,1936
2065,1951,1913
2001,1905,1913
2061,1910,1933
2097,1951,1931
2025,1937,1895
2026,1905,1906
2026,1961,1949
2102,1971,1951
2103,1953,1925
2043,1906,1916
2047,1934,1932
2067,1974,1936
2102,1953,1915
2028,1921,1915
2031,1938,1927
2120,1984,1933
2033,1951,1904
2032,1921,1915
2006,1921,1939
2075,1939,1936
2078,1935,1909
1995,1920,1915
2062,1921,1955
2093,1947,1958
2064,1965,1911
2031,1935,1899
2039,1923,1926
2070,1958,1934
2067,1994,1914
2029,1939,1917
2032,1904,1936
2058,1937,1929
2059,1922,1904
2055,1907,1889
2037,1923,1925
2032,1952,1933
2058,1967,1904
2031,1935,1909
2037,1930,1945
2132,1973,1942
2057,1958,1904
1982,1917,1905
2111,1936,1938
2062,1968,1935
2065,2001,1903
2025,1919,1901
2005,1893,1920
1966,1935,1922
2139,1938,1904
2034,1920,1898
1968,1934,1930
2055,1953,1936
2065,1950,1904
2027,1935,1904
2033,1938,1934
2053,1970,1926
2047,1957,1903
2015,1936,1904
2031,1938,1929
2074,2002,1934
2035,1932,1895
2014,1895,1902
2023,1917,1927
2055,1948,1920
2058,1952,1910
2006,1920,1905
2027,1931,1929
2064,1967,1936
2043,1967,1911
2012,1927,1905
2032,1927,1925
2064,1959,1925
2037,1950,1904
2007,1894,1904
2026,1957,1936
2060,1980,1931
2035,1965,1897
1994,1919,1901
2002,1923,1923
2058,1962,1935
2057,1937,1917
2004,1937,1904
2008,1937,1929
2059,1963,1931
2045,1949,1915
2010,1917,1908
2019,1936,1934
2062,1966,1932
2062,1947,1911
2015,1890,1904
2021,1930,1925
2056,1968,1923
2057,1951,1904
2007,1923,1893
2015,1940,1923
2057,1984,1929
2046,1959,1911
2018,1937,1922
2028,1936,1938
2047,1955,1919
2031,1939,1889
2001,1938,1899
2029,1936,1937
2063,1933,1930
2045,1959,1890
2006,1940,1894
2017,1933,1924
2064,1968,1933
2057,1955,1913
2000,1927,1907
2018,1949,1936
2064,1982,1936
2037,1942,1899
1998,1904,1888
2004,1913,1920
2047,1957,1923
2041,1953,1904
2014,1904,1920
2023,1974,1941
2054,1969,1929
2032,1966,1886
2000,1934,1889
2016,1936,1927
2059,1981,1939
2037,1971,1914
1999,1933,1899
2000,1936,1919
2045,1952,1931
2038,1953,1903
1995,1914,1904
2004,1941,1929
2042,1968,1932
2026,1966,1904
1994,1911,1904
2002,1945,1933
2032,1981,1929
2031,1964,1910
2002,1923,1915
2023,1952,1941
2046,1968,1931
2020,1962,1894
1983,1937,1901
1998,1906,1933
2043,1953,1924
2045,1951,1902
2000,1927,1899
2000,1936,1930
2041,1968,1939
2043,1967,1915
1997,1931,1904
2016,1921,1926
2042,1968,1929
2030,1970,1902
1995,1938,1895
2010,1935,1929
2058,1969,1937
2039,1963,1904
1991,1908,1903
2004,1950,1941
2037,1968,1936
2031,1955,1904
1995,1914,1899
2006,1934,1925
2055,1981,1934
2031,1972,1910
1996,1936,1899
2005,1959,1935
2046,1971,1936
2033,1967,1901
1997,1935,1898
2000,1948,1919
2046,1962,1924
2038,1975,1904
2011,1937,1902
2021,1968,1932
2055,1970,1927
2037,1970,1901
2001,1946,1905
2006,1968,1934
2044,1968,1931
2032,1974,1897
2005,1929,1892
2010,1973,1927
2053,2000,1933
2035,1968,1904
1999,1918,1902
2013,1958,1929
2053,1998,1931
2032,1983,1900
1994,1950,1901
2005,1945,1926
2039,2005,1935
2034,1989,1911
1991,1922,1900
2005,1932,1930
2047,1975,1933
2035,1980,1904
2001,1963,1904
2002,1969,1926
2041,1964,1936
2027,1970,1904
1991,1968,1890
1995,1972,1920
2039,2002,1935
2029,1994,1908
1988,1943,1892
1999,1947,1921
2032,1982,1923
2019,1963,1889
1989,1947,1888
2003,1945,1920
2044,1975,1931
2033,1968,1905
1997,1953,1903
1997,1957,1915
2032,1983,1914
2032,1984,1899
1991,1959,1903
2002,1966,1931
2037,1983,1930
2018,1958,1891
1983,1934,1889
2001,1936,1931
2043,1965,1947
2034,1959,1911
1994,1936,1899
1994,1933,1919
2034,2000,1929
2033,1968,1905
1999,1936,1903
2010,1901,1925
2043,1936,1927
2037,2016,1904
2000,1965,1899
2000,1927,1919
2042,2023,1921
2041,2013,1903
1998,1983,1898
2005,1927,1926
2046,1958,1933
2032,2007,1892
1985,1949,1886
1997,1979,1911
2045,1995,1936
2034,1980,1901
1989,1949,1898
1988,1975,1920
2032,1983,1922
2023,1958,1895
1987,1939,1899
2000,1918,1935
2037,1991,1936
2030,1994,1904
2000,1943,1904
2000,1947,1934
2032,1964,1933
2030,2035,1906
1986,1961,1902
1984,1926,1915
2019,1947,1925
2031,2025,1915
1995,1941,1904
1998,1904,1933
2026,1955,1923
2019,1967,1900
1987,1920,1902
2004,1936,1936
2039,1959,1945
2022,1953,1907
1970,1914,1888
1984,1931,1914
2029,1979,1931
2025,1951,1914
1994,1905,1904
1994,1986,1923
2022,2003,1936
2017,1979,1904
1988,1982,1902
1999,1937,1934
2032,1971,1935
2022,1950,1904
1991,1911,1897
2000,1943,1935
2037,1932,1942
2037,1987,1922
2000,1931,1911
2000,1919,1932
2037,1968,1937
2019,1992,1901
1977,1895,1891
1994,1923,1936
2045,1984,1952
2035,1967,1920
1995,1886,1903
1995,1904,1920
2025,1950,1923
2032,1989,1904
2000,1946,1913
2005,1918,1936
2035,1959,1933
2032,1965,1904
1989,1927,1899
1999,1934,1933
2033,2001,1943
2029,1939,1908
1985,1905,1894
1993,1907,1929
2023,1984,1936
2013,1984,1903
1993,1968,1904
1999,1946,1933
2032,1965,1934
2020,1990,1897
1994,1980,1898
2004,1961,1931
2036,1972,1937
2027,1958,1905
1985,1950,1904
1991,1930,1922
2026,1948,1926
2027,1961,1904
1989,1967,1904
1989,1968,1931
2033,1984,1941
2033,1980,1918
1983,1923,1899
1979,1962,1920
2021,1995,1942
2032,1983,1919
1990,1915,1899
1987,1923,1921
2029,1972,1933
2032,1977,1913
1991,1922,1904
1991,1939,1927
2033,1982,1937
2032,1968,1915
1992,1946,1901
1986,1936,1918
2023,1955,1920
2014,1952,1909
1997,1939,1907
1999,1966,1930
2029,2023,1936
2022,1936,1891
1995,1955,1904
2000,1891,1936
2027,2039,1939
2022,1974,1916
1984,1930,1901
1984,1950,1913
2019,1949,1935
2026,1991,1913
1998,1892,1904
2000,1916,1930
2032,1966,1937
2032,2003,1909
2001,1863,1904
2003,1985,1935
2040,1968,1939
2027,1920,1906
1982,1915,1889
1994,1935,1926
2035,1968,1937
2031,2023,1910
1991,1939,1903
1994,1918,1923
2032,1969,1930
2032,2025,1904
1984,1953,1891
1993,1991,1914
2033,1951,1931
2032,1941,1909
1994,1977,1904
1999,1946,1936
2026,1925,1933
2019,1953,1898
1975,1879,1885
1983,1931,1914
2033,1962,1941
2042,2017,1922
1999,1948,1901
1988,1913,1917
2022,1949,1920
2032,1970,1905
2000,1948,1904
1991,1938,1922
2029,1975,1934
2019,1950,1902
1984,1856,1893
1989,1882,1920
2017,1959,1935
2026,1954,1906
1996,1921,1895
1997,1927,1933
2032,1968,1936
2031,1986,1899
1989,1931,1890
1991,1931,1933
2035,1961,1947
2032,1970,1918
1989,1950,1899
1985,1968,1919
2025,1984,1931
2028,1968,1905
1982,1936,1899
1987,1911,1921
2027,1952,1923
2029,1975,1898
1998,1942,1897
1989,1935,1930
2021,1981,1934
2026,1987,1909
1997,1941,1904
1989,1940,1923
2020,1974,1925
2017,1969,1891
1983,1935,1893
1982,1937,1927
2017,1967,1930
2019,1974,1903
1997,1947,1904
1995,1946,1927
2018,1991,1930
2018,1962,1904
1986,1885,1899
1983,1911,1918
2020,1967,1923
2021,1972,1903
1984,1941,1904
1984,1920,1930
2010,1963,1922
2011,1959,1904
1989,1959,1901
1997,1936,1933
2026,1958,1934
2009,1965,1897
1971,1936,1887
1973,1936,1914
2015,1966,1919
2023,1979,1901
1991,1940,1898
1986,1905,1920
2010,1939,1913
2009,1989,1884
1973,1958,1875
1979,1922,1908
2018,1968,1923
2016,1987,1903
1981,1958,1892
1981,1910,1909
2014,1942,1921
2021,1968,1904
1984,1943,1893
1975,1933,1924
2001,1963,1930
2014,1975,1898
1984,1934,1895
1987,1906,1929
2006,1974,1936
2017,1998,1910
1984,1953,1888
1983,1947,1922
2017,1975,1934
2019,1972,1908
1989,1919,1899
1971,1923,1918
1999,1957,1927
2013,1967,1904
1979,1955,1891
1973,1938,1913
2013,1961,1931
2013,1977,1907
1972,1935,1902
1971,1916,1916
2003,1957,1925
2016,1985,1903
1978,1953,1887
1974,1921,1915
2002,1950,1926
2014,1973,1904
1971,1920,1889
1966,1917,1919
2003,1943,1935
2006,1963,1905
1971,1946,1901
1968,1936,1923
1999,1949,1932
2009,1953,1906
1978,1937,1899
1973,1933,1935
2002,1943,1932
2017,1966,1904
1983,1946,1904
1984,1936,1934
2003,1957,1935
2005,1926,1905
1972,1931,1893
1981,1936,1926
2013,1952,1940
2005,1956,1915
1971,1927,1891
1970,1922,1915
2003,1966,1927
2020,1987,1907
1984,1935,1895
1982,1894,1915
2006,1929,1925
2017,1954,1903
1984,1935,1899
1979,1911,1917
2022,1953,1931
2022,1954,1914
1981,1921,1904
1973,1920,1920
1999,1947,1917
2016,1978,1911
1988,1942,1904
1973,1927,1920
1995,1947,1931
2014,1958,1919
1984,1923,1904
1974,1909,1911
1989,1936,1907
1990,1966,1891
1978,1938,1904
1985,1931,1941
2019,1970,1936
2025,1980,1905
1978,1922,1877
1968,1872,1904
2005,1920,1915
2014,1939,1898
1982,1921,1887
1985,1931,1919
2002,1949,1922
2001,1946,1893
1968,1920,1887
1965,1926,1919
1997,1956,1936
2007,1962,1916
1966,1923,1902
1967,1920,1919
2001,1950,1930
2011,1967,1909
1968,1930,1894
1975,1906,1925
2011,1918,1931
2006,1952,1904
1975,1931,1888
1974,1924,1920
2001,1945,1936
2007,1937,1905
1978,1919,1891
1969,1915,1913
1993,1930,1919
2000,1935,1904
1983,1927,1889
1973,1915,1905
2002,1940,1915
2011,1941,1893
1982,1906,1879
1975,1892,1915
2003,1943,1918
2011,1901,1897
1977,1875,1889
1973,1923,1920
2002,1955,1922
2001,1952,1886
1976,1915,1872
1968,1903,1901
2010,1935,1926
2015,1951,1903
1970,1918,1907
1965,1904,1892
2004,1947,1936
2025,1939,1935
1985,1903,1857
1963,1891,1911
1996,1920,1930
2017,1968,1941
1977,1921,1890
1971,1888,1943
2000,1915,1898
2015,1936,1929
1978,1906,1905
1964,1899,1917
2001,1926,1915
2006,1945,1881
1968,1915,1853
1950,1888,1869
1987,1899,1914
2014,1943,1914
1984,1926,1885
1973,1911,1909
1995,1935,1930
2000,1941,1921
1968,1903,1859
1968,1906,1918
2001,1936,1959
2000,1947,1913
1966,1904,1875
1969,1904,1872
2003,1933,1935
2017,1953,1883
1968,1910,1875
1968,1919,1892
2000,1922,1919
2002,1921,1859
1971,1904,1916
1973,1898,1909
1993,1922,1918
2001,1927,1901
1979,1945,1853
1962,1919,1907
2000,1941,1930
2009,1953,1906
1984,1931,1895
1972,1922,1939
1997,1921,1921
2001,1943,1889
1984,1919,1906
1984,1895,1919
2000,1936,1901
2005,1953,1881
1988,1925,1895
1987,1925,1920
2017,1942,1931
2009,1965,1925
1979,1927,1910
1978,1904,1930
2011,1934,1924
2015,1954,1897
1975,1923,1889
1968,1911,1892
2004,1922,1919
2005,1941,1911
1970,1934,1895
1977,1913,1967
2003,1936,1962
2018,1949,1891
1985,1927,1884
1975,1918,1948
2001,1964,1932
2000,1941,1911
1973,1917,1878
1968,1929,1936
1995,1966,1943
2001,1959,1908
1961,1926,1885
1961,1932,1925
2017,1936,1924
2014,1959,1913
1966,1920,1925
1956,1904,1923
2002,1938,1943
2015,1978,1897
1974,1924,1918
1959,1906,1915
1985,1937,1950
2003,1958,1922
1978,1930,1930
1965,1935,1904
2000,1936,1923
2021,1936,1899
1987,1936,1901
1975,1922,1911
1998,1936,1938
2014,1951,1926
1978,1924,1901
1966,1920,1934
1988,1933,1936
2003,1954,1936
1969,1926,1894
1969,1914,1930
2009,1936,1954
2012,1951,1911
1969,1926,1890
1968,1936,1942
2000,1936,1971
2017,1936,1907
1980,1918,1898
1961,1907,1904
1984,1934,1920
2006,1957,1909
1971,1926,1886
1957,1915,1903
1999,1945,1957
2014,1958,1918
1986,1939,1892
1973,1929,1917
1990,1941,1904
1996,1967,1883
1979,1931,1886
1983,1929,1903
2007,1952,1936
2010,1968,1873
1975,1949,1888
1965,1924,1935
2007,1963,1958
2018,1975,1908
1983,1923,1843
1974,1922,1914
2000,1953,1920
2001,1984,1888
1975,1952,1886
1961,1936,1934
1996,1963,1962
2003,1951,1871
1977,1898,1883
1969,1904,1913
1998,1977,1977
2000,1985,1903
1977,1949,1922
1978,1921,1922
2003,1968,1907
2010,1962,1894
1983,1920,1888
1968,1920,1919
1996,1947,1936
2000,1968,1905
1973,1949,1894
1955,1925,1905
1990,1942,1932
2014,1957,1930
1989,1936,1967
1970,1937,1924
1990,1955,1925
2001,1946,1903
1974,1918,1848
1973,1931,1930
2007,1968,1952
2007,1970,1921
1974,1936,1954
1970,1954,1937
2000,1967,1934
2007,1945,1897
1989,1919,1930
1983,1905,1909
1995,1942,1966
2007,1962,1919
1977,1929,1878
1970,1911,1906
2004,1950,1968
2019,1943,1930
1981,1909,1889
1961,1893,1893
1998,1933,2006
2002,1954,1918
1975,1907,1885
1970,1887,1935
2006,1919,1933
2029,1934,1919
1981,1916,1898
1968,1894,1922
1997,1901,1936
2009,1920,1914
1989,1904,1901
1969,1891,1926
1987,1914,1936
2000,1919,1915
1982,1910,1907
1968,1895,1922
1999,1907,1942
2011,1923,1924
1983,1901,1900
1968,1854,1915
2000,1892,1939
2015,1914,1921
1986,1899,1903
1968,1879,1925
2003,1906,1938
2027,1920,1920
1984,1904,1894
1968,1885,1909
1999,1901,1936
2015,1936,1920
1983,1909,1898
1973,1887,1910
1994,1913,1935
2009,1925,1906
1978,1899,1893
1943,1885,1926
2013,1907,1952
2081,1926,1929
1995,1898,1907
1945,1901,1930
2021,1929,1943
1968,1920,1915
2007,1883,1899
1931,1878,1936
1990,1905,1948
1969,1954,1923
1971,1938,1903
2015,1889,1920
1988,1889,1945
1998,1910,1927
1989,1919,1904
1978,1906,1917
2021,1922,1936
2034,1932,1923
1966,1909,1908
1972,1909,1929
1991,1933,1937
2020,1947,1921
1984,1887,1893
1965,1898,1920
2003,1930,1939
2014,1898,1914
1957,1870,1890
1959,1895,1914
1991,1921,1927
1990,1931,1904
1957,1907,1893
1996,1890,1913
1987,1910,1933
2009,1927,1915
1975,1914,1897
1980,1891,1930
1991,1939,1939
2032,1962,1923
1979,1935,1915
1984,1909,1920
1989,1946,1931
2001,1936,1919
1964,1905,1899
1953,1883,1920
1978,1917,1936
1983,1953,1919
2019,1935,1903
1951,1894,1918
1970,1919,1931
1984,1982,1919
1981,1956,1904
1935,1925,1920
1967,1935,1936
1996,1948,1922
1971,1936,1904
1962,1930,1917
1994,1964,1951
2001,1962,1922
1943,1920,1885
1936,1906,1902
2001,1939,1923
1937,1963,1905
1968,1922,1893
1919,1920,1918
1993,1955,1937
1995,1974,1915
1942,1951,1895
1950,1935,1916
1993,1954,1936
2007,1965,1921
1988,1958,1904
1965,1931,1919
2018,1945,1937
2002,1968,1921
1971,1971,1893
1971,1937,1925
1989,1955,1938
2032,1981,1910
1931,1931,1887
1941,1927,1910
1939,1959,1936
1954,1981,1918
1969,1959,1899
1953,1945,1919
1957,1964,1936
1968,1982,1920
1975,1963,1902
1936,1940,1920
1974,1957,1933
2005,1980,1919
1946,1966,1901
1919,1947,1904
1947,1967,1935
2030,1995,1917
1963,1971,1901
1907,1943,1922
1954,1963,1933
2021,1984,1925
1975,1973,1903
1978,1956,1915
1994,1969,1942
2000,1973,1915
1963,1955,1891
1946,1943,1917
1958,1969,1936
1968,1996,1919
1919,1963,1895
1968,1947,1918
1994,1991,1936
2016,2002,1928
1985,1975,1899
1967,1967,1911
1985,1992,1936
2006,1984,1919
1985,1962,1898
1963,1951,1907
1983,1978,1935
1995,1986,1915
1982,1979,1898
1973,1943,1911
2033,1963,1933
2027,1986,1923
1974,1966,1904
1969,1949,1920
2000,1968,1936
1969,1979,1919
1943,1966,1895
1937,1968,1921
2001,1974,1936
1981,1970,1920
1940,1968,1882
1968,1948,1904
2024,1995,1936
2032,2000,1919
1973,1965,1894
1984,1950,1911
1968,1977,1934
1983,1987,1906
1983,1961,1889
1970,1956,1921
2004,1978,1939
2032,2000,1921
2006,1966,1891
1936,1939,1910
2000,1944,1936
1986,1968,1922
2003,1975,1901
1975,1962,1927
2073,1972,1943
2027,1985,1918
1985,1963,1887
1968,1943,1908
2000,1970,1936
2013,1981,1915
1983,1973,1901
1962,1943,1914
1995,1950,1943
2062,1970,1924
1988,1961,1904
1977,1949,1922
1985,1957,1939
2010,1984,1917
1984,1963,1906
1998,1947,1921
1968,1976,1936
1989,1983,1907
1985,1950,1884
1957,1945,1904
1980,1971,1923
1965,2000,1911
1968,1975,1891
1969,1934,1920
1995,1962,1936
1927,1987,1919
1936,1961,1902
1979,1951,1918
2007,1975,1933
2002,1984,1914
1979,1963,1882
1968,1936,1900
1983,1972,1925
1997,1984,1904
1974,1981,1886
1967,1971,1910
1986,1962,1930
1999,1968,1904
1983,1958,1887
1969,1951,1907
1989,1974,1926
2004,1980,1903
1977,1978,1887
1959,1963,1909
1983,1967,1926
2001,1977,1907
1978,1943,1887
1968,1950,1910
1997,1975,1936
2001,1986,1906
1979,1968,1881
1952,1949,1887
1971,1969,1908
2001,1986,1904
1987,1966,1897
1966,1935,1910
1975,1947,1918
1995,1979,1897
1984,1968,1882
1969,1937,1904
1997,1966,1935
2001,1985,1909
1974,1940,1888
1953,1922,1899
1979,1952,1914
1997,1963,1904
1963,1941,1875
1953,1921,1899
1985,1951,1926
2001,1963,1914
1969,1963,1884
1949,1952,1906
1984,1945,1927
2007,1962,1915
1984,1949,1893
1967,1935,1917
1984,1946,1935
1997,1968,1909
1974,1962,1903
1964,1945,1918
1986,1923,1929
2017,1935,1917
1991,1949,1900
1959,1938,1919
1987,1953,1936
2007,1969,1921
1987,1955,1894
1968,1936,1911
1986,1964,1936
2002,1984,1920
1978,1945,1885
1958,1931,1906
1983,1955,1940
2002,1975,1918
1978,1968,1889
1962,1920,1899
1982,1930,1922
2007,1958,1915
1984,1956,1886
1967,1936,1894
1987,1941,1914
2002,1956,1900
1973,1968,1887
1963,1951,1910
1983,1951,1927
1997,1958,1904
1977,1948,1877
1955,1942,1890
1977,1938,1915
2001,1955,1911
1979,1917,1879
1951,1916,1891
1984,1951,1919
2000,1947,1915
1968,1934,1883
1949,1929,1904
1968,1944,1922
1990,1949,1895
1965,1938,1869
1941,1935,1891
1977,1949,1920
1999,1966,1906
1968,1939,1877
1954,1929,1892
1981,1936,1925
2003,1959,1914
1971,1936,1891
1950,1915,1899
1967,1925,1911
1984,1943,1899
1969,1935,1883
1951,1930,1891
1971,1942,1921
1993,1965,1904
1968,1926,1877
1947,1904,1890
1975,1931,1925
1991,1970,1907
1964,1939,1874
1941,1909,1893
1970,1931,1920
1994,1963,1903
1963,1946,1873
1945,1920,1889
1972,1931,1920
1984,1953,1904
1966,1968,1878
1946,1934,1901
1970,1920,1918
1987,1954,1899
1968,1931,1869
1950,1919,1899
1962,1941,1930
1986,1946,1907
1958,1936,1878
1939,1895,1893
1968,1925,1923
1994,1959,1918
1963,1936,1879
1935,1907,1883
1965,1917,1917
1991,1949,1908
1973,1950,1888
1959,1933,1902
1967,1921,1919
1985,1943,1907
1967,1936,1879
1945,1913,1889
1974,1928,1920
2000,1946,1915
1968,1936,1885
1947,1919,1904
1968,1930,1921
1986,1945,1910
1968,1922,1876
1939,1911,1890
1968,1934,1919
2000,1965,1915
1969,1942,1888
1946,1936,1899
1970,1933,1918
1989,1939,1898
1965,1936,1870
1946,1907,1898
1966,1911,1921
1986,1937,1911
1965,1937,1881
1941,1917,1895
1968,1931,1933
2000,1957,1917
1974,1948,1877
1936,1905,1885
1963,1927,1920
1986,1965,1915
1978,1942,1891
1955,1918,1894
1961,1936,1920
1985,2010,1914
1967,1961,1889
1936,1883,1895
1961,1911,1921
1993,2000,1921
1968,1940,1888
1936,1953,1887
1963,1918,1917
1989,1969,1910
1980,1919,1891
1948,1948,1887
1966,1971,1914
1993,1947,1911
1974,1934,1887
1953,1918,1891
1974,1923,1919
2000,1945,1910
1965,1943,1883
1946,1904,1894
1973,1955,1921
1998,1957,1910
1982,1955,1884
