1999,1981,1920
1998,1967,1916
1927,1921,1857
1938,1936,1889
2002,1973,1935
2044,1975,1910
1984,1936,1862
1919,1931,1889
2015,1968,1936
1994,1967,1913
1923,1917,1854
1961,1929,1891
1994,1968,1926
1994,1955,1897
1920,1923,1857
1925,1927,1893
1987,1975,1931
1983,1967,1893
1874,1930,1852
1935,1935,1895
2039,1967,1939
2019,1967,1915
1908,1926,1863
1947,1931,1886
1979,1967,1937
2031,1959,1904
1925,1920,1869
1931,1931,1890
1999,1965,1936
1995,1956,1909
1935,1916,1860
1950,1937,1899
2002,1983,1949
2006,1967,1907
1917,1903,1856
1943,1911,1896
2000,1953,1945
2000,1967,1921
1947,1935,1863
1949,1927,1888
1995,1963,1937
2000,1947,1907
1949,1923,1854
1943,1931,1883
2017,1957,1938
2007,1958,1906
1931,1917,1846
1934,1929,1865
2001,1974,1949
1974,1967,1923
1939,1921,1871
1938,1925,1901
1969,1955,1931
2022,1950,1913
1920,1911,1855
1948,1917,1875
2010,1967,1936
1963,1963,1904
1934,1905,1855
1933,1904,1882
1984,1936,1919
2000,1953,1875
1921,1915,1856
1887,1942,1899
2016,1954,1936
2035,1936,1909
1936,1904,1872
1907,1919,1895
2030,1951,1938
1951,1958,1916
1942,1918,1857
1921,1918,1870
2015,1954,1907
1991,1949,1899
1917,1906,1853
1967,1923,1899
2014,1968,1952
1953,1959,1911
1923,1910,1854
1885,1907,1873
1965,1950,1920
1982,1968,1911
1921,1919,1856
1906,1902,1881
2005,1942,1931
1986,1950,1905
1903,1906,1858
1971,1920,1887
1965,1958,1936
1983,1964,1913
1901,1929,1862
1938,1927,1873
1986,1948,1909
1994,1931,1893
1881,1900,1854
1936,1917,1875
1973,1962,1936
2036,1957,1925
1943,1905,1864
1913,1904,1872
1982,1953,1922
2006,1952,1908
1936,1907,1865
1932,1915,1872
1987,1961,1924
1993,1949,1905
1857,1920,1858
1973,1927,1877
1944,1960,1929
2023,1953,1905
1927,1903,1837
1923,1917,1883
1980,1958,1945
1983,1953,1927
1917,1914,1861
1909,1920,1878
1984,1958,1925
1991,1958,1911
1920,1899,1856
1915,1910,1866
1984,1952,1906
1984,1959,1915
1929,1925,1858
1983,1921,1892
1967,1962,1946
2001,1958,1925
1923,1921,1857
1904,1905,1859
1951,1955,1925
2029,1966,1906
1904,1921,1864
1915,1919,1875
1978,1959,1909
1990,1957,1887
1937,1920,1862
1941,1936,1902
1983,1999,1952
2014,1974,1919
1973,1927,1845
1887,1930,1879
1972,1970,1946
1991,1975,1913
1925,1932,1866
1920,1927,1885
1978,1966,1936
2003,1965,1909
1893,1923,1851
1926,1921,1872
1981,1965,1920
1993,1955,1889
1923,1905,1808
1936,1923,1822
1968,1959,1931
1959,1959,1945
1927,1926,1895
1937,1904,1820
1994,1936,1853
1994,1971,1977
1858,1937,1919
1898,1922,1903
1966,1950,1929
1984,1949,1901
1909,1909,1850
1895,1901,1855
1955,1927,1901
1971,1936,1886
1919,1903,1859
1968,1885,1884
2044,1931,1921
2017,1929,1868
1947,1897,1826
1926,1907,1888
1979,1913,1924
1991,1903,1865
1922,1865,1839
1918,1866,1862
1959,1919,1894
1978,1909,1871
1920,1851,1872
1910,1866,1914
1968,1898,1929
1971,1890,1899
1920,1853,1856
1920,1871,1862
1977,1907,1906
1987,1899,1901
1920,1843,1855
1906,1828,1862
1975,1885,1911
1986,1887,1887
1936,1823,1840
1915,1847,1865
1958,1867,1936
1968,1856,1904
1909,1834,1824
1905,1866,1865
1955,1879,1923
1962,1883,1899
1917,1789,1856
1932,1745,1853
1968,1920,1872
1951,1895,1888
1906,1840,1857
1921,1840,1872
1959,1845,1899
1959,1829,1864
1915,1797,1831
1937,1825,1876
1981,1855,1917
1975,1847,1874
1927,1825,1839
1945,1829,1872
1982,1853,1900
1989,1855,1872
1951,1840,1827
1945,1821,1895
1984,1846,1939
1985,1889,1895
1951,1870,1861
1958,1869,1904
1997,1850,1934
1987,1874,1888
1975,1848,1865
1997,1862,1879
2011,1923,1903
1998,1877,1929
1961,1840,1891
1974,1851,1921
2017,1857,1959
2029,1914,1931
1991,1917,1878
1983,1856,1886
2003,1874,1909
2003,1869,1901
1968,1856,1879
1983,1887,1918
2015,1917,1946
2020,1919,1918
2006,1917,1904
1999,1902,1921
2004,1904,1930
1985,1893,1894
1974,1868,1882
1982,1885,1911
2007,1894,1936
2003,1906,1918
1981,1910,1904
1997,1875,1936
2017,1879,1949
2016,1863,1922
1991,1850,1911
1997,1893,1934
2016,1892,1943
2015,1887,1921
1984,1894,1911
1990,1872,1941
2017,1872,1963
2000,1878,1922
1970,1854,1890
2000,1850,1957
2031,1912,1990
2022,1905,1955
1997,1872,1917
2000,1839,1967
2033,1845,1987
2021,1926,1951
1997,1879,1918
2020,1773,1971
2062,1738,2017
2033,1866,1967
1997,1973,1917
2011,1954,1945
2062,1923,1983
2055,1898,1965
2004,1861,1938
2027,1867,1977
2098,1903,2022
2070,1915,1985
1999,1890,1921
2001,1893,1957
2039,1916,1991
2053,1934,1965
2030,1917,1930
2033,1911,1974
2059,1957,2004
2053,1969,1968
2022,1939,1933
2032,1950,1975
2064,1984,2015
2062,1999,1984
2029,1989,1961
2025,1989,1971
2042,2022,1979
2064,2054,1983
2058,2001,1978
2044,1979,1982
2055,2062,1974
2039,2047,1953
2016,2019,1938
2036,2038,1968
2080,2054,2002
2064,2043,1986
2030,2053,1948
2035,2053,1949
2064,2043,1975
2063,2041,1984
2032,2032,1954
2041,2043,1964
2067,2064,2003
2073,2066,2013
2043,2045,1969
2054,2064,1967
2067,2071,1991
2061,2036,1983
2034,2046,1953
2066,2064,1981
2091,2065,2010
2079,2045,1991
2027,2026,1945
2020,2030,1936
2041,2045,1984
2073,2071,2027
2065,2054,1990
2065,2053,1974
2064,2012,2000
2053,2025,2000
2032,2013,1963
2015,2011,1931
2036,2023,1968
2061,2030,1984
2033,2030,1966
2023,2020,1965
2034,2023,1982
2036,2021,1973
2014,2007,1942
2013,2014,1936
2038,2016,1968
2041,2005,1970
2006,1999,1919
2008,2000,1939
2019,2007,1975
2020,2006,1970
2000,1989,1926
2000,1993,1926
2019,1997,1962
2016,1983,1968
1998,1966,1936
1991,1975,1921
2005,2021,1945
2003,2010,1958
1989,1977,1927
1984,1940,1913
2010,2034,1965
2033,2013,1988
2006,1970,1935
2000,2022,1934
1972,1943,1908
1967,1935,1917
1979,1927,1914
2037,2032,1949
2013,2000,1941
1969,1923,1918
1968,1972,1905
1999,1991,1916
1979,1947,1904
1985,1973,1907
1974,1913,1886
1970,1940,1889
1984,1942,1921
1997,1946,1925
1968,1901,1881
1970,1938,1877
1997,1956,1916
1987,1929,1919
1968,1983,1887
1973,1981,1898
1998,1958,1921
1990,1938,1921
1964,1875,1884
1965,1914,1877
1985,1941,1910
1999,1904,1923
2000,1968,1916
1971,1936,1887
1950,1915,1873
1967,1920,1889
1945,1906,1861
1948,1884,1862
1983,1917,1905
1982,1946,1915
1963,1898,1877
1981,1933,1895
1981,1927,1907
1957,1925,1893
1945,1851,1866
1947,1871,1854
1967,1886,1881
1969,1895,1897
1973,1920,1890
1984,1953,1902
1970,1904,1904
1945,1838,1873
1936,1869,1856
1947,1925,1861
1968,1875,1892
1968,1917,1895
1954,1879,1871
1962,1921,1875
1968,1940,1901
1959,1872,1897
1947,1847,1856
1950,1904,1867
1970,1828,1903
1968,1904,1889
1938,1907,1859
1936,1895,1863
1956,1894,1902
1966,1902,1906
1943,1853,1855
1936,1904,1856
1959,1916,1893
1959,1907,1902
1936,1934,1863
1937,1877,1851
1950,1887,1885
1956,1897,1897
1937,1938,1867
1934,1892,1859
1949,1931,1890
1955,1948,1903
1933,1933,1867
1930,1911,1857
1958,1907,1885
1959,1891,1910
1937,1899,1875
1927,1944,1864
1953,1972,1894
1958,1933,1903
1936,1905,1871
1930,1903,1859
1954,1931,1879
1952,1921,1905
1927,1905,1874
1924,1925,1867
1935,1950,1883
1941,1949,1901
1936,1819,1870
1929,1922,1855
1943,1913,1874
1953,1947,1895
1952,1989,1886
1942,1951,1875
1957,1961,1895
1970,1957,1909
1954,1951,1889
1943,1935,1867
1967,1955,1904
1973,1958,1920
1959,1940,1881
1942,1945,1871
1957,1942,1901
1959,2000,1903
1934,1965,1869
1921,1962,1842
1931,1941,1862
1968,1967,1917
1951,1906,1889
1940,1937,1863
1941,1953,1872
1950,1968,1888
1938,1916,1872
1932,1900,1859
1936,1919,1883
1939,1890,1891
1921,1936,1857
1920,1942,1855
1939,1920,1887
1951,1931,1892
1920,1899,1854
1920,1923,1846
1943,1931,1882
1953,1936,1888
1927,1920,1842
1921,1919,1833
1938,1936,1862
1956,1973,1899
1934,1922,1869
1935,1934,1859
1948,1922,1875
1957,1920,1885
1937,1920,1858
1933,1919,1859
1953,1898,1890
1962,1925,1907
1936,1929,1874
1921,1935,1840
1942,1953,1885
1950,1926,1909
1937,1915,1874
1935,1922,1856
1957,1929,1883
1966,1931,1902
1936,1923,1867
1926,1918,1856
1953,1923,1886
1968,1943,1895
1935,1958,1854
1927,1922,1853
1950,1922,1893
1965,1940,1910
1939,1929,1871
1935,1930,1855
1953,1936,1879
1961,2007,1893
1937,1930,1870
1935,1937,1863
1954,1919,1889
1962,1936,1902
1943,1930,1866
1935,1929,1861
1954,1946,1887
1967,1943,1904
1951,1934,1872
1935,1935,1858
1951,1938,1888
1957,1936,1899
1942,1936,1865
1936,1943,1857
1959,1949,1888
1959,1948,1904
1935,1941,1877
1931,1938,1866
1957,1943,1889
1959,1934,1894
1945,1929,1870
1945,1936,1861
1958,1950,1885
1959,1951,1888
1937,1938,1859
1933,1923,1847
1955,1929,1885
1956,1943,1902
1933,1955,1863
1930,1943,1861
1954,1936,1887
1963,1933,1904
1936,1925,1872
1939,1931,1861
1953,1941,1888
1956,1940,1903
1933,1937,1871
1920,1939,1859
1943,1943,1887
1945,1936,1897
1919,1920,1851
1891,1910,1831
1931,1934,1872
1949,1956,1919
1942,1949,1903
1938,1939,1877
1953,1943,1894
1959,1939,1893
1931,1941,1874
1920,1936,1863
1935,1933,1872
1935,1936,1899
1920,1930,1866
1920,1935,1856
1949,1939,1897
1946,1940,1903
1925,1926,1861
1919,1920,1845
1926,1918,1877
1932,1920,1893
1920,1957,1884
1920,1968,1878
1931,1923,1883
1923,1906,1886
1927,1915,1874
1922,1915,1865
1937,1931,1902
1925,1926,1885
1884,1907,1839
1903,1907,1850
1945,1936,1904
1946,1937,1916
1913,1922,1872
1893,1909,1843
1904,1910,1850
1931,1915,1874
1942,1923,1884
1933,1930,1867
1936,1927,1891
1936,1918,1895
1907,1910,1856
1902,1911,1835
1914,1919,1853
1930,1911,1878
1919,1904,1873
1915,1909,1859
1931,1920,1873
1920,1906,1872
1894,1899,1830
1872,1898,1811
1930,1914,1881
1958,1920,1917
1929,1903,1883
1915,1913,1856
1927,1914,1871
1931,1920,1874
1907,1913,1856
1904,1903,1857
1920,1918,1883
1935,1922,1901
1919,1913,1873
1904,1907,1859
1922,1908,1875
1925,1900,1872
1889,1878,1828
1909,1909,1853
1952,1935,1914
1951,1930,1904
1921,1909,1866
1909,1902,1857
1930,1905,1874
1933,1919,1883
1917,1903,1872
1904,1904,1870
1923,1909,1876
1936,1915,1868
1906,1910,1848
1901,1903,1867
1904,1914,1895
1934,1924,1897
1922,1921,1879
1920,1918,1883
1934,1934,1902
1942,1926,1892
1918,1918,1867
1909,1911,1873
1933,1920,1895
1939,1929,1899
1923,1914,1874
1919,1902,1881
1937,1913,1889
1935,1920,1889
1911,1912,1866
1906,1901,1872
1931,1911,1897
1936,1906,1886
1918,1904,1858
1911,1906,1883
1932,1919,1904
1946,1924,1894
1929,1915,1873
1921,1906,1875
1945,1918,1909
1947,1924,1905
1934,1905,1881
1926,1906,1874
1947,1919,1902
1951,1923,1905
1933,1911,1883
1923,1907,1873
1952,1907,1901
1958,1906,1913
1950,1917,1902
1959,1943,1904
1952,1923,1903
1945,1913,1897
1929,1900,1867
1923,1897,1856
1949,1913,1894
1961,1921,1910
1947,1919,1887
1935,1918,1872
1952,1925,1894
1968,1925,1917
1964,1927,1897
1941,1922,1886
1957,1931,1909
1971,1926,1936
1957,1918,1845
1951,1930,1879
1971,1948,1936
1982,1938,1915
1968,1934,1870
1954,1938,1891
1971,1941,1913
1983,1943,1924
1969,1941,1913
1967,1949,1931
1984,1955,1892
1996,1951,1968
1975,1943,1910
1975,1945,1931
1983,1961,1890
1984,1954,1936
1966,1943,1925
1964,1957,1915
1994,1971,1949
1993,1965,1943
1970,1951,1872
1963,1939,1902
1984,1958,1929
1985,1967,1951
1969,1956,1913
1962,1965,1904
1982,1973,1936
1995,1969,1954
1980,1964,1925
1970,1967,1906
1985,1975,1927
1991,1971,1921
1973,1952,1899
1968,1947,1904
1990,1967,1936
2000,1968,1919
1982,1967,1952
1969,1968,1915
2000,1975,1936
2002,1968,1939
1984,1966,1927
1980,1963,1913
1994,1968,1925
2000,1971,1950
1984,1961,1923
1981,1958,1909
2000,1984,1908
2000,1975,1935
1985,1969,1908
1974,1962,1915
1991,1982,1936
2000,1985,1926
1987,1969,1950
1975,1968,1908
1995,1970,1941
2000,1970,1930
1986,1967,1933
1978,1964,1911
1998,1968,1936
2005,1968,1980
1985,1959,1933
1974,1966,1900
1985,1972,1953
1987,1974,1937
1975,1966,1949
1971,1967,1885
1994,1975,1926
1996,1967,1953
1975,1975,1910
1955,1974,1882
1981,1984,1925
1983,1983,1959
1972,1973,1930
1961,1975,1909
1982,1981,1952
1989,1982,1955
1970,1974,1920
1958,1971,1891
1980,1975,1934
1975,1978,1939
1958,1967,1936
1950,1957,1936
1969,1978,1930
1979,1984,1943
1968,1970,1919
1959,1968,1891
1968,1975,1904
1987,1974,1947
1973,1962,1886
1961,1964,1899
1983,1972,1968
1982,1968,1968
1968,1966,1933
1963,1959,1920
1978,1965,1909
1990,1978,1919
1974,1978,1914
1966,1968,1872
1983,1971,1910
1991,1968,1932
1975,1952,1910
1967,1959,1963
1984,1968,1921
1987,1963,1937
1973,1953,1931
1963,1945,1897
1986,1954,1917
1989,1949,1934
1968,1956,1909
1954,1954,1889
1968,1957,1920
1971,1958,1935
1968,1953,1903
1966,1950,1897
1984,1952,1903
1988,1954,1905
1977,1946,1889
1959,1954,1878
1969,1969,1913
1981,1962,1921
1967,1951,1905
1953,1950,1889
1973,1968,1921
1984,1981,1907
1968,1957,1893
1955,1951,1903
1969,1963,1897
1998,1958,1895
1971,1955,1824
1968,1953,1895
1981,1956,1825
1985,1965,1963
1969,1955,1878
1965,1944,1876
1978,1955,1922
1989,1943,1917
1963,1945,1887
1965,1953,1875
1984,1959,1935
1987,1955,1915
1971,1950,1893
1958,1949,1872
1980,1957,1890
1978,1953,1903
1964,1941,1872
1959,1941,1856
1971,1953,1891
1984,1965,1906
1967,1952,1874
1950,1942,1872
1968,1954,1870
1982,1957,1906
1965,1941,1889
1953,1946,1857
1968,1959,1903
1975,1957,1907
1960,1949,1884
1951,1947,1867
1970,1951,1891
1982,1956,1923
1966,1938,1857
1946,1936,1866
1966,1952,1871
1975,1946,1917
1957,1931,1886
1952,1950,1860
1968,1958,1939
1981,1945,1906
1966,1937,1862
1946,1936,1927
1966,1937,1883
1968,1954,1887
1959,1939,1875
1951,1937,1891
1959,1939,1894
1968,1941,1925
1946,1935,1889
1942,1931,1854
1968,1942,1886
1977,1935,1904
1956,1937,1879
1938,1943,1865
1957,1954,1891
1965,1943,1903
1947,1934,1872
1937,1932,1855
1954,1948,1889
1966,1943,1909
1951,1938,1875
1936,1936,1856
1953,1937,1884
1967,1942,1898
1947,1931,1866
1936,1931,1854
1957,1940,1889
1967,1943,1909
1950,1932,1882
1936,1929,1857
1953,1938,1892
1965,1942,1911
1943,1931,1888
1933,1934,1858
1945,1949,1879
1962,1943,1899
1951,1931,1879
1941,1937,1860
1962,1951,1882
1968,1948,1897
1949,1936,1872
1908,1937,1872
1945,1942,1902
1997,1943,1914
1966,1937,1879
1966,1935,1855
1920,1943,1887
1921,1947,1911
1926,1937,1888
1943,1935,1867
1943,1952,1888
1957,1950,1898
1977,1935,1878
1936,1930,1863
1975,1952,1888
1969,1957,1904
1920,1938,1874
1934,1936,1856
1971,1942,1884
1977,1945,1904
1954,1937,1872
1914,1936,1856
1951,1947,1888
1963,1947,1904
1937,1938,1877
1934,1927,1857
1953,1937,1882
1977,1936,1901
1951,1933,1879
1943,1927,1854
1927,1943,1871
1939,1936,1903
1953,1923,1872
1940,1924,1856
1927,1934,1883
1998,1933,1899
1955,1930,1872
1937,1921,1859
1963,1931,1881
1966,1938,1897
1951,1942,1870
1943,1930,1854
1962,1935,1885
1968,1931,1905
1952,1936,1887
1912,1935,1861
1951,1937,1883
1935,1937,1905
1936,1934,1886
1926,1931,1859
1989,1940,1891
1920,1946,1914
1904,1936,1887
1937,1933,1870
1962,1941,1897
1959,1936,1913
1946,1933,1891
1929,1927,1870
1983,1942,1874
1943,1953,1904
1939,1937,1900
1942,1934,1873
1938,1938,1893
1964,1938,1914
1979,1931,1884
1936,1936,1867
1955,1942,1890
1958,1948,1910
1908,1939,1893
1953,1936,1866
1962,1932,1889
1968,1936,1907
1954,1936,1889
1956,1935,1867
1955,1943,1889
1968,1937,1904
1919,1925,1881
1929,1926,1856
1957,1924,1882
1961,1948,1908
1943,1939,1881
1943,1936,1856
1934,1936,1888
1959,1936,1911
1946,1919,1889
1968,1926,1869
1959,1936,1883
1974,1942,1902
1979,1933,1879
1905,1927,1862
1939,1936,1882
1971,1938,1904
1978,1931,1879
1991,1933,1855
1907,1941,1875
1979,1942,1904
1922,1936,1882
1950,1930,1855
1934,1936,1877
1967,1932,1904
1952,1931,1881
1962,1932,1859
1977,1951,1872
2014,1930,1904
1963,1923,1879
1936,1923,1857
1941,1934,1883
1966,1937,1904
1941,1926,1875
1935,1926,1853
1955,1936,1874
1965,1938,1901
1948,1931,1883
1937,1921,1866
2015,1936,1893
1967,1941,1903
1933,1933,1891
1973,1921,1871
1965,1939,1887
2008,1942,1902
2015,1936,1885
1922,1932,1861
1968,1938,1883
2003,1938,1909
1946,1936,1890
1927,1936,1862
1940,1942,1884
1962,1937,1904
1983,1934,1893
1900,1927,1865
1943,1930,1887
1971,1937,1905
1956,1926,1884
1958,1920,1865
1917,1938,1886
1955,1941,1904
1943,1936,1889
1941,1925,1856
1983,1935,1879
1955,1936,1911
1973,1923,1885
1955,1926,1856
1967,1941,1883
1956,1937,1911
1937,1934,1885
1943,1934,1859
1909,1933,1882
1926,1926,1905
1936,1935,1877
1930,1938,1861
1943,1942,1885
1953,1939,1905
1945,1929,1885
1949,1929,1856
1942,1945,1885
1970,1948,1904
1910,1936,1886
1953,1940,1877
1933,1919,1874
1937,1920,1887
1930,1914,1872
1925,1922,1856
1904,1936,1887
1950,1936,1904
1971,1921,1886
1929,1925,1861
1949,1936,1885
1954,1939,1901
1872,1929,1881
1933,1919,1855
1971,1933,1879
2018,1936,1906
1968,1931,1883
1931,1935,1871
1958,1963,1911
1933,1918,1891
1915,1899,1866
1920,1918,1865
1945,1956,1894
1946,1936,1901
1922,1915,1872
1923,1915,1865
1935,1935,1877
1949,1933,1899
1937,1931,1886
1920,1923,1862
1939,1931,1885
1957,1936,1914
1937,1929,1887
1919,1910,1867
1932,1936,1887
1952,1939,1919
1937,1936,1897
1926,1934,1872
1936,1936,1878
1938,1941,1904
1927,1934,1890
1922,1927,1872
1936,1937,1894
1947,1933,1919
1931,1929,1899
1909,1925,1861
1931,1919,1887
1943,1919,1918
1927,1929,1902
1926,1948,1889
1942,1947,1909
1927,1918,1906
1930,1922,1897
1930,1931,1880
1927,1930,1890
1927,1925,1903
1921,1917,1879
1907,1923,1866
1936,1934,1890
1948,1936,1916
1933,1936,1899
1924,1931,1858
1935,1946,1883
1951,1955,1934
1936,1945,1910
1911,1928,1870
1916,1930,1883
1925,1936,1911
1904,1936,1901
1904,1931,1872
1935,1943,1901
1951,1952,1914
1939,1935,1889
1928,1927,1872
1940,1936,1885
1966,1939,1906
1942,1931,1901
1933,1926,1868
1939,1936,1883
1968,1954,1923
1952,1935,1904
1922,1910,1867
1937,1931,1885
1962,1942,1919
1941,1927,1897
1925,1922,1877
1938,1935,1904
1957,1936,1919
1943,1932,1902
1936,1926,1871
1948,1941,1894
1962,1936,1920
1951,1927,1895
1933,1933,1869
1943,1948,1886
1954,1947,1919
1947,1936,1902
1933,1927,1878
1942,1936,1895
1958,1943,1910
1949,1923,1892
1933,1927,1871
1953,1936,1885
1963,1945,1915
1953,1937,1904
1936,1933,1871
1947,1939,1888
1966,1937,1920
1951,1935,1904
1938,1929,1873
1955,1935,1892
1964,1937,1910
1951,1935,1898
1931,1930,1872
1950,1936,1899
1967,1934,1917
1945,1929,1895
1931,1923,1870
1939,1931,1887
1958,1933,1918
1948,1926,1899
1936,1933,1870
1948,1951,1887
1962,1947,1914
1948,1942,1900
1931,1934,1872
1942,1935,1889
1955,1938,1910
1946,1929,1897
1935,1943,1869
1945,1941,1882
1968,1950,1911
1951,1941,1897
1942,1943,1869
1947,1941,1885
1959,1942,1904
1947,1941,1898
1936,1936,1872
1947,1939,1889
1968,1941,1916
1947,1936,1906
1933,1934,1875
1947,1943,1895
1967,1946,1915
1955,1931,1897
1939,1929,1872
1952,1947,1893
1971,1955,1921
1966,1947,1890
1939,1935,1861
1953,1936,1884
1966,1943,1912
1958,1954,1893
1939,1939,1865
1951,1944,1897
1970,1939,1919
1961,1930,1901
1936,1934,1872
1953,1937,1894
1968,1949,1914
1967,1935,1886
1942,1938,1862
1957,1947,1890
1968,1950,1914
1951,1953,1898
1941,1943,1871
1946,1946,1879
1956,1943,1902
1945,1935,1887
1936,1932,1859
1951,1942,1874
1953,1936,1904
1946,1927,1890
1933,1921,1861
1943,1938,1887
1965,1948,1918
1954,1936,1891
1935,1934,1858
1952,1936,1895
1965,1937,1914
1956,1927,1898
1942,1929,1863
1957,1947,1887
1965,1941,1914
1961,1952,1891
1934,1965,1871
1943,1915,1885
1964,1943,1920
1949,1947,1894
1927,1935,1872
1938,1981,1888
1962,1942,1909
1940,1908,1901
1927,1975,1871
1948,1926,1891
1963,1949,1905
1943,1946,1895
1927,1913,1865
1946,1932,1884
1968,1950,1911
1955,1924,1894
1935,1923,1871
1947,1954,1891
1967,1943,1919
1962,1923,1890
1943,1922,1863
1958,1936,1882
1971,1927,1915
1959,1931,1904
1942,1920,1859
1947,1957,1885
1963,1891,1911
1953,1947,1891
1936,1936,1859
1949,1947,1887
1966,1947,1922
1951,1957,1906
1939,1904,1874
1953,1932,1890
1971,1953,1918
1967,1945,1904
1947,1894,1879
1955,1920,1885
1974,1934,1920
1963,1905,1904
1945,1946,1869
1957,1937,1885
1969,1930,1915
1961,1923,1898
1942,1925,1867
1965,1904,1881
1975,1909,1914
1966,1919,1902
1941,1923,1875
1959,1909,1890
1968,1969,1917
1958,1954,1897
1946,1955,1873
1962,1957,1899
1969,1985,1914
1964,1920,1904
1947,1937,1865
1963,1909,1894
1975,1959,1919
1969,1919,1904
1945,1910,1885
1963,1967,1904
1979,1951,1926
1963,1904,1904
1953,1965,1874
1963,1900,1898
1976,1946,1924
1969,1933,1920
1952,1943,1887
1953,1935,1888
1962,1964,1909
1951,1922,1899
1941,1921,1873
1962,1968,1897
1972,1971,1920
1968,1922,1909
1947,1912,1883
1961,1940,1895
1977,1988,1931
1968,1954,1917
1947,1966,1878
1959,1909,1895
1975,1951,1920
1968,1966,1908
1945,1938,1879
1971,1953,1905
2003,2017,1958
1947,1968,1888
1920,1868,1846
1939,1937,1884
1966,1915,1925
1961,1948,1911
1942,1920,1884
1952,1965,1893
1970,1943,1927
1958,1933,1908
1945,1926,1873
1968,1927,1898
1975,2032,1924
1967,1943,1910
1951,1939,1871
1966,1945,1894
1973,1949,1922
1962,1936,1915
1936,1940,1884
1950,1937,1900
1973,1941,1923
1968,1937,1910
1941,1933,1887
1963,1958,1904
1990,1957,1947
1955,1920,1895
1917,1877,1845
1942,1934,1872
1965,1946,1904
1956,1930,1897
1934,1896,1871
1941,1966,1891
1968,1997,1924
1952,1882,1906
1947,1936,1891
1974,1965,1916
1957,1906,1904
1917,1861,1872
1905,1929,1853
1936,1936,1883
1963,1951,1918
1948,1932,1903
1936,1897,1869
1944,1922,1887
1963,1930,1921
1961,1907,1905
1949,1936,1883
1951,1915,1893
1973,1856,1925
1966,1931,1913
1946,1940,1885
1951,1939,1899
1968,1967,1917
1968,1950,1899
1947,1947,1879
1959,1945,1907
1968,1990,1936
1978,1963,1929
1941,1945,1875
1963,1955,1893
1981,1963,1924
1955,1936,1903
1947,1931,1879
1970,1958,1903
1974,1920,1922
1968,1939,1910
1954,1898,1874
1965,1950,1895
1983,1955,1919
1979,1951,1903
1965,1966,1882
1965,1955,1892
1973,1959,1917
1963,1949,1905
1957,1946,1887
1979,1971,1909
1975,1958,1918
1967,2015,1898
1936,1967,1865
1959,1957,1894
1979,1909,1921
1962,1951,1907
1936,1920,1872
1954,1941,1893
1978,1954,1930
1957,1970,1902
1943,1931,1872
1960,1941,1895
1979,1948,1918
1958,1936,1904
1936,1936,1875
1951,1938,1887
1968,1947,1920
1963,1943,1904
1947,1930,1874
1970,1957,1898
1971,1942,1914
1945,1925,1881
1933,1921,1866
1947,1936,1890
1974,1943,1919
1965,1935,1913
1953,1933,1872
1968,1949,1893
1973,1950,1917
1957,1933,1903
1943,1936,1858
1971,1951,1889
1968,1936,1904
1957,1922,1886
1941,1923,1867
1962,1933,1893
1977,1937,1921
1967,1936,1908
1954,1933,1874
1967,1947,1884
1983,1951,1918
1969,1941,1909
1950,1939,1879
1970,1962,1898
1994,1967,1930
1957,1925,1888
1936,1921,1856
1967,1948,1892
1968,1937,1907
1945,1930,1890
1933,1934,1860
1952,1945,1875
1968,1951,1915
1953,1949,1904
1942,1944,1877
1951,1943,1893
1963,1947,1915
1965,1937,1901
1945,1938,1872
1955,1947,1892
1969,1947,1923
1968,1943,1910
1961,1959,1889
1955,1945,1882
1968,1942,1910
1972,1951,1917
1951,1937,1890
1937,1933,1877
1963,1936,1910
1968,1943,1919
1959,1945,1887
1963,1936,1886
1983,1947,1921
1972,1947,1913
1951,1942,1888
1961,1954,1904
1979,1961,1936
1967,1951,1911
1946,1946,1879
1964,1950,1898
1984,1951,1924
1974,1939,1917
1957,1935,1882
1969,1965,1901
1978,1967,1931
1969,1953,1914
1952,1949,1882
1971,1963,1905
2004,1984,1953
1963,1938,1905
1930,1918,1865
1961,1939,1894
1987,1968,1936
1974,1947,1916
1934,1925,1872
1959,1942,1886
1978,1952,1925
1977,1948,1917
1957,1947,1886
1968,1957,1904
1983,1962,1930
1983,1954,1919
1954,1949,1881
1968,1954,1895
1983,1956,1920
1974,1949,1904
1952,1939,1885
1963,1941,1895
1984,1952,1919
1981,1955,1919
1964,1950,1897
1968,1957,1904
1984,1946,1922
1988,1964,1927
1972,1957,1892
1939,1926,1867
1968,1943,1910
1958,1936,1890
1942,1930,1866
1965,1946,1882
1984,1951,1918
1969,1941,1906
1952,1938,1872
1966,1940,1888
1991,1946,1918
1993,1953,1907
1963,1936,1878
1968,1937,1887
1983,1942,1915
1979,1938,1904
1965,1926,1872
1968,1942,1881
1983,1961,1911
1975,1949,1905
1954,1947,1875
1974,1955,1897
2000,1970,1930
1969,1936,1897
1951,1930,1864
1968,1945,1886
2000,1969,1936
1983,1953,1913
1950,1936,1863
1953,1938,1873
1974,1951,1909
1972,1939,1899
1954,1942,1881
1966,1948,1897
1987,1951,1921
1977,1946,1911
1950,1945,1879
1963,1955,1889
1980,1959,1915
1968,1950,1904
1941,1945,1871
1959,1949,1883
1971,1951,1904
1982,1962,1906
1950,1936,1871
1939,1927,1874
1968,1941,1914
1973,1956,1919
1953,1942,1873
1951,1938,1879
1966,1942,1907
1967,1935,1901
1947,1931,1872
1965,1936,1882
1982,1936,1936
1975,1926,1904
1954,1936,1875
1963,1950,1881
1979,1953,1905
1973,1950,1905
1954,1936,1851
1950,1934,1862
1967,1950,1914
1969,1943,1905
1953,1937,1855
1957,1946,1890
1973,1954,1921
1968,1943,1905
1952,1936,1865
1967,1949,1879
1981,1950,1941
1975,1947,1937
1948,1920,1845
1951,1930,1865
1985,1941,1961
1970,1927,1911
1949,1927,1871
1954,1941,1881
1973,1951,1906
1969,1940,1909
1946,1936,1871
1953,1945,1886
1979,1953,1907
1971,1942,1897
1949,1934,1867
1963,1938,1917
1985,1949,1895
1974,1936,1883
1946,1932,1869
1966,1936,1883
1983,1943,1930
1968,1940,1890
1944,1929,1867
1959,1936,1874
