1934,1932,1863
1936,1938,1872
1959,1939,1904
1963,1940,1911
1949,1949,1871
1954,1941,1863
1968,1937,1903
1975,1948,1904
1949,1936,1875
1946,1937,1872
1969,1942,1904
1973,1941,1904
1954,1936,1875
1954,1939,1872
1970,1946,1910
1968,1950,1908
1952,1933,1875
1951,1942,1877
1967,1951,1906
1968,1945,1919
1958,1911,1885
1961,1941,1877
1974,1957,1911
1981,1927,1918
1960,1901,1882
1957,1906,1878
1974,1965,1907
1977,2000,1911
1959,1930,1872
1954,1966,1871
1968,1959,1907
1973,1947,1904
1951,1959,1877
1947,1921,1872
1969,1915,1904
1969,2000,1913
1949,1937,1881
1950,1931,1872
1968,1939,1904
1971,1936,1906
1960,1915,1875
1955,1939,1872
1971,1953,1908
1973,1945,1909
1959,1931,1872
1961,1944,1872
1975,1946,1903
1971,1904,1904
1949,1952,1872
1945,1932,1871
1967,1931,1899
1972,1929,1904
1949,1925,1872
1952,1936,1871
1968,1941,1910
1966,1926,1911
1951,1925,1877
1958,1929,1879
1971,1937,1905
1968,1936,1911
1946,1933,1878
1953,1927,1873
1971,1914,1904
1968,1918,1902
1947,1916,1867
1941,1904,1872
1972,1941,1903
1970,1926,1905
1949,1927,1879
1952,1930,1872
1968,1919,1903
1964,1974,1898
1945,1903,1865
1943,1905,1871
1966,1935,1904
1975,1966,1907
1951,1983,1873
1945,1923,1868
1968,1906,1900
1968,1930,1904
1943,1920,1867
1936,1930,1872
1959,1933,1902
1966,1927,1903
1939,1921,1872
1939,1922,1872
1959,1925,1893
1967,1923,1904
1942,1915,1872
1945,1921,1873
1968,1923,1903
1963,1926,1901
1942,1923,1872
1939,1926,1869
1958,1922,1898
1959,1927,1901
1939,1918,1871
1938,1922,1868
1954,1933,1899
1949,1927,1899
1945,1919,1872
1947,1929,1872
1967,1931,1902
1956,1927,1904
1937,1914,1874
1942,1920,1873
1958,1926,1903
1963,1921,1905
1950,1925,1879
1939,1923,1872
1953,1933,1897
1962,1931,1906
1938,1913,1874
1934,1923,1863
1953,1923,1902
1958,1920,1917
1936,1918,1877
1941,1924,1873
1966,1927,1895
1959,1931,1902
1938,1920,1871
1936,1930,1872
1962,1935,1904
1959,1932,1906
1935,1924,1866
1936,1927,1861
1954,1936,1894
1951,1934,1904
1931,1919,1872
1929,1925,1860
1947,1930,1893
1951,1927,1902
1923,1920,1872
1925,1932,1862
1948,1936,1894
1955,1934,1907
1930,1930,1872
1927,1930,1872
1943,1936,1892
1946,1930,1904
1927,1920,1874
1923,1921,1872
1939,1931,1901
1945,1924,1904
1930,1920,1867
1935,1915,1861
1945,1922,1887
1949,1923,1897
1926,1920,1865
1926,1920,1858
1943,1929,1890
1951,1925,1901
1921,1920,1869
1922,1915,1859
1936,1931,1887
1947,1927,1904
1920,1920,1874
1921,1927,1872
1938,1938,1897
1947,1934,1898
1922,1920,1867
1927,1925,1866
1941,1935,1895
1950,1919,1904
1931,1925,1872
1931,1926,1868
1947,1934,1889
1949,1933,1899
1930,1919,1872
1926,1919,1872
1941,1923,1904
1947,1926,1907
1933,1921,1872
1936,1920,1863
1947,1926,1891
1950,1927,1903
1926,1926,1867
1923,1921,1857
1947,1925,1886
1951,1922,1896
1933,1915,1869
1933,1924,1866
1943,1938,1899
1949,1931,1902
1929,1921,1867
1927,1926,1859
1952,1936,1894
1955,1927,1900
1935,1920,1862
1930,1920,1861
1951,1935,1888
1951,1926,1901
1935,1920,1871
1923,1920,1863
1940,1927,1893
1952,1926,1904
1931,1923,1870
1931,1927,1867
1945,1934,1889
1950,1923,1910
1925,1918,1875
1929,1921,1871
1954,1933,1903
1950,1925,1904
1935,1918,1872
1936,1918,1869
1953,1936,1897
1942,1924,1909
1934,1915,1872
1924,1920,1870
1943,1925,1903
1948,1920,1904
1930,1913,1875
1935,1922,1872
1951,1931,1903
1955,1920,1909
1936,1927,1875
1936,1930,1869
1947,1934,1903
1957,1935,1911
1936,1921,1877
1936,1924,1872
1947,1931,1904
1952,1936,1914
1932,1923,1875
1929,1927,1868
1942,1939,1903
1951,1937,1904
1930,1923,1872
1937,1930,1872
1967,1936,1907
1960,1930,1907
1936,1917,1872
1934,1925,1866
1952,1933,1901
1963,1923,1913
1943,1917,1878
1941,1911,1871
1955,1920,1904
1957,1919,1907
1939,1913,1875
1938,1920,1864
1967,1929,1902
1959,1936,1903
1939,1922,1907
1937,1922,1852
1959,1920,1935
1965,1923,1918
1939,1918,1886
1936,1923,1909
1957,1925,1903
1958,1920,1888
1935,1914,1872
1931,1920,1853
1953,1928,1886
1956,1930,1857
1936,1921,1847
1934,1922,1854
1950,1934,1927
1963,1931,1918
1939,1919,1869
1941,1919,1872
1958,1932,1923
1961,1923,1904
1947,1913,1879
1943,1913,1866
1966,1920,1893
1968,1922,1903
1943,1920,1851
1941,1921,1874
1958,1934,1901
1965,1931,1921
1935,1921,1903
1932,1922,1877
1954,1931,1901
1966,1933,1909
1942,1927,1889
1941,1935,1877
1959,1943,1874
1966,1935,1914
1947,1927,1869
1939,1924,1870
1961,1937,1905
1967,1939,1921
1939,1932,1894
1936,1931,1885
1955,1939,1895
1955,1936,1917
1938,1924,1891
1927,1921,1905
1957,1935,1908
1963,1935,1895
1937,1932,1921
1938,1933,1860
1966,1936,1904
1957,1936,1917
1939,1930,1863
1942,1935,1873
1966,1938,1890
1968,1943,1909
1943,1930,1883
1939,1935,1885
1963,1938,1889
1972,1939,1936
1952,1935,1919
1939,1934,1887
1967,1939,1898
1968,1941,1919
1950,1935,1903
1943,1936,1889
1967,1942,1901
1978,1946,1914
1963,1947,1890
1958,1936,1908
1968,1944,1914
1974,1945,1922
1957,1936,1873
1947,1934,1866
1971,1936,1934
1970,1935,1931
1953,1934,1885
1945,1935,1862
1961,1943,1883
1977,1945,1929
1967,1936,1865
1962,1937,1862
1982,1943,1904
1979,1951,1915
1947,1930,1877
1945,1936,1872
1970,1939,1897
1970,1936,1919
1959,1932,1879
1951,1932,1911
1968,1943,1936
1970,1950,1936
1964,1936,1885
1955,1931,1879
1975,1939,1897
1985,1938,1943
1967,1936,1911
1963,1936,1882
1978,1943,1901
1980,1939,1920
1959,1941,1891
1959,1937,1883
1973,1945,1870
1984,1945,1934
1968,1934,1899
1964,1934,1904
1986,1947,1910
1991,1952,1921
1975,1947,1901
1966,1940,1888
1982,1947,1917
1990,1947,1926
1972,1943,1906
1968,1945,1936
1986,1950,1902
1996,1951,1935
1969,1943,1923
1965,1943,1819
1986,1952,1920
2000,1951,1971
1983,1952,1937
1979,1953,1921
1993,1963,1927
1994,1967,1922
1968,1960,1939
1959,1957,1884
1984,1963,1913
1991,1961,1954
1978,1951,1904
1967,1950,1891
1984,1955,1965
1985,1954,1919
1974,1947,1869
1967,1945,1890
1985,1959,1922
1988,1959,1936
1973,1953,1907
1969,1957,1895
1985,1957,1957
1996,1955,1905
1978,1946,1901
1967,1954,1894
1984,1967,1924
1989,1962,1931
1975,1951,1901
1968,1950,1887
1991,1958,1919
1997,1955,1927
1974,1941,1885
1969,1950,1889
1987,1964,1885
1996,1963,1935
1973,1951,1958
1968,1950,1893
1979,1965,1920
1989,1962,1934
1968,1955,1901
1961,1957,1885
1984,1965,1904
1999,1959,1929
1979,1954,1904
1968,1954,1885
1988,1968,1914
1995,1959,1931
1983,1949,1892
1973,1949,1882
1991,1955,1905
1995,1950,1931
1974,1942,1902
1968,1942,1876
1979,1954,1910
1986,1952,1920
1961,1943,1899
1953,1937,1883
1978,1946,1913
1985,1943,1922
1968,1936,1891
1958,1936,1877
1979,1950,1910
1978,1953,1923
1963,1940,1898
1959,1935,1887
1978,1937,1911
1988,1940,1921
1970,1935,1900
1963,1936,1882
1981,1949,1905
1986,1941,1920
1965,1936,1894
1963,1936,1882
1982,1941,1907
1984,1938,1920
1963,1937,1889
1954,1932,1863
1968,1939,1893
1979,1936,1916
1965,1931,1885
1953,1936,1876
1967,1949,1904
1971,1943,1914
1958,1936,1889
1958,1937,1872
1974,1942,1904
1984,1942,1920
1943,1931,1887
1930,1936,1872
1997,1943,1904
2005,1946,1920
1971,1941,1894
1930,1936,1874
1969,1947,1904
1975,1946,1919
1974,1936,1889
1953,1936,1872
1974,1946,1904
1970,1941,1921
1968,1936,1887
1959,1935,1868
1971,1936,1895
1965,1935,1909
1937,1935,1889
1931,1936,1870
1954,1936,1903
1969,1936,1914
1945,1933,1885
1945,1934,1873
1973,1936,1906
1975,1935,1915
1953,1923,1886
1947,1926,1872
1991,1935,1901
1972,1932,1914
1965,1927,1879
1954,1930,1869
1969,1933,1903
1953,1934,1913
1979,1931,1881
1939,1930,1870
1968,1937,1902
1961,1937,1913
1981,1925,1885
1937,1921,1869
1966,1930,1897
1967,1931,1909
1947,1922,1881
1943,1920,1874
1927,1927,1900
1975,1931,1910
1903,1927,1877
1941,1923,1861
1946,1934,1899
1968,1935,1909
1931,1923,1879
1920,1929,1867
1967,1936,1895
1951,1926,1910
1939,1920,1884
1942,1920,1869
1952,1930,1893
1943,1925,1914
1961,1921,1885
1959,1921,1871
1953,1935,1904
1987,1931,1909
1933,1921,1878
1963,1920,1858
1968,1929,1895
1951,1929,1907
1934,1921,1879
1937,1925,1863
1968,1931,1890
1954,1929,1905
1984,1922,1878
1914,1926,1866
1953,1937,1895
1975,1940,1904
1957,1923,1873
1947,1922,1869
1925,1936,1895
1967,1930,1909
1975,1920,1877
1963,1919,1871
1924,1934,1889
1955,1938,1904
1966,1925,1877
1958,1930,1869
1943,1937,1898
1942,1936,1907
1917,1924,1881
1923,1931,1861
1952,1934,1889
1970,1934,1905
1959,1929,1887
1952,1924,1867
1937,1931,1889
1974,1929,1913
1907,1922,1879
1923,1915,1864
1962,1925,1895
1970,1927,1908
1939,1919,1882
1931,1920,1861
1951,1925,1893
1963,1929,1916
1936,1919,1887
1927,1920,1867
1947,1935,1895
1951,1931,1916
1926,1927,1892
1929,1935,1870
1945,1936,1898
1949,1936,1906
1936,1920,1887
1932,1915,1862
1945,1929,1894
1936,1935,1917
1919,1923,1883
1928,1922,1872
1940,1934,1905
2000,1931,1920
1872,1926,1888
1907,1931,1874
1930,1936,1902
1965,1936,1919
1984,1923,1890
1936,1933,1872
1943,1936,1903
1968,1931,1915
1970,1922,1887
1943,1923,1872
1971,1939,1901
2023,1925,1910
1959,1920,1883
1897,1924,1861
1968,1927,1894
1981,1929,1909
1945,1914,1879
1923,1915,1859
1953,1925,1891
1961,1934,1905
1931,1925,1875
1930,1925,1862
1955,1931,1898
1952,1936,1915
1933,1933,1877
1932,1932,1865
1941,1933,1890
1955,1936,1909
1917,1933,1877
1921,1927,1861
1936,1930,1882
1938,1926,1901
1923,1922,1871
1919,1926,1855
1970,1931,1887
1949,1933,1904
1905,1922,1879
1896,1929,1865
1941,1936,1883
1963,1937,1907
1904,1933,1877
1923,1925,1863
1922,1936,1897
1936,1935,1914
1897,1921,1883
1897,1924,1862
1956,1933,1897
1948,1931,1906
1927,1926,1888
1943,1920,1871
1899,1934,1901
1962,1933,1917
1915,1927,1878
1946,1924,1863
1967,1935,1895
1962,1932,1910
1943,1929,1879
1936,1922,1863
1955,1934,1891
1962,1929,1904
1946,1931,1886
1936,1926,1872
1957,1934,1897
1968,1936,1912
1940,1926,1885
1936,1935,1872
1951,1936,1898
1966,1936,1907
1950,1931,1883
1939,1930,1864
1955,1943,1899
1968,1946,1916
1953,1935,1889
1937,1936,1872
1957,1943,1894
1967,1950,1906
1949,1936,1885
1938,1941,1873
1950,1944,1889
1958,1939,1909
1941,1927,1882
1939,1935,1874
1956,1945,1903
1968,1942,1922
1948,1936,1886
1936,1938,1871
1956,1947,1895
1965,1947,1906
1947,1936,1878
1936,1941,1863
1957,1948,1888
1965,1942,1909
1946,1936,1879
1941,1937,1867
1958,1941,1890
1963,1941,1909
1952,1936,1883
1940,1936,1865
1961,1939,1889
1967,1942,1906
1946,1938,1879
1936,1935,1867
1953,1943,1890
1968,1943,1917
1942,1936,1891
1936,1933,1872
1959,1939,1904
1969,1937,1915
1949,1934,1879
1937,1935,1872
1958,1945,1895
1968,1942,1911
1951,1936,1891
1944,1934,1872
1958,1936,1893
1969,1935,1909
1962,1933,1878
1943,1936,1869
1966,1941,1899
1979,1941,1914
1961,1936,1886
1952,1933,1872
1966,1938,1900
1971,1936,1919
1953,1935,1895
1941,1931,1871
1967,1946,1901
1979,1936,1918
1959,1932,1883
1942,1927,1857
1959,1935,1887
1969,1933,1909
1953,1923,1886
1938,1920,1869
1963,1941,1890
1965,1943,1906
1943,1935,1882
1935,1935,1863
1953,1941,1889
1968,1936,1919
1950,1931,1895
1942,1927,1875
1961,1936,1893
1967,1939,1914
1947,1933,1886
1935,1931,1867
1952,1936,1890
1966,1935,1905
1948,1925,1879
1938,1934,1867
1955,1936,1897
1968,1935,1915
1953,1927,1885
1936,1927,1865
1957,1933,1898
1973,1937,1917
1957,1929,1892
1939,1932,1871
1958,1936,1890
1973,1927,1906
1952,1930,1879
1940,1928,1872
1959,1934,1898
1969,1935,1918
1955,1925,1882
1938,1920,1865
1963,1934,1890
1973,1936,1910
1962,1933,1878
1936,1921,1869
1955,1935,1893
1968,1935,1911
1956,1927,1886
1946,1923,1869
1965,1937,1894
1971,1939,1917
1955,1930,1889
1947,1923,1866
1962,1921,1899
1969,1936,1914
1951,1925,1883
1946,1926,1867
1968,1940,1892
1971,1936,1907
1956,1924,1874
1946,1933,1861
1959,1936,1889
1968,1935,1909
1958,1930,1885
1940,1925,1865
1962,1937,1897
1973,1934,1911
1957,1929,1882
1937,1926,1867
1955,1936,1889
1968,1937,1913
1956,1934,1883
1939,1926,1861
1958,1927,1883
1968,1933,1904
1959,1927,1879
1943,1935,1868
1962,1937,1892
1973,1937,1905
1963,1936,1881
1947,1933,1866
1953,1939,1887
1968,1939,1913
1954,1929,1885
1941,1925,1872
1954,1936,1893
1963,1935,1904
1940,1933,1875
1939,1936,1863
1957,1936,1888
1967,1942,1907
1954,1941,1891
1936,1936,1868
1955,1982,1883
1968,1957,1904
1942,1894,1886
1936,1936,1862
1957,1937,1883
1961,1936,1904
1942,1971,1880
1942,1968,1870
1959,1931,1887
1962,1936,1911
1949,1919,1889
1939,1946,1872
1961,1931,1897
1968,1927,1919
1956,1971,1893
1937,1967,1869
1959,1907,1892
1967,1987,1914
1950,1919,1887
1936,1936,1863
1955,1930,1886
1963,1968,1913
1950,1983,1892
1942,1930,1871
1962,1937,1892
1971,1941,1911
1959,1936,1895
1941,1905,1871
1956,1989,1889
1968,1915,1916
1948,1945,1884
1943,1931,1869
1957,1942,1893
1965,1929,1913
1950,1955,1893
1941,1927,1867
1966,1939,1892
1978,1979,1913
1949,1904,1888
1935,1933,1860
1952,1945,1890
1968,1943,1909
1947,1930,1891
1940,1934,1865
1958,1942,1887
1974,1939,1904
1958,1936,1887
1941,1950,1867
1968,1959,1890
1972,1937,1907
1955,1905,1889
1951,1905,1867
1965,1919,1891
1973,1947,1914
1959,1962,1886
1949,1927,1873
1977,1912,1904
1984,1975,1926
1955,1939,1903
1941,1957,1875
1964,1927,1893
1969,1917,1915
1954,1919,1888
1937,1893,1872
1953,1885,1895
1963,1986,1914
1947,1941,1895
1939,1915,1875
1959,1946,1889
1962,1932,1911
1950,1908,1883
1943,1921,1866
1962,1944,1891
1971,1934,1910
1957,1935,1885
1936,1920,1865
1953,1963,1888
1965,1904,1908
1950,1878,1889
1940,1933,1866
1958,1929,1891
1968,1909,1911
1942,1905,1882
1930,1918,1861
1942,1908,1881
1965,1930,1907
1953,1915,1890
1939,1956,1871
1955,1960,1901
1967,1926,1915
1949,1937,1883
1936,1931,1862
1946,1943,1889
1965,1943,1908
1941,1917,1889
1936,1905,1858
1951,1951,1887
1970,1940,1904
1957,1968,1893
1942,1920,1875
1954,1934,1891
1967,1941,1917
1947,1920,1899
1938,1935,1872
1953,1935,1891
1967,1942,1915
1955,1937,1893
1943,1927,1873
1959,1946,1894
1968,1943,1919
1950,1937,1899
1936,1924,1874
1952,1941,1894
1956,1939,1913
1944,1937,1895
1936,1927,1868
1955,1927,1882
1969,1986,1906
1953,1915,1887
1933,1929,1859
1949,1953,1885
1959,1908,1909
1947,1997,1889
1936,1965,1859
1949,1933,1879
1963,1968,1901
1945,1910,1874
1935,1918,1859
1951,1935,1885
1961,1914,1901
1948,1914,1883
1936,1982,1857
1947,1902,1883
1958,1904,1904
1941,1949,1883
1931,1896,1856
1953,1911,1878
1967,1983,1907
1945,1872,1878
1936,1915,1855
1951,1916,1887
1955,1923,1915
1948,1907,1888
1934,1889,1863
1949,1927,1889
1968,1929,1909
1951,1901,1891
1933,1919,1862
1950,1926,1884
1959,1926,1911
1953,1904,1891
1941,1914,1866
1957,1921,1891
1964,1922,1914
1951,1929,1891
1930,1913,1871
1951,1931,1897
1968,1904,1917
1950,1926,1894
1930,1916,1865
1951,1876,1881
1962,1936,1904
1943,1882,1887
1942,1888,1872
1983,1931,1906
1968,1904,1905
1942,1904,1872
1931,1919,1856
1938,1883,1885
1961,1935,1914
1942,1931,1887
1920,1945,1858
1937,1919,1877
1959,1922,1904
1938,1920,1883
1935,1899,1868
1943,1907,1878
1961,1921,1907
1959,1933,1896
1936,1918,1856
1940,1919,1871
1964,1952,1909
1956,1940,1903
1925,1916,1868
1933,1914,1877
1951,1907,1895
1939,1902,1873
1925,1907,1850
1975,1965,1903
1974,1937,1920
1921,1886,1848
1914,1890,1828
1939,1913,1866
1965,1920,1898
1951,1919,1871
1936,1917,1849
1954,1919,1869
1968,1921,1893
1951,1915,1875
1936,1910,1856
1954,1931,1877
1964,1927,1904
1950,1911,1881
1939,1915,1868
1951,1920,1888
1968,1932,1917
1939,1908,1887
1935,1902,1859
1943,1911,1882
1957,1918,1905
1948,1917,1886
1941,1918,1866
1953,1923,1886
1967,1929,1906
1961,1936,1905
1925,1914,1855
1931,1911,1875
1953,1920,1898
1953,1923,1885
1940,1927,1868
1934,1920,1875
1941,1905,1888
1935,1904,1863
1931,1918,1855
1954,1937,1887
1959,1938,1908
1942,1925,1884
1936,1927,1858
1936,1926,1878
1945,1929,1903
1949,1931,1893
1931,1925,1869
1922,1916,1872
1936,1920,1894
1941,1923,1883
1931,1919,1859
1942,1930,1883
1959,1927,1904
1952,1928,1893
1955,1950,1887
1936,1919,1875
1931,1909,1893
1932,1913,1886
1931,1922,1874
1938,1936,1899
1959,1936,1916
1937,1931,1898
1925,1920,1866
1947,1936,1887
1962,1941,1905
1943,1936,1890
1930,1929,1857
1938,1936,1883
1959,1941,1920
1967,1941,1904
1909,1907,1851
1931,1922,1878
1946,1923,1904
1935,1919,1887
1923,1923,1863
1941,1936,1887
1946,1930,1907
1939,1932,1890
1936,1936,1873
1947,1933,1876
1945,1932,1893
1936,1936,1888
1931,1925,1872
1957,1942,1900
1967,1934,1918
1936,1919,1887
1926,1923,1869
1955,1936,1888
1968,1938,1919
1954,1945,1900
1945,1942,1884
1937,1913,1879
1952,1923,1904
1943,1919,1893
1941,1931,1877
1941,1936,1894
1954,1943,1919
1947,1938,1898
1936,1929,1874
1949,1934,1891
1966,1935,1911
1943,1923,1900
1936,1927,1872
1956,1943,1897
1968,1948,1923
1943,1933,1903
1925,1921,1870
1948,1934,1887
1968,1936,1917
1950,1926,1904
1937,1924,1877
1957,1937,1903
1968,1937,1922
1946,1930,1900
1939,1935,1873
1953,1936,1895
1973,1958,1932
1962,1949,1920
1920,1931,1872
1922,1925,1875
1943,1930,1911
1939,1932,1910
1929,1931,1882
1947,1938,1904
1967,1949,1935
1937,1919,1901
1923,1911,1866
1943,1924,1888
1950,1930,1915
1942,1920,1901
1927,1920,1879
1937,1933,1899
1954,1936,1921
1942,1929,1904
1929,1920,1875
1947,1925,1890
1963,1931,1915
1953,1928,1902
1920,1917,1857
1936,1923,1878
1961,1932,1908
1946,1931,1895
1950,1941,1879
1931,1923,1875
1939,1920,1901
1935,1910,1886
1932,1910,1872
1953,1922,1890
1959,1923,1909
1950,1922,1890
1929,1918,1858
1936,1927,1879
1959,1927,1908
1937,1923,1873
1931,1920,1822
1948,1943,1929
1950,1931,1909
1934,1920,1904
1920,1918,1878
1937,1924,1858
1947,1934,1895
1938,1923,1893
1923,1923,1854
1935,1936,1872
1953,1939,1904
1936,1932,1920
1921,1931,1909
1942,1936,1918
1958,1937,1911
1943,1927,1921
1927,1915,1859
1936,1925,1915
1952,1931,1905
1938,1923,1892
1926,1920,1871
1942,1932,1887
1952,1933,1904
1939,1919,1898
1931,1925,1862
1940,1927,1881
1955,1936,1888
1950,1927,1902
1936,1920,1860
1950,1933,1883
1963,1936,1906
1947,1930,1894
1935,1929,1872
1955,1936,1886
1965,1939,1919
1957,1933,1904
1937,1931,1857
1952,1941,1898
1970,1938,1905
1959,1936,1904
1951,1937,1880
1949,1936,1861
1958,1936,1882
1957,1937,1857
1948,1936,1893
1947,1931,1908
1967,1933,1898
1946,1933,1862
1935,1932,1863
1940,1936,1881
1964,1947,1911
1946,1938,1888
1930,1926,1847
1949,1939,1886
1966,1938,1929
1951,1930,1861
1934,1921,1837
1950,1934,1872
1965,1939,1900
1948,1931,1856
1936,1938,1926
1958,1950,1911
1949,1921,1904
1936,1920,1879
1936,1926,1845
1951,1936,1893
1957,1933,1939
1948,1930,1886
1935,1931,1874
1953,1937,1867
1970,1936,1914
1962,1926,1906
1943,1931,1891
1957,1933,1920
1969,1936,1937
1954,1929,1923
1938,1935,1857
1965,1941,1899
1967,1929,1920
1941,1920,1920
1936,1919,1865
1951,1936,1889
1968,1938,1893
1947,1926,1890
1932,1921,1847
1943,1923,1872
1959,1926,1904
1947,1919,1936
1936,1926,1885
1951,1933,1856
1967,1942,1909
1945,1933,1903
1925,1923,1861
1948,1936,1859
1966,1936,1909
1953,1929,1897
1938,1927,1871
1955,1936,1867
1970,1936,1917
1954,1931,1895
1940,1927,1867
1939,1936,1874
1959,1936,1903
1953,1927,1894
1936,1925,1872
1952,1937,1887
1971,1943,1917
1971,1939,1903
1939,1936,1855
1936,1936,1875
1951,1936,1905
1945,1925,1936
1933,1927,1906
1943,1935,1881
1963,1936,1911
1954,1927,1836
1933,1919,1837
1954,1927,1890
1967,1934,1894
1955,1924,1889
1936,1920,1851
1949,1919,1885
1962,1931,1949
1957,1922,1858
1934,1920,1872
1939,1933,1892
1963,1934,1947
1950,1922,1874
1937,1929,1882
1945,1936,1871
1957,1922,1891
1951,1920,1855
1934,1921,1861
1948,1934,1883
1958,1930,1913
1965,1934,1911
1932,1913,1863
1936,1918,1897
1959,1931,1887
1952,1923,1930
1939,1920,1870
1949,1929,1905
1959,1936,1910
1954,1936,1894
1936,1922,1861
1936,1924,1874
1958,1929,1909
1943,1928,1904
1929,1923,1862
1945,1935,1868
1967,1935,1909
1955,1933,1904
1936,1926,1884
1939,1934,1890
1957,1935,1952
1945,1930,1887
1932,1924,1859
1945,1935,1936
1953,1936,1927
1942,1930,1841
1930,1922,1929
1942,1930,1855
1953,1936,1917
1943,1931,1889
1931,1931,1872
1941,1934,1872
1958,1937,1915
1943,1925,1901
1927,1920,1889
1939,1941,1875
1961,1950,1922
1951,1943,1904
1918,1926,1863
1936,1930,1858
1958,1931,1913
1939,1919,1902
1921,1923,1867
1937,1934,1886
1957,1936,1909
1951,1927,1888
1927,1920,1867
1938,1930,1883
1952,1939,1904
1943,1929,1895
1927,1931,1865
1935,1935,1886
1954,1930,1901
1950,1920,1884
1931,1917,1859
1942,1925,1872
1955,1941,1917
1947,1927,1899
1923,1915,1861
1935,1931,1874
1953,1934,1906
1943,1926,1889
1931,1925,1859
1951,1947,1890
1959,1936,1904
1945,1918,1879
1932,1914,1857
1951,1929,1885
1973,1935,1917
1962,1923,1897
1937,1920,1863
1948,1930,1881
1942,1938,1918
1984,1935,1907
1947,1923,1866
1911,1923,1875
1922,1935,1913
1963,1936,1904
1950,1932,1870
1968,1926,1877
1972,1931,1913
1938,1922,1901
1910,1914,1867
1904,1929,1881
1941,1934,1910
1983,1929,1893
1904,1923,1859
1939,1937,1887
1963,1953,1927
1938,1936,1895
1925,1921,1854
1939,1925,1871
1963,1936,1903
1947,1934,1893
1947,1925,1861
1950,1930,1877
1951,1930,1899
1958,1934,1902
1942,1934,1871
1937,1924,1872
1962,1933,1902
1946,1931,1893
1921,1919,1868
1938,1930,1876
1965,1934,1909
1901,1929,1889
1933,1924,1865
1936,1935,1878
1956,1936,1906
1946,1929,1903
1934,1936,1877
1968,1938,1883
1932,1930,1904
1918,1921,1890
1893,1922,1870
1931,1930,1883
1919,1933,1914
1928,1924,1902
1936,1933,1876
1933,1926,1875
1949,1931,1903
1942,1923,1893
1951,1922,1872
1960,1935,1889
1984,1941,1921
1971,1927,1902
1958,1924,1865
1965,1933,1878
1937,1935,1907
1904,1930,1903
1904,1922,1870
1926,1931,1886
1975,1942,1917
1978,1920,1890
1936,1919,1857
1967,1933,1873
1958,1940,1916
1959,1927,1895
1921,1918,1863
1890,1930,1882
1946,1936,1910
1959,1947,1914
1937,1920,1871
1940,1917,1863
1989,1927,1903
1922,1926,1899
1919,1930,1872
1952,1930,1877
1910,1919,1903
1931,1915,1889
1919,1918,1868
1985,1931,1888
1930,1927,1904
1921,1919,1890
1906,1921,1864
1936,1932,1887
1915,1936,1915
1914,1928,1907
1923,1918,1872
1970,1939,1892
2030,1967,1946
1951,1905,1883
1919,1899,1851
1987,1917,1874
1993,1936,1920
1947,1917,1891
1968,1906,1853
1930,1918,1877
1969,1931,1913
1943,1919,1893
1931,1917,1861
1945,1930,1867
1966,1936,1904
1950,1934,1897
1935,1925,1863
1936,1929,1872
1950,1931,1901
1940,1922,1888
1923,1921,1856
1946,1933,1878
1974,1942,1914
1943,1909,1875
1939,1905,1847
1920,1936,1884
1949,1926,1890
1947,1918,1876
1881,1920,1856
1938,1922,1856
1919,1927,1883
1943,1924,1872
1905,1928,1856
1889,1925,1868
1995,1935,1893
1904,1931,1879
1883,1926,1849
1977,1927,1865
1942,1933,1889
1947,1923,1877
1897,1919,1851
1943,1938,1872
2013,1936,1902
1939,1922,1882
1914,1914,1849
1930,1906,1851
1937,1923,1889
1941,1922,1878
1913,1910,1848
1937,1922,1870
1958,1924,1904
1915,1923,1885
1892,1920,1856
1936,1927,1871
1955,1934,1904
1949,1929,1898
1933,1931,1873
1922,1922,1871
1941,1917,1895
1936,1920,1892
1921,1915,1872
1953,1923,1886
1951,1936,1911
1952,1943,1920
1998,1921,1874
1913,1897,1857
1903,1911,1902
1936,1915,1894
1897,1915,1859
1919,1919,1882
1913,1933,1913
1926,1923,1898
1921,1926,1862
1958,1936,1875
1942,1936,1905
1957,1931,1895
1926,1926,1862
1932,1939,1884
1942,1954,1920
1936,1929,1901
1919,1922,1856
1910,1904,1856
1927,1908,1889
1934,1911,1886
1922,1915,1863
1929,1929,1874
1941,1935,1897
1936,1920,1889
1921,1916,1862
1935,1922,1872
1938,1919,1902
1934,1920,1886
1919,1920,1862
1925,1924,1870
1941,1930,1904
1936,1922,1893
1931,1932,1869
1936,1927,1878
1943,1920,1899
1940,1925,1893
1909,1911,1850
1908,1917,1856
1937,1929,1905
1927,1914,1888
1910,1905,1849
1922,1919,1863
1936,1922,1889
1934,1915,1883
1911,1905,1853
1927,1922,1865
1945,1930,1897
1946,1927,1887
1920,1915,1850
1933,1921,1860
1938,1922,1889
1946,1936,1893
1920,1907,1850
1920,1913,1856
1936,1931,1890
1932,1925,1879
1926,1931,1862
1935,1926,1867
1933,1916,1872
1935,1917,1878
1930,1929,1866
1921,1921,1859
1935,1920,1882
1937,1915,1881
1923,1919,1861
1934,1920,1873
1946,1924,1899
1926,1906,1885
1904,1900,1849
1922,1931,1872
1941,1934,1902
1915,1904,1872
1905,1904,1845
1918,1919,1863
1940,1925,1893
1936,1920,1892
1918,1917,1860
1935,1926,1872
1938,1920,1897
1933,1914,1885
1915,1913,1865
1922,1926,1872
1933,1920,1894
1936,1921,1889
1931,1931,1872
1936,1946,1885
1939,1936,1904
1917,1910,1881
1906,1917,1856
1924,1930,1879
1933,1934,1911
1934,1926,1902
1922,1936,1871
1940,1947,1895
1933,1920,1904
1925,1917,1899
1915,1920,1870
1934,1933,1888
1953,1936,1917
1949,1939,1915
1933,1942,1887
1914,1931,1877
1933,1921,1898
1932,1920,1902
1920,1935,1877
1933,1943,1889
1951,1945,1919
1950,1936,1918
1931,1933,1873
1939,1950,1887
1961,1950,1920
1931,1933,1904
1909,1925,1862
1931,1936,1875
1961,1948,1913
1964,1962,1920
1912,1914,1860
1907,1914,1853
1937,1927,1894
1941,1936,1906
1929,1933,1879
1926,1931,1875
1938,1938,1904
1937,1931,1898
