2102,1885,2092
2093,1835,2063
2032,1757,2045
2066,1789,2089
2109,1841,2103
2046,1801,2046
2005,1761,2025
2064,1804,2081
2113,1837,2097
2061,1810,2062
2005,1776,2030
2042,1810,2067
2092,1847,2089
2055,1808,2039
1971,1760,2010
2021,1809,2057
2080,1885,2096
2046,1797,2053
2023,1737,2029
2039,1791,2078
2074,1840,2103
2057,1809,2057
1983,1771,2027
2039,1808,2075
2106,1857,2100
2066,1811,2057
2002,1787,2043
2037,1820,2080
2070,1838,2081
2023,1771,2035
1993,1744,2031
2047,1807,2067
2054,1856,2073
2039,1826,2039
1991,1769,2032
2032,1801,2080
2086,1858,2097
2037,1797,2042
1946,1746,2017
2030,1799,2068
2074,1837,2089
2034,1805,2033
2077,1760,2015
2062,1771,2064
2069,1869,2083
2002,1843,2036
1999,1808,2021
2031,1790,2054
2075,1826,2069
2037,1797,2031
1966,1763,2014
2016,1810,2045
2091,1846,2062
2034,1802,2029
1983,1767,2005
2037,1801,2038
2074,1866,2077
2022,1811,2038
1979,1772,2007
2021,1811,2032
2031,1856,2056
2030,1835,2031
2000,1798,2023
2032,1804,2042
2059,1826,2035
2008,1796,1997
1895,1778,2003
2066,1819,2051
2032,1839,2043
2019,1804,2006
1994,1780,2000
2029,1838,2032
2064,1888,2032
2032,1856,2005
2001,1793,1997
2026,1829,2031
2063,1859,2035
2025,1794,1999
1996,1765,1984
2019,1813,2011
2047,1859,2018
2031,1842,2001
2000,1769,1999
2028,1856,2037
2063,1923,2036
2015,1836,1985
1981,1780,1979
2025,1839,2031
2065,1875,2035
2030,1839,1991
1987,1789,1973
2031,1845,2007
2065,1894,2018
2017,1857,1982
1986,1806,1972
2021,1840,2005
2066,1882,2019
2009,1869,1986
1973,1827,1969
2020,1853,2014
2069,1875,2023
2019,1851,1971
1981,1833,1959
2021,1845,1986
2064,1862,2006
2025,1850,1970
1990,1816,1962
2027,1875,1997
2065,1907,2010
2015,1863,1968
1977,1811,1963
2005,1856,1997
2038,1897,2013
2009,1861,1968
1979,1823,1949
2009,1865,1979
2046,1910,2000
2000,1862,1959
1974,1826,1939
2000,1863,1975
2039,1905,1995
2003,1886,1963
1965,1825,1951
1994,1857,1978
2032,1908,1989
1987,1859,1951
1961,1817,1940
1993,1863,1978
2030,1920,1983
2000,1891,1952
1968,1834,1936
1994,1875,1968
2031,1936,1989
2000,1883,1951
1968,1802,1943
1994,1863,1968
2027,1933,1984
1995,1883,1957
1958,1838,1936
1999,1873,1968
2030,1919,1983
1991,1887,1951
1952,1856,1925
2001,1903,1969
2032,1925,1982
1998,1888,1936
1954,1838,1920
1993,1878,1954
2032,1936,1966
1985,1888,1923
1951,1843,1913
1982,1877,1951
2025,1936,1971
1989,1907,1929
1954,1845,1904
1980,1899,1934
2022,1935,1955
1984,1884,1908
1948,1843,1888
1982,1889,1934
2010,1949,1952
1972,1893,1915
1946,1865,1888
1978,1872,1936
2013,1895,1957
1978,1884,1909
1941,1893,1888
1974,1913,1923
2001,1923,1942
1967,1883,1902
1939,1845,1888
1981,1911,1936
2017,1954,1946
1969,1904,1901
1936,1847,1883
1974,1889,1936
2019,1938,1947
1978,1904,1908
1958,1872,1894
1994,1919,1936
2021,1939,1946
1974,1903,1907
1938,1847,1881
1969,1893,1915
2026,1953,1949
2001,1926,1915
1958,1858,1890
1977,1877,1927
2016,1933,1941
1975,1914,1905
1952,1871,1900
1988,1897,1933
2019,1940,1941
1983,1904,1898
1946,1857,1878
1987,1903,1920
2023,1965,1941
1979,1905,1895
1936,1840,1860
1982,1904,1903
2031,1945,1942
1985,1923,1911
1954,1867,1886
1988,1901,1919
2021,1953,1936
1983,1910,1898
1949,1858,1881
1978,1904,1912
2023,1954,1936
1991,1922,1911
1952,1868,1881
1968,1897,1904
2013,1953,1921
1986,1920,1895
1957,1885,1872
1985,1936,1913
2010,1941,1934
1978,1882,1895
1943,1840,1866
1978,1904,1905
2018,1967,1933
1975,1934,1884
1938,1875,1863
1975,1915,1908
2005,1973,1930
1975,1935,1897
1936,1857,1871
1975,1891,1901
2006,1943,1915
1973,1919,1882
1936,1866,1872
1970,1923,1909
2006,1931,1921
1968,1903,1884
1935,1886,1872
1968,1877,1901
2000,1920,1917
1973,1936,1885
1936,1878,1866
1970,1903,1904
2004,1966,1931
1962,1915,1885
1924,1863,1856
1963,1904,1891
2007,1910,1925
1981,1941,1897
1941,1861,1861
1970,1871,1893
2000,1975,1909
1966,1931,1867
1939,1879,1854
1977,1957,1893
2006,1953,1911
1971,1930,1879
1936,1877,1855
1970,1925,1899
2006,1967,1910
1971,1903,1877
1935,1875,1856
1974,1920,1895
2006,1984,1913
1978,1936,1876
1938,1872,1854
1968,1884,1883
1999,1990,1906
1975,1958,1877
1943,1872,1855
1968,1911,1886
1997,1966,1916
1966,1903,1879
1943,1889,1858
1975,1917,1902
2001,1962,1921
1968,1940,1875
1936,1837,1855
1974,1919,1901
2018,1968,1933
1977,1883,1890
1927,1915,1855
1949,1930,1901
1984,1974,1922
1960,1934,1882
1915,1866,1863
1948,1909,1893
1994,1930,1897
1959,1926,1870
1927,1837,1860
1975,1931,1908
2015,1920,1927
1982,1888,1886
1939,1858,1858
1970,1847,1882
2003,1939,1920
1968,1889,1882
1932,1870,1859
1969,1916,1901
2003,1936,1930
1968,1870,1885
1939,1851,1859
1979,1889,1894
2015,1935,1916
1967,1890,1879
1934,1859,1863
1974,1936,1904
2005,1966,1930
1973,1909,1887
1933,1808,1863
1968,1880,1904
2010,1974,1926
1974,1908,1877
1930,1827,1843
1955,1898,1878
2000,1969,1904
1969,1877,1875
1929,1862,1865
1950,1847,1891
1999,1888,1906
1966,1872,1873
1936,1835,1867
1962,1846,1897
1993,1911,1909
1963,1889,1872
1923,1853,1857
1953,1903,1886
1988,1945,1900
1957,1895,1855
1929,1843,1850
1958,1894,1904
1984,1854,1914
1949,1878,1867
1929,1838,1851
1962,1872,1881
2000,1934,1906
1973,1895,1872
1936,1840,1849
1962,1875,1882
1995,1932,1902
1958,1885,1861
1917,1840,1842
1946,1873,1887
1995,1924,1923
1963,1907,1889
1932,1897,1872
1955,1888,1921
1987,1985,1977
1953,1887,1971
1917,1843,1990
1953,1886,2055
1978,1968,2096
1941,1915,2081
1908,1792,2075
1937,1818,2112
1974,1886,2125
1949,1873,2085
1914,1797,2033
1940,1938,2033
1975,1919,2006
1935,1819,1935
1909,1894,1887
1951,1847,1892
1982,1915,1876
1948,1862,1801
1916,1841,1759
1950,1885,1757
1984,1893,1765
1954,1856,1714
1918,1833,1682
1938,1877,1706
1978,1906,1713
1939,1850,1667
1905,1830,1632
1946,1887,1655
1979,1931,1677
1941,1887,1639
1904,1840,1600
1941,1883,1643
1984,1935,1665
1950,1905,1622
1911,1840,1595
1935,1869,1622
1968,1920,1643
1941,1907,1613
1906,1856,1587
1938,1857,1616
1984,1905,1637
1953,1905,1594
1907,1829,1584
1938,1885,1631
1983,1933,1648
1936,1934,1603
1899,1845,1578
1931,1894,1614
1966,1934,1648
1946,1904,1616
1909,1862,1595
1935,1920,1626
1978,1963,1648
1936,1822,1613
1894,1825,1585
1925,1871,1616
1971,1931,1659
1949,1904,1636
1907,1851,1603
1937,1889,1636
1973,1935,1648
1949,1910,1623
1911,1845,1611
1934,1871,1650
1967,1931,1677
1921,1891,1633
1885,1839,1607
1926,1907,1652
1973,1958,1696
1940,1901,1655
1901,1846,1627
1922,1881,1667
1966,1936,1696
1934,1911,1667
1897,1856,1647
1921,1893,1667
1959,1918,1695
1932,1913,1677
1899,1861,1664
1929,1899,1694
1952,1965,1712
1923,1909,1680
1888,1840,1658
1925,1882,1708
1964,1942,1742
1935,1914,1710
1902,1869,1682
1936,1906,1718
1970,1936,1739
1934,1904,1712
1891,1873,1698
1921,1911,1730
1968,1979,1762
1938,1965,1744
1889,1860,1712
1917,1893,1740
1956,1959,1776
1920,1925,1755
1889,1870,1731
1920,1904,1773
1957,1959,1788
1915,1920,1744
1887,1872,1739
1924,1904,1787
1945,1950,1806
1917,1935,1767
1877,1878,1743
1916,1911,1776
1946,1995,1803
1917,1947,1777
1878,1842,1745
1907,1879,1789
1945,1947,1813
1920,1915,1782
1872,1873,1754
1907,1905,1792
1957,1967,1827
1922,1931,1795
1886,1879,1767
1917,1915,1793
1952,1971,1821
1928,1958,1799
1878,1860,1771
1904,1879,1798
1945,1942,1823
1915,1920,1808
1881,1875,1802
1911,1904,1827
1945,1943,1840
1906,1929,1806
1871,1867,1786
1904,1904,1823
1931,1978,1840
1905,1915,1810
1857,1850,1789
1891,1890,1817
1936,1950,1852
1905,1918,1831
1855,1875,1803
1889,1905,1840
1931,1951,1872
1907,1921,1840
1873,1873,1820
1904,1922,1849
1936,1951,1868
1904,1903,1838
1865,1861,1813
1897,1920,1862
1939,1998,1910
1909,1915,1853
1861,1840,1821
1900,1872,1873
1949,1969,1936
1909,2031,1873
1856,1871,1803
1873,1789,1831
1917,1883,1872
1887,1909,1856
1846,1863,1834
1889,1986,1874
1936,2023,1921
1902,1957,1883
1849,1893,1840
1885,1929,1884
1973,2159,1970
1936,2112,1923
1823,1732,1794
1855,1763,1840
1945,1921,1962
1977,2000,1983
1872,1941,1861
1842,1747,1827
1890,1854,1904
1872,2015,1908
1869,1910,1904
1893,1885,1934
1913,1946,1929
1889,1813,1900
1874,1767,1904
1904,1842,1939
1989,1871,1939
1917,1842,1875
1813,1821,1904
1855,1994,1985
1968,2003,2047
1904,1831,1939
1835,1737,1866
1895,1795,1947
1943,1988,1999
1915,1915,1997
1871,1836,1947
1883,1817,1936
1915,1842,1979
1911,1773,1979
1917,1829,2007
1926,1802,2021
1927,1887,1985
1892,1787,1958
1869,1728,1963
1927,1878,2031
1955,1939,2047
1931,1709,1997
1885,1662,1971
1904,1788,2003
1950,1891,2035
1963,1844,2064
1904,1847,1975
1887,1755,1954
1931,1758,2021
1920,1721,2002
1884,1690,1999
1946,1851,2062
1985,1936,2039
1904,1809,1990
1862,1705,1980
1906,1744,2009
1954,1814,2108
1942,1883,2003
1920,1803,2046
1913,1714,2034
1937,1797,2071
1920,1798,2006
1899,1776,2045
1957,1871,2128
1971,1882,2035
1906,1807,2015
1871,1730,2005
1900,1776,2032
1954,1843,2085
1949,1878,2047
1893,1798,2000
1892,1758,2046
1937,1827,2044
1922,1829,2013
1887,1794,1984
1906,1867,2020
1952,1923,2064
1923,1872,2033
1914,1907,2046
1936,1953,2035
1882,1905,1984
1871,1911,1987
1867,1904,2000
1904,1917,2009
1946,2074,2112
1904,2039,2133
1866,1994,2147
1885,2018,2231
1904,1958,2291
1881,1981,2289
1866,2001,2301
1875,2017,2346
1898,1989,2352
1869,2012,2365
1840,1949,2389
1873,2027,2401
1917,2112,2416
1859,2011,2363
1814,1936,2324
1860,1984,2413
1895,2025,2435
1868,2006,2347
1839,1991,2363
1869,2059,2420
1891,2042,2381
1852,1996,2352
1818,1965,2336
1835,1983,2323
1841,2082,2371
1857,2221,2356
1790,2016,2278
1814,1937,2293
1875,2096,2370
1860,2158,2290
1850,2134,2290
1867,2102,2273
1860,2096,2255
1835,2067,2256
1811,2061,2245
1847,2099,2259
1881,2192,2288
1865,2175,2265
1840,2203,2226
1858,2161,2213
1869,2091,2203
1846,2091,2174
1813,2101,2159
1831,2205,2169
1877,2245,2176
1863,2224,2169
1833,2192,2155
1863,2160,2144
1874,2229,2130
1851,2209,2117
1814,2175,2129
1840,2218,2160
1887,2246,2140
1878,2256,2149
1821,2238,2046
1835,2286,2063
1872,2288,2089
1891,2291,2116
1859,2195,2083
1847,2143,2064
1875,2205,2096
1878,2277,2070
1809,2192,1956
1833,2176,2073
1887,2243,2063
1883,2254,2064
1840,2276,2030
1851,2224,2032
1883,2230,2047
1872,2202,2025
1843,2195,1995
1853,2179,1985
1871,2192,2032
1856,2224,2002
1831,2192,1968
1857,2159,1999
1907,2246,2002
1883,2261,1991
1834,2205,1946
1860,2239,1979
1915,2334,2016
1871,2171,1936
1822,2103,1956
1853,2145,1943
1907,2210,1971
1887,2195,1952
1841,2167,1919
1858,2208,1909
1904,2221,1943
1887,2222,1904
1856,2176,1909
1873,2179,1924
1901,2203,1927
1879,2261,1921
1884,2291,1965
1853,2208,1840
1871,2195,1889
1870,2201,1859
1843,2211,1877
1872,2252,1929
1903,2288,1925
1875,2199,1871
1855,2272,1842
1869,2239,1858
1875,2246,1893
1853,2203,1867
1839,2165,1839
1882,2256,1860
1904,2301,1904
1867,2224,1841
1829,2143,1843
1871,2186,1858
1935,2293,1925
1909,2320,1858
1835,2144,1815
1849,2078,1823
1903,2183,1857
1906,2169,1917
1879,2183,1867
1887,2192,1840
1904,2215,1872
1904,2171,1863
1859,2143,1807
1889,2192,1835
1926,2221,1872
1901,2192,1859
1870,2160,1809
1892,2130,1840
1920,2147,1851
1889,2150,1814
1856,2128,1811
1885,2085,1801
1932,2128,1861
1906,2153,1825
1879,2015,1829
1891,2134,1835
1917,2175,1759
1902,2112,1806
1867,2021,1809
1889,2012,1808
1921,2079,1827
1911,2074,1823
1874,2028,1808
1904,2066,1835
1937,2115,1862
1923,2064,1837
1867,1935,1797
1890,1987,1815
1921,2083,1840
1913,2089,1825
1888,2032,1825
1903,1970,1817
1931,2026,1823
1907,1968,1809
1875,1907,1801
1881,1968,1808
1915,1999,1812
1920,1959,1811
1883,1965,1808
1893,1941,1819
1932,1996,1847
1907,1974,1819
1853,1883,1786
1859,1920,1818
1773,1978,1856
1840,1943,1836
1892,1886,1803
1853,1931,1826
1893,1929,1842
1920,1936,1822
1897,1903,1789
1931,1943,1825
1991,1966,1855
1907,1890,1809
1865,1854,1793
1931,1874,1815
1922,1900,1830
1958,1847,1796
1920,1799,1773
1895,1901,1826
1950,2012,1856
1904,1872,1790
1856,1815,1769
1891,1802,1816
1920,1875,1842
1945,1883,1818
1865,1840,1799
1877,1869,1818
1961,1907,1841
1903,1856,1813
1865,1805,1778
1907,1859,1799
1936,1886,1834
1921,1914,1802
1908,1855,1782
1919,1830,1808
1935,1834,1834
1921,1789,1808
1904,1772,1794
1888,1798,1825
1968,1894,1826
1939,1872,1787
1882,1810,1776
1903,1815,1808
1936,1876,1834
1920,1852,1813
1924,1821,1792
1916,1843,1808
1941,1875,1829
1926,1842,1803
1893,1765,1771
1917,1819,1807
1958,1854,1840
1938,1904,1828
1935,1831,1789
1950,1840,1798
1924,1883,1837
1962,1876,1808
1905,1809,1783
1958,1856,1814
1968,1921,1840
1897,1876,1809
1903,1854,1789
1906,1856,1809
1859,1861,1827
1822,1901,1810
1867,1843,1790
1878,1824,1806
1903,1881,1820
1818,1878,1809
1777,1885,1792
1815,1938,1811
1798,1903,1819
1721,1869,1786
1214,1863,1781
1521,1935,1825
1930,2000,1860
1923,1904,1798
1893,1843,1763
1916,1913,1801
1995,1997,1843
1937,1997,1824
1921,1917,1777
1938,1931,1797
2023,2085,1856
1935,2013,1818
1904,1964,1776
1935,1950,1810
1950,2007,1837
1905,1973,1814
1927,1936,1780
1932,2003,1802
2011,2064,1850
1968,2037,1810
1893,1921,1769
1889,1943,1797
1973,2017,1835
1964,2042,1815
1910,1969,1779
1877,2005,1808
1973,2026,1827
1898,1995,1799
1882,1949,1789
1911,1974,1807
1965,2032,1827
1935,2002,1798
1893,1936,1791
1915,1984,1808
1975,2019,1831
1984,2010,1809
1927,2005,1783
1931,1999,1819
1967,1986,1831
1929,1989,1806
1883,1922,1765
1915,1929,1810
1963,2026,1849
1946,2007,1795
1904,1936,1751
1927,1929,1808
1954,2018,1861
1939,2011,1815
1902,1970,1779
1933,1994,1809
1942,2007,1838
1905,1958,1824
1894,1901,1790
1955,1919,1808
1937,1981,1835
1936,1952,1820
1873,1911,1789
1930,1915,1812
1983,2079,1842
1947,1946,1797
1911,1882,1782
1891,1904,1825
2013,2027,1863
1955,1939,1827
1915,1865,1776
1866,1883,1814
1965,1936,1856
1917,1924,1827
1899,1895,1791
1904,1941,1830
1959,1998,1855
1912,1927,1822
1883,1895,1787
1942,1920,1817
1949,1939,1841
1933,1907,1831
1900,1865,1808
1922,1872,1826
1959,1943,1854
1927,1911,1817
1874,1875,1791
1915,1881,1825
1937,1904,1856
1923,1904,1827
1883,1872,1803
1919,1887,1847
1986,2000,1859
1873,1936,1814
1920,1823,1782
1901,1843,1823
1959,1883,1857
1910,1955,1845
1891,1873,1810
1850,1834,1808
1907,1907,1843
1939,1904,1834
1883,1922,1835
1913,1887,1826
1950,1874,1845
1931,1865,1831
1913,1838,1803
1918,1863,1827
2032,1937,1869
1936,1923,1847
1909,1869,1821
1922,1863,1838
1951,1905,1851
1932,1921,1827
1901,1891,1825
1919,1855,1840
1951,1930,1861
1935,1935,1854
1898,1826,1831
1903,1846,1840
1942,1964,1869
1926,1915,1833
1887,1872,1808
1904,1871,1840
1951,1944,1872
1936,1936,1852
1897,1847,1811
1919,1840,1841
1957,1920,1867
1942,1909,1843
1904,1858,1831
1915,1838,1843
1942,1967,1866
1917,1904,1839
1882,1808,1811
1902,1855,1840
1938,1906,1872
1922,1909,1846
1890,1858,1831
1905,1841,1846
1936,1873,1863
1923,1855,1840
1883,1859,1824
1904,1872,1855
1936,1893,1874
1917,1891,1837
1878,1833,1808
1902,1870,1841
1933,1907,1872
1910,1871,1846
1886,1854,1834
1906,1846,1872
1922,1891,1874
1909,1899,1843
1874,1815,1817
1898,1840,1856
1936,1946,1888
1910,1889,1846
1875,1779,1825
1904,1811,1851
1943,1893,1882
1932,1890,1861
1897,1791,1843
1911,1872,1857
1938,1943,1877
1921,1846,1855
1895,1811,1851
1907,1845,1865
1939,1913,1875
1914,1871,1842
1874,1776,1813
1905,1808,1846
1950,1884,1881
1936,1882,1860
1887,1796,1833
1902,1834,1857
1929,1895,1871
1909,1897,1856
1869,1827,1824
1892,1822,1842
1922,1846,1872
1905,1870,1850
1872,1879,1835
1885,1834,1844
1911,1828,1860
1897,1814,1846
1855,1790,1813
1872,1810,1847
1915,1878,1879
1906,1873,1851
1880,1808,1850
1885,1865,1867
1900,1840,1849
1887,1817,1831
1870,1797,1825
1896,1819,1872
1931,1903,1890
1895,1851,1833
1867,1789,1809
1882,1792,1856
1915,1872,1881
1901,1868,1857
1860,1783,1834
1871,1833,1846
1895,1870,1866
1875,1834,1847
1840,1766,1821
1872,1840,1872
1902,1914,1887
1861,1855,1851
1827,1776,1817
1859,1808,1849
1915,1859,1881
1904,1872,1856
1867,1807,1823
1886,1808,1851
1915,1866,1883
1891,1835,1846
1840,1778,1821
1853,1837,1841
1889,1919,1872
1885,1870,1851
1862,1771,1828
1878,1803,1840
1911,1866,1869
1903,1871,1840
1871,1814,1822
1892,1809,1846
1930,1863,1877
1917,1865,1859
1882,1782,1836
1888,1829,1839
1911,1855,1863
1904,1853,1854
1870,1812,1823
1883,1825,1829
1915,1872,1869
1909,1850,1850
1872,1795,1831
1895,1818,1857
1935,1891,1879
1919,1882,1845
1872,1753,1814
1883,1793,1838
1925,1905,1889
1916,1914,1866
1868,1781,1810
1872,1779,1819
1911,1861,1873
1907,1873,1865
1873,1834,1838
1883,1827,1851
1922,1918,1887
1910,1847,1861
1858,1777,1810
1856,1808,1840
1889,1904,1874
1905,1895,1860
1887,1843,1839
1904,1849,1846
1932,1881,1875
1909,1884,1863
1872,1878,1837
1882,1823,1849
1918,1859,1881
1912,1908,1877
1881,1835,1845
1890,1814,1856
1921,1904,1877
1906,1927,1859
1862,1855,1834
1875,1852,1867
1900,1925,1889
1884,1863,1863
1871,1853,1843
1885,1783,1855
1903,1850,1872
1901,1894,1856
1847,1794,1840
1863,1780,1851
1910,1873,1875
1899,1861,1853
1872,1835,1821
1890,1839,1857
1923,1921,1904
1882,1905,1869
1855,1829,1825
1889,1796,1839
1934,1891,1872
1920,1920,1852
1873,1789,1811
1887,1808,1841
1917,1904,1877
1904,1901,1859
1870,1812,1833
1874,1856,1854
1921,1872,1874
1919,1909,1858
1879,1874,1839
1894,1881,1858
1920,1923,1883
1916,1898,1862
1871,1853,1831
1885,1840,1848
1926,1889,1869
1909,1905,1845
1871,1821,1824
1897,1838,1857
1930,1920,1873
1919,1936,1845
1877,1814,1829
1906,1887,1855
1939,1931,1877
1919,1884,1863
1867,1840,1831
1897,1862,1857
1935,1923,1901
1919,1890,1867
1866,1854,1827
1887,1889,1853
1918,1874,1891
1917,1889,1872
1872,1874,1821
1885,1818,1856
1923,1979,1891
1911,1982,1871
1866,1805,1823
1881,1759,1839
1911,1861,1863
1901,1891,1861
1874,1812,1839
1899,1886,1861
1924,1931,1872
1900,1870,1853
1863,1859,1827
1887,1829,1866
1921,1879,1879
1913,1835,1855
1872,1794,1825
1879,1847,1841
1925,1910,1883
1903,1853,1850
1851,1911,1821
1859,1840,1853
1925,1891,1891
1910,1884,1870
1872,1889,1846
1881,1904,1857
1902,1908,1875
1893,1872,1871
1867,1872,1844
1885,1847,1868
1915,1907,1887
1904,1887,1862
1854,1831,1845
1870,1903,1862
1917,1900,1885
1904,1939,1854
1867,1819,1828
1879,1895,1859
1909,1870,1901
1767,1968,1869
1750,1892,1811
1863,1849,1840
1932,1914,1871
1919,1935,1851
1870,1889,1818
1887,1967,1862
1910,1993,1885
1904,1940,1856
1871,1902,1829
1882,1899,1846
1926,2016,1881
1920,1958,1871
1875,1875,1835
1886,1917,1856
1922,1957,1885
1920,1941,1872
1886,1920,1846
1894,1953,1869
1927,1997,1894
1914,1979,1875
1870,1891,1830
1882,1907,1857
1919,1971,1891
1919,1948,1861
1877,1919,1849
1899,1959,1872
1923,2010,1894
1908,1972,1874
1872,1933,1851
1895,1939,1875
1925,2010,1887
1911,1949,1871
1873,1904,1845
1891,1904,1872
1927,2044,1901
1917,2067,1871
1875,1920,1831
1893,1921,1855
1926,2007,1890
1913,1957,1871
1878,1894,1836
1897,1927,1867
1935,2032,1914
1920,1999,1866
1871,1856,1833
1885,1915,1843
1922,2057,1882
1911,1983,1869
1872,1975,1839
1890,1917,1858
1931,2000,1897
1919,1956,1875
1875,1904,1842
1891,1952,1872
1911,1964,1887
1897,1934,1862
1867,1917,1847
1893,1941,1872
1933,1993,1906
1911,1994,1866
1871,1899,1826
1883,1906,1874
1922,1984,1911
1904,1951,1879
1879,1856,1849
1900,1946,1872
1935,1948,1904
1905,1970,1872
1862,1931,1834
1870,1937,1855
1914,1867,1894
1909,2032,1885
1874,1879,1849
1900,1907,1877
1923,2022,1894
1903,1913,1858
1863,1866,1834
1886,1895,1857
1931,1943,1904
1925,1973,1883
1882,1931,1841
1877,1927,1856
1920,1971,1891
1904,1969,1872
1876,1919,1846
1901,1968,1871
1918,1969,1872
1902,1930,1862
1871,1895,1840
1887,1922,1870
1920,1957,1893
1916,1895,1872
1875,1897,1840
1887,1931,1854
1923,1968,1891
1905,1961,1877
1872,1957,1856
1887,1933,1863
1919,1930,1883
1909,1941,1859
1873,1931,1840
1883,1921,1866
1925,1959,1905
1911,2007,1874
1869,1934,1837
1885,1884,1867
1935,1962,1893
1919,1961,1873
1889,1894,1833
1899,1938,1867
1933,1946,1884
1919,1959,1870
1878,1902,1843
1890,1919,1862
1922,1958,1891
1921,1958,1879
1887,1927,1841
1895,1943,1869
1927,2000,1893
1919,1943,1875
1877,1856,1840
1895,1904,1867
1932,1961,1901
1929,1943,1885
1882,1857,1859
1904,1913,1882
1934,2007,1887
1911,1961,1863
1889,1898,1840
1897,1890,1851
1926,1978,1891
1918,1970,1888
1878,1894,1850
1899,1950,1856
1922,1921,1884
1904,1907,1861
1871,1888,1840
1889,1899,1868
1924,1966,1882
1920,1991,1869
1873,1915,1831
1887,1889,1843
1923,1936,1881
1909,1934,1866
1876,1907,1833
1888,1906,1856
1934,1947,1886
1921,1942,1854
1872,1879,1824
1888,1867,1857
1923,1930,1882
1921,1913,1871
1887,1894,1834
1899,1927,1855
1931,1978,1887
1915,1942,1866
1873,1889,1836
1888,1877,1855
1934,1957,1897
1928,1915,1875
1871,1874,1812
1888,1872,1836
1923,1929,1867
1919,1946,1866
1879,1906,1842
1891,1936,1882
1919,1921,1879
1904,1877,1850
1865,1856,1822
1897,1887,1863
1919,1933,1893
1902,1935,1855
1867,1870,1819
1873,1919,1838
1914,1930,1874
1917,1909,1866
1889,1861,1839
1898,1855,1869
1916,1987,1876
1895,1925,1847
1862,1856,1823
1879,1869,1856
1924,1949,1901
1918,1931,1872
1869,1863,1824
1874,1859,1851
1918,1925,1886
1914,1925,1867
1874,1867,1839
1891,1837,1862
1926,1935,1889
1914,1910,1872
1870,1887,1819
1877,1921,1845
1920,1937,1889
1906,1901,1869
1872,1850,1839
1887,1857,1862
1921,1920,1883
1923,2000,1874
1872,1888,1825
1872,1858,1847
1905,1872,1877
1898,1871,1868
1862,1849,1841
1886,1901,1872
1909,1913,1874
1904,1947,1865
1862,1863,1840
1872,1853,1847
1909,1910,1887
1910,1918,1886
1875,1868,1840
1887,1856,1872
1920,1898,1905
1911,1943,1885
1872,1909,1851
1875,1840,1856
1920,1861,1883
1903,1899,1873
1867,1862,1847
1870,1872,1864
1910,1938,1894
1904,1923,1875
1850,1838,1829
1875,1857,1860
1921,1925,1899
1918,1921,1875
1868,1849,1841
1875,1883,1866
1910,1919,1899
1890,1926,1865
1863,1865,1830
1873,1870,1865
1914,1917,1884
1919,1911,1890
1872,1823,1843
1872,1873,1883
1914,1935,1871
1904,1905,1895
1866,1844,1871
1875,1860,1815
1921,1926,1919
1921,1911,1905
1882,1891,1835
1891,1898,1887
1920,1920,1893
1913,1890,1870
1867,1872,1861
1872,1851,1856
1906,1893,1901
1906,1914,1871
1872,1871,1867
1882,1895,1852
1915,1915,1867
1899,1936,1895
1872,1886,1853
1887,1897,1865
1913,1973,1864
1907,1918,1872
1857,1817,1795
1875,1850,1859
1913,1916,1904
1904,1925,1866
1870,1872,1840
1878,1844,1840
1911,1963,1881
1904,1936,1867
1855,1840,1831
1872,1855,1853
1915,1946,1923
1916,1951,1874
1867,1836,1829
1877,1872,1847
1919,1949,1924
1910,1925,1872
1869,1819,1831
1871,1867,1840
1911,1936,1914
1911,1921,1856
1868,1840,1809
1862,1813,1808
1909,1914,1856
1899,1950,1867
1867,1923,1839
1871,1846,1855
1904,1883,1883
1904,1953,1851
1870,1854,1811
1873,1847,1871
1907,1893,1853
1902,1910,1839
1868,1863,1840
1879,1914,1856
1911,1923,1883
1906,1894,1885
1869,1852,1839
1873,1867,1845
1917,1925,1845
1904,1966,1917
1860,1893,1829
1872,1896,1857
1899,1905,1893
1904,1883,1867
1871,1838,1838
1871,1918,1855
1901,1909,1872
1904,1915,1871
1872,1844,1821
1877,1883,1847
1905,1946,1888
1897,1938,1877
1859,1873,1824
1876,1863,1830
1929,1927,1920
1904,1994,1897
1861,1831,1818
1869,1840,1872
1911,1955,1879
1913,1929,1858
1882,1849,1827
1895,1845,1844
1919,1931,1919
1915,1951,1843
1867,1883,1826
1874,1868,1872
1914,1945,1886
1904,1950,1903
1871,1919,1839
1877,1885,1856
1919,1904,1854
1909,1889,1843
1871,1870,1837
1871,1872,1846
1925,1942,1904
1914,1945,1872
1863,1889,1822
1873,1905,1840
1919,1930,1889
1914,1937,1874
1873,1871,1840
1878,1895,1872
1920,1966,1897
1913,1895,1870
1874,1840,1835
1878,1856,1851
1917,1915,1899
1913,1919,1868
1878,1923,1843
1879,1946,1855
1915,1899,1904
1909,1915,1922
1879,1901,1827
1895,1855,1854
1928,1913,1935
1915,1991,1870
1869,1872,1811
1874,1858,1859
1915,1910,1913
1913,1938,1841
1859,1872,1809
1871,1867,1823
1926,1921,1901
1916,1935,1856
1879,1853,1857
1891,1893,1866
1914,1983,1904
1905,2000,1861
1862,1876,1808
1872,1856,1842
1911,1922,1883
1917,1960,1875
1877,1857,1843
1889,1887,1840
1932,1968,1904
1915,1889,1875
1861,1877,1812
1874,1927,1841
1933,1942,1877
1923,1925,1877
1881,1927,1849
1872,1907,1898
1903,1937,1867
1904,1927,1870
1872,1897,1838
1879,1879,1861
1916,1991,1866
1910,1943,1893
1857,1878,1769
1866,1853,1840
1926,1890,1899
1921,1965,1862
1876,1952,1843
1867,1911,1829
1904,1935,1859
1898,1911,1845
1868,1874,1841
1873,1926,1870
1919,1959,1888
1918,1950,1935
1878,1947,1844
1875,1876,1871
1906,1930,1872
1908,1955,1864
1861,1877,1824
1883,1900,1853
1919,1971,1879
1905,1995,1872
1866,1901,1813
1872,1890,1831
1920,1908,1897
1904,1936,1867
1869,1906,1824
1876,1891,1850
1923,1955,1893
1904,1973,1867
1865,1897,1821
1872,1895,1841
1910,1979,1887
1909,1936,1869
1871,1872,1827
1872,1895,1850
1914,2002,1879
