2014,1988,1926
2032,1991,1955
2026,2032,1942
1993,1971,1897
2012,1984,1917
2035,1972,1953
2023,1975,1935
2002,1978,1903
2016,1969,1912
2029,1987,1947
2000,1977,1922
1991,1970,1903
2006,1985,1930
2030,2002,1951
2032,2007,1946
2000,1962,1904
2003,2006,1920
2029,2021,1946
2019,1934,1938
1999,1983,1909
2010,1952,1936
2035,1999,1968
2016,1934,1943
1974,1959,1884
1985,1998,1895
2014,2016,1939
2021,2000,1936
2002,1943,1906
2016,1953,1925
2021,1988,1948
2005,1973,1936
1994,1975,1904
2003,2013,1925
2032,2032,1961
2002,1925,1927
1986,1958,1893
1991,2015,1906
2021,2030,1951
2022,1991,1953
2001,1982,1922
1988,1968,1895
2015,2006,1935
2007,1936,1936
1978,1959,1892
1984,1935,1897
2006,1947,1931
2012,1965,1933
1999,2000,1905
2010,2007,1913
2022,1970,1936
2015,1984,1929
1984,1936,1893
2005,1966,1911
2043,1987,1957
2032,1921,1945
1989,1911,1895
2002,2013,1914
2046,2067,1968
2005,1996,1927
1975,1969,1879
2003,1990,1904
2026,1957,1936
2014,1968,1935
1997,1949,1897
2007,1991,1913
2032,2029,1961
2017,2000,1942
1990,1956,1899
1995,1983,1904
2022,1998,1936
2027,1984,1936
2022,2043,1919
2006,1950,1920
1996,1961,1919
2004,1998,1914
2010,1984,1914
1993,1968,1906
2013,1982,1934
2014,2001,1930
1984,1962,1897
1998,1984,1914
2026,2005,1955
2011,2000,1939
1987,1971,1902
2000,2006,1915
2032,2007,1951
2011,2039,1931
1994,1947,1907
1973,1923,1897
1999,1936,1920
2003,1991,1934
1997,1994,1909
2005,1956,1927
2027,1994,1953
2005,2000,1934
1982,1925,1887
1984,1951,1904
2027,1990,1953
2019,1970,1940
2010,2023,1907
2018,1957,1924
1999,1985,1926
2006,1959,1919
1999,1872,1894
2027,2019,1916
2033,1983,1947
2031,1988,1936
2000,1939,1904
2005,1973,1909
2039,2000,1949
2017,1986,1929
2005,1938,1890
2010,1973,1898
2019,1985,1923
2020,1991,1921
2009,2005,1914
2019,1967,1923
2030,1948,1945
2032,2000,1938
2020,2015,1909
2023,1971,1914
2027,1968,1929
2016,2014,1925
2007,1951,1904
2011,1987,1915
2042,1991,1945
2030,1983,1937
2000,2021,1903
2006,2011,1904
2032,2015,1943
2022,2000,1937
2017,1963,1907
2011,1965,1904
2019,1975,1922
2028,1949,1936
2012,1977,1893
2022,1983,1911
2046,2024,1956
2034,2011,1939
1998,1946,1883
2022,1997,1903
2037,1986,1935
2026,2010,1933
1997,1961,1902
2015,1990,1912
2040,1994,1949
2036,1995,1947
2016,1991,1917
2023,1862,1919
2042,2011,1946
2032,2022,1936
2015,1984,1917
2021,2011,1921
2032,1998,1954
2031,1999,1942
2017,1978,1920
2025,1995,1916
2033,1990,1951
2029,1984,1942
2003,1966,1913
2018,1989,1934
2032,2000,1959
2031,1978,1936
2007,1966,1915
2032,1974,1937
2066,2041,1974
2015,1983,1927
1989,1920,1891
2023,1966,1936
2031,2015,1968
2014,1981,1950
2009,1968,1923
2022,1975,1933
2035,1971,1963
2039,1926,1971
2015,1938,1920
2021,2000,1923
2041,2009,1959
2040,1977,1968
2026,1974,1922
2026,1969,1923
2032,1963,1941
2034,1968,1952
2028,1974,1929
2041,1971,1936
2039,1968,1957
2047,1991,1963
2017,1945,1919
2002,1917,1911
2033,1952,1945
2039,1959,1965
2031,1953,1936
2027,1947,1936
2043,1949,1958
2039,1947,1955
2026,1930,1914
2031,1921,1943
2038,1951,1974
2027,1949,1961
2013,1938,1920
2023,1939,1936
2059,1950,1965
2025,1936,1949
2000,1920,1921
2019,1885,1936
2059,1936,1969
2045,1980,1967
2000,1936,1917
2010,1920,1918
2037,1958,1949
2059,1964,1967
2037,1931,1939
2015,1903,1909
2017,1907,1925
2032,1934,1935
2031,1914,1920
2024,1933,1925
2039,1901,1947
2032,1936,1935
2014,1954,1910
2035,1953,1915
2078,1962,1986
2038,1922,1957
1995,1885,1900
2011,1907,1910
2059,1949,1958
2035,1931,1937
2007,1919,1905
2032,1931,1919
2047,1936,1966
2046,1878,1974
2042,1899,1936
2019,1949,1915
2043,1978,1959
2023,1936,1963
2004,1919,1909
2026,1939,1935
2081,1986,1997
2055,1953,1957
1991,1905,1899
1984,1904,1891
2011,1929,1935
2021,1936,1945
2011,1936,1916
2014,1949,1921
2031,1957,1948
2030,1952,1945
2009,1946,1920
2021,1963,1935
2027,1962,1943
2015,1941,1932
2000,1937,1909
2012,1952,1921
2031,1951,1953
2000,1931,1925
1989,1931,1897
2005,1936,1911
2039,1949,1947
2026,1936,1947
2009,1948,1920
2035,1982,1936
2032,1973,1943
1995,1927,1905
2011,1940,1911
2035,1968,1938
2032,1963,1959
1995,1930,1907
1968,1906,1874
1998,1931,1901
2057,1969,1969
2046,1967,1966
2019,1959,1921
2007,1946,1907
2002,1921,1917
2013,1947,1929
2001,1920,1904
1994,1898,1903
2022,1920,1935
2018,1939,1933
1990,1909,1900
2011,1933,1909
2030,1953,1950
2032,1947,1958
2006,1912,1909
1999,1901,1895
2027,1943,1941
2064,1993,1973
2026,1949,1930
1995,1919,1899
2005,1897,1923
2018,1910,1933
2018,1936,1922
2000,1919,1911
2025,1905,1941
2006,1903,1917
2001,1913,1902
2024,1947,1927
2037,1941,1959
2061,1955,1971
2031,1951,1938
2000,1936,1929
1999,1920,1923
2031,1946,1948
2022,1919,1914
1995,1917,1901
2064,1978,1973
1985,1904,1913
1957,1896,1863
2000,1924,1911
2027,1918,1953
2025,1934,1957
2014,1945,1921
2007,1911,1905
2017,1926,1935
2041,1954,1950
2053,1967,1949
2005,1922,1922
1987,1904,1907
1984,1907,1898
2000,1931,1904
2009,1941,1863
2033,1954,1955
2039,1965,1988
2029,1957,1907
1994,1940,1847
2028,1950,1946
2022,1930,1945
1984,1905,1851
2017,1973,1914
2023,1939,1968
2005,1936,1927
1994,1927,1903
2019,1943,1917
2058,1966,1937
2061,1986,1993
2016,1952,1936
1990,1930,1895
2017,1955,1951
2020,1964,1926
2015,1977,1900
1990,1956,1859
2000,1904,1950
2008,1918,1904
2011,1938,1905
2017,1968,1910
2032,1975,1938
2033,1985,1968
2032,2000,1931
2002,1952,1926
2000,1949,1903
2033,1983,1943
2009,1971,1920
2016,1996,1922
2055,2026,1970
2019,1981,1957
2011,1946,1890
1964,1910,1875
1987,1947,1886
2015,1974,1920
2029,1975,1924
2037,1990,1941
1995,1989,1922
2000,1985,1922
2007,1981,1914
2006,1979,1903
2004,1971,1919
2006,1982,1922
1997,1952,1877
2019,1977,1872
2042,2017,1953
2001,1970,1933
1991,1941,1866
1995,1959,1907
2020,1982,1897
2022,1998,1909
2018,1997,1898
2041,2000,1919
2041,2000,1951
2035,2002,1948
2026,1982,1950
1974,1956,1885
2009,1984,1903
2021,2000,1909
2029,1998,1903
2017,1994,1933
2010,1980,1930
2026,1969,1941
2027,2011,1935
2038,2034,1946
1963,1958,1876
1973,1958,1904
2010,1984,1929
2017,2000,1911
2000,1975,1962
2000,1989,1947
2001,1972,1936
2005,1986,1930
2032,2000,1936
2032,2007,1934
2030,2007,1917
2006,2000,1902
2001,1982,1937
1995,1967,1904
2001,1991,1926
2031,2014,1946
2013,1984,1951
1989,1983,1933
1999,1971,1946
2043,2014,1984
2004,2000,1954
1994,1997,1924
1993,1978,1968
2010,1981,1990
2027,2000,1973
2031,2010,1986
2023,2003,1961
2000,1984,1942
2000,1985,1998
2027,2007,2033
2034,2001,2020
1989,1957,2017
2021,1986,2112
2032,1992,2158
2002,1968,2197
2018,1968,2235
2034,1987,2339
2032,2019,2349
1987,1943,2342
2000,1950,2363
2010,1984,2242
2002,1971,2266
1987,1929,2160
2034,1968,2215
1998,1918,2145
1984,1935,2123
1996,1951,2087
2007,1968,2092
2031,2000,2108
2055,1987,2103
1994,1935,2000
2019,1983,2070
2057,1999,2047
2001,1950,1974
1986,1926,1946
2002,1936,1962
2054,1984,2045
2075,2018,2018
1986,1953,1872
1975,1907,1945
2017,1938,1930
2047,1968,1970
2031,1978,1929
2029,1977,1919
2046,1990,1958
2047,1989,1922
2038,1994,1933
2040,2005,1887
2045,1985,1904
2067,2004,1915
2087,2055,1915
2043,2006,1889
2041,2000,1900
2045,1989,1909
1991,1927,1835
2015,1952,1854
2027,1975,1927
2033,2000,1883
2047,2003,1872
2043,1984,1895
2062,2002,1904
2075,2017,1936
2011,1968,1842
2031,1968,1856
2078,2031,1900
2129,2099,1955
2043,2002,1867
2003,1946,1807
2022,1964,1855
2038,1981,1895
2064,2000,1869
2039,1986,1859
2061,2019,1890
2053,2002,1881
2035,1995,1874
2064,2032,1894
2056,1998,1907
2047,1990,1876
2043,2007,1867
2067,2023,1886
2054,1994,1936
2054,2007,1935
2059,2032,1847
2029,1985,1847
2047,2005,1872
2047,2021,1923
2043,2006,1871
2032,1984,1842
2046,2003,1849
2023,1975,1909
2017,1973,1840
2058,1997,1903
2067,2017,1885
2035,1997,1910
2031,1988,1855
2064,2018,1875
2073,2013,1904
2032,1974,1876
2014,1974,1846
2055,2000,1876
2058,2028,1897
2034,2000,1882
2004,1973,1842
2018,2000,1856
2043,2019,1882
2060,2000,1899
2027,1968,1846
2032,1971,1847
2096,2029,1926
2000,1957,1848
1997,1956,1840
2032,1986,1875
2069,2015,1915
2038,1986,1894
2010,1968,1845
2010,1979,1854
2029,1994,1889
2035,1994,1884
2031,2018,1883
2047,1994,1889
2057,1999,1904
2034,2000,1885
2037,2015,1881
2022,2005,1873
2004,1957,1872
2032,1955,1901
2039,1979,1882
2043,1997,1899
2062,2041,1937
2123,2069,1962
2031,1983,1850
2000,1995,1860
1970,1968,1875
2069,1985,1898
2027,2017,1889
2015,2022,1890
2047,2017,1907
2007,2027,1915
1978,2018,1888
2016,2035,1904
2046,2011,1907
2058,1995,1898
1980,1959,1856
1979,2027,1869
2055,2064,1927
2069,2006,1916
2014,2000,1882
1981,1997,1869
2064,2032,1926
2078,2034,1933
2011,2027,1879
2010,2042,1886
2023,2035,1914
2047,2043,1932
2035,2063,1904
2106,2096,1941
1993,2000,1898
1967,1969,1871
2017,1985,1871
2013,2019,1903
2047,2047,1948
2079,2118,1963
2030,2064,1887
1985,2005,1862
2035,2031,1919
2055,2065,1934
1993,2053,1901
2041,2069,1911
2035,2062,1925
2017,2058,1911
2029,2070,1913
2027,2022,1903
1997,1998,1904
2031,2055,1937
2041,2062,1925
2038,2069,1904
1987,2064,1919
1959,2023,1873
2023,1995,1873
2043,2022,1907
2013,2063,1920
2075,2078,1931
2017,2041,1898
2035,2064,1906
2030,2037,1929
2035,2030,1925
2005,2061,1914
2080,2075,1945
2032,2011,1914
1983,2014,1904
2005,2015,1888
1959,2018,1887
2096,2086,1971
2022,2016,1920
1993,1973,1857
1974,2000,1875
2010,2010,1934
2001,2021,1923
2019,2035,1901
2001,2031,1889
2032,2013,1925
2020,2021,1927
1989,2013,1901
2021,2013,1930
2031,2015,1944
2060,2061,1967
1991,2000,1903
1991,2007,1890
1972,1995,1914
2043,2026,1951
1968,2005,1900
1971,1982,1897
2036,2014,1941
2078,2062,1950
1986,2062,1927
1984,2038,1909
2045,2075,1959
2003,1969,1894
1949,1955,1878
1991,1984,1904
2045,2027,1952
2000,2007,1943
1967,2005,1904
2000,2031,1920
2067,2098,1989
1959,2007,1936
1952,1943,1867
1989,1975,1892
2000,2023,1937
2019,2014,1946
1996,2032,1922
2032,2073,1950
2055,2028,1945
2010,1985,1918
1974,1971,1878
2000,2027,1913
2018,2043,1950
2005,2013,1939
2001,2017,1920
2013,2023,1919
2032,2027,1959
2032,2013,1962
2003,1991,1927
1989,2019,1906
2017,2062,1941
2039,2061,1973
2031,2023,1947
1987,2001,1916
2022,2018,1942
2019,2014,1957
2038,2037,1936
2064,2039,1936
2080,2046,1963
1968,1985,1922
1995,1966,1888
1957,1987,1898
1979,2018,1943
2060,2035,1962
2019,2043,1932
2028,2029,1936
2090,2028,1967
2064,2043,1972
1975,2029,1909
1986,2018,1916
2013,2001,1957
2058,2023,1963
2005,2056,1919
2018,2027,1935
2031,2029,1969
2021,2033,1980
2003,1984,1936
2079,2053,1941
2054,2107,1976
2028,2000,1935
1969,1979,1894
1979,1998,1899
2032,2046,1953
2033,2046,1967
2005,1999,1921
1970,1997,1934
2007,2039,1958
2032,2032,1967
2006,1997,1935
2006,2031,1934
2030,2037,1962
2029,2055,1969
2045,2014,1953
1982,1985,1903
1987,2021,1919
2059,2032,1959
2026,1990,1936
2035,2000,1946
1973,1982,1920
1986,2013,1941
2087,2014,1927
1984,1997,1913
2061,1985,1939
2009,1987,1950
2041,2000,1927
1985,2011,1929
2013,2000,1950
2026,2000,1955
1937,2025,1933
2017,1999,1939
2026,1985,1952
2098,2007,1957
2031,1991,1926
1989,1960,1898
1990,1968,1937
2015,1984,1955
2020,2013,1936
2003,1991,1920
2013,1984,1936
2002,1986,1939
1994,1997,1922
2011,1983,1933
2017,1974,1942
2004,1982,1936
2000,1971,1913
1991,2001,1907
2005,1991,1939
2022,1969,1957
2011,1984,1930
2015,1995,1943
2010,1984,1952
1988,1943,1922
1989,1956,1905
2005,1974,1919
2023,2009,1954
2021,2007,1961
2000,1968,1927
2002,1931,1925
2011,1984,1948
2014,2010,1947
2000,2000,1920
2000,2000,1936
2026,2022,1968
2007,1968,1951
1968,1936,1903
2000,1990,1936
2032,2019,1984
2000,1971,1947
1986,1976,1910
1966,1940,1887
2001,1977,1947
2003,1970,1957
1989,1938,1920
1993,1977,1917
2018,2032,1942
1996,1981,1943
1982,1929,1920
1986,1990,1933
2009,2006,1959
2003,1965,1947
1983,1943,1916
1984,1967,1918
2007,1974,1955
2000,1974,1942
1990,1964,1921
1984,1963,1914
2006,1968,1954
2018,1983,1973
2015,1975,1957
1961,1935,1885
1980,1958,1907
2017,1969,1938
2022,1968,1941
1993,1943,1917
2004,1959,1942
2009,1982,1951
2005,1939,1920
1984,1927,1891
2003,1952,1928
2011,1971,1950
2000,1956,1920
1997,1970,1913
2009,1968,1931
2011,1966,1941
2000,1936,1920
2000,1950,1918
2022,1984,1947
2019,1965,1954
2010,1968,1936
2007,1999,1924
2018,1984,1940
2000,1930,1923
1966,1882,1891
1963,1900,1887
2005,1945,1947
2005,1953,1941
2000,1954,1918
1991,1955,1910
2013,1938,1936
2029,1933,1952
2014,1949,1933
1999,1949,1905
2001,1966,1927
2007,1961,1936
2002,1940,1920
2007,1927,1920
2001,1949,1934
2015,1948,1942
2000,1953,1919
1997,1990,1907
2002,1963,1927
1995,1921,1933
2006,1941,1935
1989,1925,1910
1975,1914,1905
2000,1927,1932
1990,1924,1911
1998,1965,1915
2015,1970,1950
2027,1971,1962
2022,1968,1949
2000,1936,1920
1985,1947,1918
1996,1938,1933
1993,1988,1922
1988,1945,1915
2001,1934,1933
2018,1947,1949
2011,1961,1937
2001,1953,1919
1999,1958,1923
1991,1920,1912
1987,1922,1891
2001,1946,1913
2032,2000,1963
2015,1975,1951
1990,1939,1911
2013,1966,1930
2002,1953,1926
2005,1951,1945
1998,1965,1920
1991,1955,1904
2010,1970,1936
2016,1956,1943
1998,1957,1911
1993,1932,1905
2015,1954,1946
2038,1992,1981
2022,1978,1946
1965,1923,1888
1994,1949,1935
1986,1929,1935
1974,1931,1901
1990,1943,1915
2015,1964,1955
2016,1983,1967
1993,1974,1920
1989,1952,1905
2015,1984,1945
2006,1965,1939
1982,1937,1901
1987,1937,1894
2015,1973,1945
2053,2011,1985
1994,1931,1916
1968,1917,1886
1994,1959,1920
2015,1974,1946
2029,1962,1948
1984,1908,1897
1986,1931,1905
2013,1973,1939
1998,1936,1914
1997,1953,1895
2017,1985,1933
2023,1958,1941
2000,1952,1907
2003,1954,1909
2025,1963,1942
2034,1969,1964
1981,1927,1899
1984,1940,1897
2017,1957,1945
2007,1935,1937
1991,1963,1904
2011,1968,1910
2038,1965,1952
2032,1971,1955
1984,1936,1894
1969,1940,1878
1989,1913,1904
2001,1922,1933
2017,1891,1935
2027,1993,1936
2014,1941,1931
1993,1925,1919
1985,1922,1889
2000,1962,1904
2016,1936,1936
2022,1954,1947
2037,1977,1941
2013,1962,1911
1968,1877,1876
1984,1939,1907
1997,1959,1904
2016,1999,1921
2022,1957,1939
2027,1975,1948
1996,1909,1905
1986,1889,1901
2010,1973,1933
2007,1961,1936
2000,1956,1917
1999,1958,1914
2014,1904,1941
2021,1975,1960
2001,1951,1929
2006,1948,1921
2062,2038,1975
2032,1979,1959
1931,1899,1838
1951,1883,1856
2013,1937,1933
2018,1987,1950
2007,1931,1927
2015,1943,1921
2027,1993,1937
1987,1957,1911
1979,1919,1885
1991,1937,1895
2019,1968,1930
2033,1962,1951
1994,1920,1907
2006,1954,1919
1978,1933,1894
1987,1968,1903
1987,1941,1883
1995,1961,1910
2015,1974,1947
2013,1964,1942
2007,1947,1915
2010,1977,1916
2022,1974,1937
2027,2026,1953
1971,1946,1890
1949,1870,1867
1993,1950,1908
2021,1975,1938
2023,1983,1935
1983,1968,1905
2005,1987,1937
2001,2007,1934
1983,1936,1901
1977,1969,1887
2001,1941,1927
2020,2030,1940
1985,1958,1900
1986,1999,1904
2017,1939,1941
2022,2034,1968
2013,1995,1936
1966,1955,1882
1975,1959,1899
2001,2012,1934
2000,2008,1922
2001,1991,1925
1999,2011,1933
2006,1943,1940
2019,1971,1936
1994,1973,1906
1968,1935,1900
1981,1970,1910
1984,1975,1904
2000,1977,1916
2029,2025,1961
2019,2033,1951
1994,1969,1907
1994,1985,1900
2025,2010,1941
2029,2010,1946
1967,1929,1885
1969,1968,1883
2001,1947,1921
2015,1970,1940
2000,2064,1909
1995,2030,1893
2021,2009,1941
2047,2103,1974
1975,1973,1889
1968,1966,1869
1984,1957,1904
2002,1985,1934
1996,1979,1915
2000,1984,1914
2019,2006,1942
2003,1994,1926
1984,1975,1893
1995,1987,1895
2022,2039,1938
2007,1958,1931
1978,1957,1885
1983,1980,1886
2032,2025,1946
2043,2011,1965
2018,1991,1936
1968,2021,1873
1968,1952,1882
1999,1984,1927
2000,2043,1908
2009,2030,1915
2032,2011,1945
2016,2064,1937
1983,1939,1892
1978,1935,1887
1997,1922,1918
2005,1971,1930
1995,1964,1903
1992,1962,1902
2015,1987,1935
2021,1935,1941
1994,1945,1906
1987,1968,1904
2019,1975,1934
2032,2063,1954
1983,1973,1885
1959,1953,1872
1986,1986,1910
2010,2004,1934
1997,2014,1912
1999,1957,1889
2009,2045,1920
2019,1999,1948
2005,2029,1910
1997,2007,1901
2017,2025,1934
2011,1968,1936
1991,1984,1902
1985,1956,1895
2033,2031,1951
2058,2005,1970
1953,1936,1865
1951,1953,1857
1995,2002,1926
2055,2064,1975
2027,2000,1939
1957,1918,1852
1982,1936,1892
2011,1955,1936
2015,2004,1920
2001,1984,1909
2001,2017,1911
2007,2069,1936
2003,2028,1921
1991,1927,1904
2009,1968,1922
2016,2000,1935
2019,2000,1920
2011,2071,1914
2000,1973,1926
2006,1980,1943
1968,1903,1879
1989,1963,1886
2041,2021,1953
2015,2006,1936
1993,1959,1900
1984,1966,1891
1994,1961,1915
2014,1993,1942
2005,2009,1919
1999,2014,1904
2014,1985,1938
2018,1975,1958
2015,2005,1947
2018,2004,1931
1987,1956,1915
1977,1953,1914
1974,1966,1901
1999,1996,1906
2021,1974,1939
2032,2011,1962
1998,1973,1920
1983,1969,1898
2016,2000,1929
2027,2003,1946
2026,2010,1935
2002,1998,1906
1995,1975,1909
2018,1968,1936
2013,1962,1932
2005,2009,1927
1999,2006,1927
2000,1968,1935
2033,2000,1942
1994,1969,1904
1987,1975,1904
2006,1994,1930
2013,1983,1927
2018,2006,1936
2029,2025,1951
2021,2005,1941
1997,1984,1912
2003,1984,1904
2032,2015,1935
2039,2012,1958
2002,2000,1910
1987,2016,1891
2010,2000,1925
2016,1969,1936
2015,1957,1917
2019,2007,1923
2042,2013,1949
2011,2000,1930
1969,1978,1883
1966,1974,1877
2023,1991,1937
2021,2000,1938
1987,1956,1892
1994,1958,1893
2017,2007,1936
2027,2029,1958
2000,1984,1907
2000,1975,1893
2015,2007,1919
2027,1989,1936
2011,1978,1923
2005,2006,1910
2005,2005,1924
2016,2005,1937
2010,1997,1921
2001,1989,1905
1982,1983,1903
1996,1968,1930
2012,1984,1929
2022,1983,1936
1997,1975,1916
1994,2006,1924
1991,1994,1907
2000,1979,1901
2015,1984,1933
2013,2005,1950
2001,2013,1920
2017,2005,1918
2013,1998,1926
2015,2019,1936
2010,1990,1919
1998,1973,1900
2006,1999,1929
2025,2015,1939
2000,1964,1906
1986,1958,1888
2032,2002,1949
2003,1978,1932
1974,1949,1889
2000,1951,1901
2028,2015,1940
2018,2019,1933
1991,1971,1904
1989,1968,1895
2031,2032,1941
2059,2031,1965
2004,1979,1907
1979,1949,1875
2000,1958,1910
2022,1984,1936
2007,1989,1917
2010,1984,1909
2021,1991,1936
2016,1995,1936
2001,1977,1931
2003,1977,1923
2033,2015,1947
2018,2000,1935
1991,1961,1900
1988,1967,1889
2018,1989,1935
2033,2000,1952
2017,1991,1919
2001,1984,1907
2010,1978,1920
2010,1974,1921
2000,2000,1914
2016,1989,1920
2022,1995,1936
2027,2000,1939
2001,1968,1920
2000,1955,1903
2033,2015,1948
2061,2064,1969
2007,1993,1911
1955,1911,1840
1989,1923,1888
2035,1990,1931
2032,2014,1929
2010,1983,1899
2015,2005,1918
2029,2009,1942
2020,1972,1917
2015,2000,1907
2038,2021,1936
2035,1971,1941
2025,1969,1922
2000,1968,1899
2014,1984,1907
2038,1994,1942
2016,1990,1913
2000,1959,1895
2014,1954,1917
2032,1987,1945
2041,2023,1942
2032,2000,1921
2021,1991,1925
2015,2001,1936
2015,1997,1919
2021,1989,1914
2034,2013,1937
2055,2015,1957
2034,2000,1933
2032,1983,1933
2047,1993,1958
2039,1978,1950
2012,1963,1913
2000,1988,1887
2036,2017,1935
2066,2030,1969
2023,2000,1920
2005,1993,1890
2018,1979,1906
2022,1975,1930
2030,2010,1927
2034,2006,1925
2037,1991,1936
2038,2009,1938
2032,2002,1921
2030,2017,1931
2045,1991,1945
2059,1997,1968
2021,1983,1922
2007,1974,1909
2037,2016,1941
2037,2026,1968
2019,1990,1968
2016,1984,1857
2019,1975,1913
2047,2021,1919
2032,2000,1911
2006,1984,1890
2010,1995,1947
2023,1989,1968
2023,1970,1890
1999,1943,1911
2014,1968,1905
2037,1994,1939
2033,2011,1973
2026,1986,1919
2032,1942,1939
2039,1981,1969
2032,1990,1928
2010,1984,1899
2038,2039,1954
2037,2016,1929
2000,1979,1904
2000,1968,1902
2066,2020,1984
2031,1981,1937
1995,1969,1891
2008,1977,1920
2026,1988,1914
2035,2021,1956
2015,1994,1923
2021,1983,1920
2034,2013,1957
2029,1968,1946
2019,1967,1951
2023,2004,1919
2023,1991,1927
2034,2009,1936
2022,1987,1917
2014,1984,1909
2032,1991,1943
2058,2000,1967
1992,1963,1907
2000,1979,1922
2010,1956,1959
2042,1995,1958
2034,1978,1931
1984,1948,1870
2007,1953,1950
2062,1995,1936
2027,1987,1966
2010,2017,1915
2016,1973,1936
2035,1968,1919
2026,1971,1898
2015,1978,1879
2026,1984,1952
2039,1997,1931
2026,1996,1936
1997,1950,1891
2015,1968,1896
2038,1989,1956
2047,1995,1925
2023,1978,1937
2017,1970,1921
2032,1991,1939
2031,1981,1918
2025,2000,1941
2032,1986,1936
2064,1998,1964
2012,1967,1920
1970,1934,1868
2006,1957,1923
2020,1971,1934
2026,1971,1929
2005,1967,1919
2013,1983,1889
2054,2021,1966
2000,1949,1925
1984,1946,1875
2017,1996,1921
2042,2007,1995
2015,1984,1904
1999,1974,1941
2017,2000,1883
2038,1990,1918
2014,1954,1942
2000,1968,1867
2011,1984,1951
2027,1983,1956
2020,1970,1935
2032,1982,1883
2002,1950,1930
2031,1994,1928
2023,1996,1936
2000,1969,1840
2016,1985,1901
2034,2004,1956
2036,1995,1937
2005,1953,1895
2006,1945,1898
2010,1942,1910
1998,1968,1908
2018,1991,1907
2037,2001,1942
2005,1954,1914
1995,1933,1904
2007,1965,1919
2035,2001,1941
2037,1990,1967
2027,2000,1941
2006,1993,1911
2006,1983,1920
2055,2030,1968
1989,1957,1899
1959,1921,1869
2011,1969,1924
2029,1982,1950
1999,1975,1890
2002,1957,1918
2025,1997,1968
2015,1999,1989
2022,1999,1936
2000,1948,1931
2025,2010,1910
2027,2000,1917
2004,1977,1911
2000,1951,1904
2032,1991,1914
2054,2010,1994
2027,1983,1919
2022,1968,1898
2027,1953,1895
2011,1955,1939
2000,1961,1920
2002,1975,1902
2042,2022,1963
2021,2006,1996
2005,1965,1926
2010,1963,1905
2035,1980,1947
2031,2015,1932
2003,1982,1923
1995,1967,1943
2003,1962,1932
2016,1965,1951
2010,1951,1938
2032,1998,1933
2038,2006,1949
2019,1997,1936
1977,1941,1886
1975,1945,1885
2000,1963,1903
2032,1979,1958
2027,1985,1935
2013,2004,1904
2015,1973,1929
2023,1980,1949
2009,1966,1918
2000,1957,1853
2012,1968,1971
2041,2000,1965
2006,1993,1939
1977,1965,1856
2017,1984,1941
2032,1968,1936
1997,1966,1872
2000,1981,1899
2032,1995,1925
2014,1991,1928
1999,1975,1919
2000,1962,1917
2016,1967,1988
2023,1971,1964
2027,1986,1914
2005,1983,1902
2023,1985,1921
2032,1968,1958
2006,1968,1904
2000,1975,1904
2037,1980,1947
2016,1986,1937
2000,1970,1911
1999,1959,1899
2030,2006,1935
2064,2031,1986
2001,1955,1919
1955,1945,1865
2001,1975,1907
2031,1985,1942
2017,1961,1929
2018,1964,1929
1987,1964,1906
2000,1968,1931
2003,1985,1921
1996,1972,1904
2011,1987,1923
2018,1995,1949
2014,1987,1926
1997,1968,1903
2011,1981,1911
2033,2015,1952
2000,1975,1931
1973,1971,1899
2022,2007,1949
2018,1967,1947
1995,1959,1904
1985,1957,1897
2003,1968,1920
2007,1958,1934
1982,1953,1895
1996,1989,1896
2030,1984,1931
2069,1985,1948
1991,1982,1923
1959,1957,1893
1979,1986,1923
2026,1991,1955
2031,2000,1947
2002,1977,1892
1982,1986,1932
2015,2000,1952
1984,1969,1927
1974,1982,1916
2074,2001,1945
1970,1957,1911
1983,1949,1877
1987,1953,1879
1993,1974,1915
2069,1999,1954
2038,1966,1926
1952,1975,1906
2011,1986,1901
1981,1989,1929
2018,1959,1921
2016,1978,1917
2011,1982,1917
2017,1984,1961
2016,1987,1934
1997,1959,1902
2032,1984,1935
2035,1991,1959
2034,2000,1943
1968,1980,1894
2000,1922,1874
2001,1949,1919
2000,1981,1935
2006,1990,1907
2031,1985,1930
2016,1974,1942
2024,1983,1938
2041,1991,1925
2007,1984,1919
2009,1951,1933
2029,1955,1904
1994,1973,1904
2046,2013,1939
2029,1986,1945
2005,1942,1906
2014,1967,1919
2067,2006,1955
2022,1947,1951
2010,1959,1920
1984,1962,1885
1978,1984,1930
2058,1994,1965
2018,1978,1936
2001,1966,1890
2047,2014,1941
2023,1970,1936
2011,1951,1911
2005,1966,1907
2032,1982,1938
2035,1994,1947
2029,1965,1906
2014,1988,1901
2114,2015,1971
2071,1981,1946
1998,1923,1887
1946,1941,1866
1971,2000,1920
2093,2015,1972
2046,2001,1929
2000,1975,1904
2003,1987,1926
2029,1988,1951
2019,1982,1935
1997,1951,1891
2007,1949,1910
2003,1984,1952
2006,1983,1923
2059,1970,1930
1981,1983,1919
1968,1953,1907
2026,1968,1918
2023,1961,1904
2043,1975,1936
1981,1978,1920
2030,1969,1909
2001,1950,1904
2043,1989,1927
2054,2015,1967
2058,2000,1933
2014,1989,1910
2054,1963,1936
2000,1968,1936
2027,1971,1907
1979,1951,1898
2073,2006,1954
2004,1990,1963
1996,1968,1911
2000,1947,1904
1991,1951,1906
2000,1973,1936
2000,1972,1929
2005,1973,1913
2017,1993,1939
2032,2013,1979
2112,1993,1950
1995,1979,1904
2079,1958,1936
2038,1986,1961
2011,1963,1933
1995,1979,1903
2030,2026,1944
2046,1999,1968
1995,1930,1904
1964,1920,1872
1998,1969,1907
2033,1993,1957
2003,1962,1924
2065,1962,1907
2000,1982,1938
2065,2000,1955
2061,1943,1915
2022,1968,1904
1995,1997,1941
1995,2000,1954
2000,1971,1923
1959,1946,1893
1998,1968,1910
2039,2017,1967
1983,1993,1940
1993,1983,1904
2010,1977,1913
1973,1962,1923
2005,1961,1933
1967,1935,1905
1970,1967,1920
2043,1993,1941
2000,1971,1926
1943,1954,1907
1978,1997,1934
2039,2025,1966
1999,1974,1920
1979,1945,1890
2017,1979,1934
2033,1995,1966
2078,2019,1955
2017,1977,1933
