2047,1999,1968
2026,2000,1942
2011,1989,1921
2006,1979,1955
2015,1957,1904
2018,1958,1910
2045,1982,1968
2031,1986,1947
2015,2000,1918
1997,1953,1920
2053,1984,1912
2083,2032,1977
1989,1968,1904
1983,1927,1879
2013,1950,1937
2039,1987,1971
2031,1980,1939
2001,1970,1934
2009,1968,1949
2036,1979,1966
2041,2006,1984
2025,1977,1923
1975,1931,1891
2007,1954,1904
2055,1970,1967
2001,1987,1899
1987,1968,1889
2017,1983,1931
2029,1986,1951
1985,1964,1901
2024,1990,1927
2009,1957,1936
1993,1954,1901
2002,1954,1917
2015,1973,1920
2026,1981,1949
2018,1968,1957
1991,1957,1901
2011,1999,1961
2042,1975,1953
2002,1970,1936
1995,1975,1900
1991,1943,1905
2005,1962,1894
2015,1977,1946
1998,1957,1863
2002,1966,1921
2039,2045,1951
2011,1978,1921
1966,1929,1872
2001,1973,1925
2014,1975,1972
2018,1981,1941
2003,1969,1906
2005,1977,1915
2027,2001,1936
2017,1982,1948
1985,1933,1919
2011,1969,1920
2030,2006,1947
2022,1995,1883
1998,1964,1906
2019,1983,1917
2042,2000,1949
2002,1950,1907
1958,1927,1883
1997,1950,1908
2030,1984,1954
2027,1974,1953
2027,1982,1923
2053,2021,1945
2012,1982,1899
1984,1904,1889
1984,1904,1866
2013,2015,1915
2027,1984,1936
2023,1977,1936
1989,1967,1935
1974,1956,1872
2009,1982,1904
2035,2000,1951
1999,1988,1904
1974,1942,1909
2003,1970,1915
2022,1987,1943
2002,1975,1855
2015,1985,1923
2013,1975,1954
2001,1970,1891
1989,1968,1891
2025,1995,1953
2027,1982,1942
2017,1979,1906
1997,1963,1887
1990,1936,1933
2015,1975,1918
2010,1981,1947
1995,1962,1898
2002,1990,1920
2069,2015,1984
2020,1982,1936
1967,1953,1887
1979,1943,1884
2018,1974,1943
2042,1994,2000
1999,1949,1939
1980,1958,1897
2017,1990,1937
2032,2001,1943
2002,1968,1961
2022,1971,1923
2021,1960,1935
2003,1978,1930
1999,1987,1895
2001,1998,1918
2031,2017,1955
2021,1986,1938
1987,1939,1882
2032,1977,1935
2027,1986,1968
1987,1964,1949
1991,1968,1897
2013,2005,1915
2006,1968,1907
1989,1923,1909
1983,1941,1859
2027,1972,1886
2042,1968,1995
2025,1999,1936
2011,2006,1947
1993,1970,1897
1999,1968,1968
2019,1975,1873
1994,1964,1894
2000,1983,1856
2015,1998,1936
2003,1971,1931
1983,1950,1894
1989,1975,1904
2016,1978,1927
2026,1984,1946
1980,1952,1891
1986,1959,1901
2011,1968,1939
2007,1968,1938
2005,1954,1914
2017,1993,1927
2025,2000,1947
2016,1975,1952
2013,1984,1934
1975,1953,1898
1997,1969,1923
2029,2000,1959
2011,1968,1919
2031,2000,1932
2011,1989,1938
1959,1923,1900
1953,1911,1870
1985,1959,1915
2030,1994,1956
2021,1973,1939
1997,1968,1904
2011,1958,1912
2034,1990,1965
2018,2000,1936
1999,1986,1903
2001,1970,1911
2007,1970,1941
2003,1971,1930
1993,2001,1894
1934,1952,1897
2033,1968,1942
2105,2005,1988
2055,1969,1924
1955,1919,1870
1966,1936,1895
1993,1968,1922
2000,1967,1904
2015,1971,1918
2003,1968,1957
1994,2011,1954
2005,1973,1905
1977,1994,1920
2067,1995,1936
2022,1981,1936
2032,1965,1913
2025,2011,1918
2003,1991,1941
1940,1945,1910
1933,1941,1879
1975,1986,1907
2042,2016,1957
2064,2011,1970
1997,1942,1915
1962,1929,1871
2011,1981,1926
1999,1975,1920
1991,1987,1906
1983,1982,1919
2044,1984,1952
2004,1974,1931
1937,1974,1901
1954,1977,1918
2033,1973,1947
2039,1958,1951
2000,1970,1909
1970,1938,1865
1978,1955,1911
2026,1965,1936
1991,1965,1918
2022,2000,1937
2010,1984,1934
1971,1951,1904
1968,1936,1874
2000,1950,1904
2031,1984,1951
2027,2000,1943
1968,1945,1883
1982,1943,1897
2001,1983,1942
1978,1973,1939
1999,1963,1926
2004,1983,1920
1977,1958,1922
2013,1974,1922
1995,1971,1895
1998,1981,1904
2026,1998,1943
2089,2016,1974
1969,1920,1872
1943,1920,1867
2032,1963,1935
2071,1970,1953
2043,1962,1893
1991,1946,1878
2000,1979,1933
2032,1998,1953
1994,1994,1922
1937,1950,1901
2017,1955,1936
2054,1988,1951
1997,1995,1911
1975,1966,1900
1977,1969,1920
1997,1975,1937
1990,1983,1905
1998,1989,1911
2009,2005,1944
1943,1955,1914
1990,1904,1871
1995,1975,1903
1954,1979,1920
1980,1995,1921
1949,1970,1893
1978,1971,1915
2029,1953,1937
1995,1943,1919
1989,1958,1879
1953,1968,1893
2038,1990,1941
2063,1985,1947
2025,2000,1921
1970,1994,1925
1969,1910,1914
1980,1968,1920
2000,2019,1917
1936,1979,1904
1997,1963,1905
2019,1950,1935
1991,1934,1896
1982,1948,1881
2018,1981,1938
2107,1969,1939
1990,1964,1895
2007,1993,1917
2032,2000,1963
1999,1964,1927
1904,1942,1900
1988,1974,1902
2021,2018,1941
2039,2001,1968
1999,1958,1907
1975,1959,1890
2011,1969,1937
1998,1945,1922
1995,1962,1904
2001,1984,1905
1987,1950,1909
1963,1936,1911
1986,1942,1902
1989,1975,1913
2002,2003,1947
2011,1975,1931
1986,1949,1885
1989,1975,1902
2001,2046,1963
2058,2013,1965
1957,1893,1873
1999,1930,1872
1972,1967,1942
2000,1984,1946
1998,1943,1875
1986,1947,1883
1998,1986,1947
2003,2001,1964
1979,1968,1894
1933,1941,1872
1983,1963,1919
2014,1995,1937
1998,1990,1905
2000,2016,1917
2014,1968,1931
2018,1952,1934
1954,1927,1887
1985,1941,1889
1991,1979,1931
2000,1970,1922
1997,1985,1901
2011,1967,1915
2011,1970,1936
2011,1998,1938
1999,1970,1893
1979,1968,1899
2020,2017,1953
2023,1997,1967
1975,1911,1896
1969,1946,1883
2021,1970,1914
1991,1970,1937
2031,1995,1935
1978,1923,1883
1950,1942,1899
1987,1982,1920
1981,1979,1925
1985,1968,1918
1982,1991,1937
1994,2003,1946
1986,1968,1915
1984,1958,1918
1949,1977,1936
1987,1954,1942
1987,1969,1911
1998,2003,1920
1884,1975,1903
1925,1925,1899
1955,1963,1904
2037,1979,1915
1972,1993,1949
2007,2007,1947
2001,1985,1924
1968,1951,1889
1993,1979,1925
2023,1995,1959
2003,2001,1925
1943,1933,1867
2003,1978,1935
2017,1985,1943
1953,1914,1872
1971,1958,1887
2001,2000,1923
2013,1999,1936
1988,1972,1906
1991,1961,1914
2019,2007,1953
2015,2000,1947
1977,1965,1899
1968,1952,1895
1995,1998,1936
1978,1970,1920
1953,1938,1887
1973,1968,1895
2026,2006,1965
1999,1967,1939
1986,1983,1915
2000,2007,1921
1991,1939,1925
1998,1978,1925
1979,1983,1895
1989,1987,1917
2019,2006,1952
2026,2011,1966
1984,2016,1931
1952,1938,1875
1946,1913,1878
1982,1951,1926
1983,1964,1907
1988,1968,1903
2009,1991,1945
2003,2005,1936
1991,1979,1904
1999,1995,1918
1984,1955,1919
1987,1957,1925
1994,1970,1918
1983,1956,1913
2013,2003,1946
1971,1972,1907
1950,1937,1874
1959,1943,1884
1993,1980,1934
2016,2017,1962
1999,2000,1930
1974,1968,1893
1995,2009,1925
2017,2001,1952
1995,1972,1907
1968,1939,1872
1981,1962,1913
1987,1968,1926
1988,2001,1911
1961,1974,1885
1985,1936,1920
1981,1942,1923
1980,1983,1914
1975,1983,1910
2000,2007,1947
1998,2000,1936
1987,1984,1911
2000,1997,1919
2001,1983,1934
2032,2003,1961
1998,2006,1918
1987,1981,1901
1982,1937,1910
2018,1969,1959
1968,1936,1881
1965,1950,1894
1999,1967,1937
1991,1975,1939
1973,1952,1895
1973,1968,1892
2023,2000,1946
2011,1999,1943
1988,1967,1905
1997,1996,1913
2034,2030,1963
2022,2009,1954
2015,2009,1938
2003,1977,1923
1959,1956,1888
1967,1967,1897
1970,1947,1894
2015,1958,1931
2018,1959,1936
1997,1963,1920
1995,1968,1911
2001,1978,1907
2008,1994,1921
2000,1989,1933
1982,1967,1907
2010,1967,1931
2029,2014,1950
2059,2064,1979
1981,1970,1892
1973,1973,1888
1977,1951,1897
1973,1959,1904
1984,1989,1914
2010,1969,1919
2023,1968,1941
2010,1983,1940
2021,2005,1936
2017,2009,1923
1998,2000,1915
1994,1965,1914
2000,1951,1904
2000,1959,1904
2031,1983,1951
2013,1936,1936
2006,1984,1919
1994,1987,1903
2000,1991,1929
2000,1963,1933
2005,1958,1920
2013,1982,1923
2012,1972,1936
2025,2005,1963
2011,1963,1909
2006,1952,1916
1999,1983,1918
2007,1998,1936
1997,1984,1917
2007,1959,1920
2038,1995,1973
1990,1953,1921
1963,1937,1872
1968,1942,1885
2010,1968,1937
2032,1971,1959
2015,1953,1931
2011,1975,1929
2011,1998,1938
1991,1968,1925
1977,1954,1901
2007,1984,1920
2039,2017,1967
2000,1955,1925
1973,1950,1891
1980,1970,1902
2029,2019,1963
2011,1988,1953
1968,1936,1892
1968,1939,1885
2015,1988,1936
2023,2005,1954
1989,1970,1910
1995,1954,1915
2017,1986,1945
2027,2000,1937
1971,1936,1887
1968,1949,1887
1997,1973,1923
2023,2009,1955
2014,1993,1932
2006,1987,1909
2031,2023,1950
2032,2005,1961
1951,1920,1874
1945,1923,1866
2011,1927,1936
2016,1984,1935
1999,1933,1904
2000,1999,1909
2001,1978,1927
2013,2017,1936
1999,1990,1907
2005,1952,1907
2019,2019,1936
2014,1968,1936
2058,2005,1959
1979,1926,1891
1985,2019,1911
2018,1971,1942
2031,2000,1929
2000,1958,1904
1968,1872,1882
1995,1936,1920
2010,1959,1923
2010,1955,1919
2026,2007,1939
2013,1968,1937
1983,1955,1904
1998,1981,1904
2021,2000,1947
2027,1983,1955
2025,2026,1936
2032,2014,1936
2032,2007,1939
1978,1980,1899
1950,1941,1866
1971,1952,1886
2016,2000,1936
2038,2014,1968
2026,2039,1938
1989,1981,1906
1973,1955,1898
2026,1949,1939
2000,1973,1905
1989,1980,1891
2010,1961,1939
2031,1990,1968
2013,1986,1923
2020,1963,1931
2023,2007,1951
1972,1945,1902
1958,1929,1872
1985,1949,1890
2037,2003,1950
2039,1988,1955
2000,1954,1917
2019,2015,1920
2015,1965,1946
1979,1927,1912
1995,1959,1904
2005,1967,1913
2005,1955,1923
2000,1952,1923
2000,1970,1911
2000,1946,1904
2032,2022,1947
2032,1982,1961
1978,1971,1889
1985,1963,1886
2006,1955,1924
2028,1979,1945
2013,1963,1919
2000,1952,1902
2029,1979,1950
2025,1975,1952
2032,1999,1937
2039,2003,1945
1989,1925,1905
1974,1904,1899
1994,1937,1893
2018,1982,1918
1998,2001,1917
2013,1984,1927
1991,1962,1902
2005,1952,1912
2035,1951,1943
2025,2031,1936
2005,1988,1907
2017,1958,1905
2058,1979,1965
2011,1952,1926
1995,1946,1906
2039,1974,1942
2037,1979,1951
2007,1961,1923
1968,1932,1870
2013,1985,1905
2017,1934,1917
1999,1936,1917
2005,1968,1911
2022,1940,1915
2037,1968,1941
2041,1991,1953
2017,1968,1919
1989,1939,1899
2042,1991,1951
2064,2006,1977
1993,1957,1886
1989,1936,1885
2023,1987,1927
2015,2028,1949
1989,1951,1897
1983,1950,1879
2006,1987,1915
2009,1989,1923
2005,1966,1907
2006,1971,1903
2032,1989,1939
2034,1994,1955
2004,1986,1910
2001,1970,1898
2007,1973,1915
2025,1984,1936
2010,1983,1911
1974,1958,1872
2003,1980,1914
2039,1948,1955
1996,1953,1891
2000,1983,1892
2001,1973,1910
2035,2038,1951
1997,2007,1898
1968,1947,1869
1987,1942,1907
2022,2032,1947
2014,1931,1919
2013,1981,1906
2023,1963,1929
1985,1982,1904
1991,1935,1896
2000,1964,1903
2029,1969,1943
2030,1995,1965
2009,1997,1917
1995,1919,1887
2005,1976,1911
1983,1957,1903
1997,1937,1904
1994,1954,1904
2030,2005,1947
2042,2012,1968
1969,1919,1867
1984,1939,1886
2037,1999,1953
2006,2012,1927
1973,1927,1888
2001,1971,1908
2015,1984,1931
2017,1983,1939
2026,1994,1934
1969,1951,1872
1968,1947,1890
2014,1949,1923
2000,1955,1908
2000,1962,1904
2031,1961,1946
2001,1959,1922
1985,1968,1883
2013,1977,1913
2038,2010,1952
2006,1983,1926
1979,1943,1878
1972,1981,1872
2006,2000,1925
1999,1915,1920
2011,1973,1920
2006,1970,1904
2006,2003,1921
1987,1936,1907
1968,1946,1872
2004,1968,1889
2035,1958,1940
2012,1969,1925
2004,1958,1907
2016,1972,1924
2005,1957,1921
1985,1942,1904
1983,1927,1883
2003,1966,1907
2064,2032,1971
2000,1968,1923
1983,1941,1887
1970,1935,1871
2015,1984,1933
2032,2022,1955
1980,1943,1886
1984,1962,1877
2019,1978,1921
2031,1971,1940
2009,1968,1917
1980,1938,1881
2017,1979,1927
2023,1978,1940
2065,2015,1962
1975,1936,1874
1956,1930,1872
1991,1962,1915
2013,1966,1914
2012,1986,1904
2032,2000,1936
2039,1985,1946
1997,1933,1901
2002,1961,1905
2031,2006,1947
2046,2027,1971
2000,1958,1903
1972,1930,1869
2025,1971,1936
2054,2003,1959
2021,1982,1920
1972,1941,1872
2015,1986,1934
2031,1999,1964
2000,1979,1907
1998,1970,1889
2016,1984,1927
2019,1959,1938
2000,1952,1913
1999,1978,1902
2018,1998,1934
2047,2016,1968
2000,1968,1904
1982,1946,1883
2023,1985,1930
2055,2003,1970
1995,1957,1909
1964,1943,1872
1999,1967,1909
2062,2017,1967
2012,1985,1920
1957,1899,1871
1983,1961,1906
2026,2000,1952
2011,1980,1923
2000,1979,1904
2004,1959,1920
2010,1965,1933
2010,1968,1920
2011,1971,1918
2011,1973,1934
2035,2007,1969
2002,1987,1917
2002,1998,1913
2016,2003,1936
2017,1975,1935
1997,1947,1904
1988,1943,1893
1998,1974,1907
2021,1996,1948
2020,2000,1936
1986,1949,1893
1987,1925,1901
1986,1946,1911
1998,1956,1919
2021,1989,1931
2064,2023,1974
2019,1987,1941
1952,1950,1880
1984,1965,1890
2011,1966,1925
2031,1978,1936
2030,2007,1922
2000,1968,1895
2010,1970,1922
2032,2003,1957
2002,1980,1905
1983,1974,1879
2030,2002,1942
1995,1959,1922
1985,1948,1901
2001,1952,1902
2016,1969,1930
2054,2016,1970
2002,1978,1920
1995,1975,1905
2032,2001,1956
2019,1975,1955
2016,1975,1937
2053,2006,1950
2000,1966,1919
1954,1922,1878
1966,1947,1881
2007,1958,1911
2041,1977,1955
2023,1995,1952
1983,1965,1897
1985,1968,1892
2034,2014,1963
2028,1995,1963
1991,1963,1905
2005,1977,1915
2019,1991,1949
2035,2017,1968
1995,1962,1910
1998,1965,1914
1997,1963,1921
2000,1971,1936
2000,1975,1923
2000,1948,1904
2036,2006,1965
2032,1989,1962
1993,1955,1907
2001,1967,1907
2058,2019,1968
2034,1983,1959
1991,1941,1904
1999,1959,1904
2022,1985,1936
2038,2001,1963
2034,2002,1964
2000,1961,1905
2017,1984,1936
2037,1999,1968
1978,1936,1889
1968,1923,1872
2011,1958,1931
2032,1989,1963
2039,1986,1947
2001,1968,1904
2009,1969,1930
2030,1984,1963
2006,1950,1923
2033,2000,1941
2062,2019,1975
2011,1963,1939
1989,1947,1904
1977,1965,1883
2023,2000,1940
2011,1954,1936
1991,1946,1904
2010,1969,1921
2025,1981,1947
2003,1971,1973
2000,1971,1920
1999,1965,1918
2022,1977,1937
2035,1996,1963
1979,1946,1891
1997,1968,1902
2034,2007,1958
2014,1956,1953
2004,1957,1933
1984,1995,1904
1984,1981,1857
1984,1939,1918
1986,1929,1913
1994,1962,1905
2017,1968,1947
2037,1994,1967
2004,1981,1925
2016,1983,1923
2023,1981,1946
1987,1941,1918
1988,1959,1864
1998,1958,1870
2022,1985,1954
2011,1969,1949
2005,1967,1904
2004,1968,1932
2001,1962,1907
2012,1965,1911
2011,1968,1904
2018,1975,1917
2031,1987,1920
2034,1996,1940
2047,2003,1936
2025,1987,1936
2005,1989,1920
1975,1936,1877
1966,1918,1881
1984,1936,1899
2021,1967,1939
2029,1983,2005
2015,1968,1935
2000,1963,1936
2016,1973,1933
2030,1983,1950
2019,1979,1957
2010,1974,1895
2031,1983,1950
2041,1983,1967
2027,1971,1904
2019,1968,1909
2030,1983,1945
2034,1986,1968
2023,1973,1901
2000,1968,1909
2005,1968,1919
2019,1971,1948
2021,1970,1951
2032,1991,1936
2031,1989,1947
2018,1971,1949
1977,1935,1911
1969,1923,1872
1998,1955,1903
2028,1955,1967
2004,1948,1939
2000,1966,1890
1996,1939,1899
2013,1951,1962
2007,1947,1915
2000,1936,1910
2032,1966,1933
2063,1998,2003
2000,1918,1919
1968,1894,1879
2021,1953,1919
2029,1957,1996
1970,1909,1914
1979,1921,1919
2034,1952,1968
2075,1986,1974
1974,1909,1911
1968,1896,1907
2005,1929,1912
2025,1942,1978
2019,1936,1945
2020,1936,1900
2028,1950,1954
2032,1923,1966
2015,1911,1913
2009,1917,1947
2023,1932,1938
2039,1927,1962
2012,1920,1935
2005,1920,1878
2018,1941,1910
2021,1939,1961
2007,1918,1913
2006,1920,1946
2017,1925,1962
2023,1929,1956
2020,1933,1907
2000,1925,1875
2021,1936,1913
2026,1923,1920
2005,1906,1938
2005,1909,1907
2023,1927,1956
2032,1926,1987
2013,1920,1935
2014,1927,1906
2027,1941,1961
2032,1942,1975
2014,1909,1950
2019,1915,1920
2031,1931,1947
2041,1936,1959
2030,1925,1985
2025,1920,1915
2046,1942,1935
2047,1942,1939
2032,1932,2018
2027,1931,1951
2038,1940,1945
2032,1938,1968
2014,1926,1933
2014,1932,1921
2032,1926,1936
2035,1926,1924
2031,1926,1932
2015,1923,1914
2037,1936,1936
2039,1936,1969
2029,1929,1938
2018,1931,1931
2032,1937,1951
2045,1936,2000
2029,1936,1940
2007,1936,1928
2026,1946,1965
2034,1938,1951
2017,1926,1959
2015,1927,1951
2031,1937,1931
2037,1942,1997
2017,1942,1920
2016,1930,1946
2031,1933,2002
2036,1941,1933
2023,1934,1904
2011,1922,1905
2029,1929,1970
2032,1942,1950
2019,1935,1935
2003,1934,1930
2022,1944,1947
2034,1936,1962
2015,1922,1947
2007,1919,1904
2030,1927,1979
2027,1939,1971
2022,1923,1936
2022,1925,1919
2030,1936,1947
2035,1939,1949
2016,1930,1935
2018,1930,1904
2027,1935,1925
2033,1941,1933
2021,1926,1933
2013,1927,1911
2029,1946,1941
2031,1935,1945
2015,1922,1949
2010,1930,1910
2031,1929,1932
2032,1935,1951
2013,1924,1922
2007,1923,1936
2029,1936,1983
2031,1938,1951
2015,1926,1919
2004,1915,1885
2019,1936,1915
2022,1937,1949
2013,1927,1920
2006,1920,1898
2023,1938,1931
2029,1939,1929
2005,1915,1908
1992,1920,1892
2014,1934,1928
2018,1934,1941
2002,1936,1911
1997,1920,1872
2002,1925,1923
2017,1923,1938
2005,1915,1911
1999,1924,1882
2015,1936,1923
2026,1936,1943
2010,1917,1908
1997,1919,1892
2011,1932,1917
2016,1935,1933
2003,1921,1904
2005,1920,1897
2021,1945,1920
2025,1946,1939
2011,1930,1916
2003,1933,1899
2021,1937,1918
2031,1946,1936
2011,1951,1919
2001,1937,1903
2023,1927,1918
2027,1925,1920
2000,1929,1905
1994,1929,1901
2007,1942,1919
2019,1952,1937
2002,1927,1920
1991,1937,1902
2006,1958,1925
2010,1951,1935
2000,1934,1904
1994,1930,1888
2001,1947,1919
2011,1945,1936
2020,1941,1911
1997,1947,1891
2032,1947,1909
2001,1943,1936
1998,1936,1919
1999,1936,1895
2032,1945,1913
2023,1950,1920
2023,1951,1923
2000,1954,1913
1971,1958,1946
2085,1966,1959
2025,1951,1924
1974,1955,1898
2032,1939,1909
2024,1936,1935
2023,1930,1905
1987,1938,1888
1965,1952,1921
2069,1967,1965
2006,1954,1935
1995,1941,1890
1987,1942,1904
1984,1943,1898
1955,1939,1872
1971,1937,1889
2003,1959,1936
1973,1950,1930
1991,1932,1882
1969,1938,1890
2015,1984,1938
2007,1949,1943
1988,1919,1895
1953,1911,1868
1984,1939,1900
2017,1936,1936
1966,1930,1894
1925,1921,1868
1984,1934,1883
1969,1936,1907
1969,1936,1902
1970,1943,1873
1967,1947,1893
1978,1906,1904
1967,1905,1889
1967,1910,1877
1946,1950,1872
1981,1934,1918
1986,1923,1889
1913,1891,1877
1938,1873,1909
1970,1944,1939
1949,1965,1872
1916,1903,1830
1947,1899,1865
1950,1931,1913
1957,1925,1905
1946,1923,1867
1920,1903,1872
1939,1837,1908
1999,1889,1963
1983,2031,1891
1945,1873,1899
1979,1731,1993
2001,1872,1983
1968,1937,1948
2032,1979,2074
1918,2039,1849
1913,1916,1724
1995,1840,2027
2010,2288,2094
1866,2032,1724
1834,1907,1659
1887,1957,1776
1947,1998,1878
1965,2061,1906
1927,2077,1867
1950,2064,1839
1961,2095,1867
1918,2128,1885
1945,2117,1867
1924,2112,1873
1979,2126,1887
1931,2135,1863
1928,2130,1856
1983,2129,1883
1989,2146,1923
2019,2163,1909
1942,2130,1837
1919,2117,1841
1951,2142,1926
1980,2161,1936
2001,2131,1871
1986,2103,1862
1995,2110,1899
1978,2125,1900
1930,2096,1863
1994,2083,1874
2006,2105,1920
2019,2123,1922
1984,2092,1882
1975,2047,1873
2010,2069,1904
2033,2081,1910
1979,2043,1873
1969,2000,1863
2027,2006,1897
2007,2029,1904
1994,1993,1880
1995,1958,1869
2023,1954,1909
2017,1950,1914
1967,1933,1862
1939,1901,1835
2015,1921,1909
2032,1917,1935
2002,1875,1895
1968,1826,1863
1991,1843,1890
2001,1872,1909
1983,1835,1863
1948,1803,1847
1986,1814,1875
1961,1823,1871
1935,1798,1837
1961,1776,1840
1971,1789,1875
1988,1821,1893
1989,1792,1851
1967,1714,1836
2032,1736,1872
1963,1810,1891
1969,1840,1874
2064,1697,1917
2032,1885,1885
1970,1788,1815
1965,1654,1793
1922,1651,1815
1998,1715,1872
1998,1774,1842
1921,1743,1744
2021,1730,1857
2095,1855,1981
2031,1703,1904
1967,1618,1813
1981,1571,1820
2029,1729,1883
2023,1841,1879
2011,1919,1858
2013,1968,1881
1994,1639,1837
1999,1583,1851
1993,1630,1846
1982,1714,1831
2029,1757,1855
2064,1785,1885
2006,1744,1840
1954,1712,1821
2022,1744,1861
2080,1783,1885
2037,1744,1839
2015,1680,1830
2017,1745,1872
2058,1830,1895
2006,1783,1822
1938,1712,1775
1978,1739,1825
2043,1801,1889
1978,1769,1840
1965,1742,1808
2080,1776,1849
2045,1815,1875
2000,1778,1826
1904,1747,1815
2031,1778,1871
2054,1827,1904
2024,1783,1843
1964,1738,1803
2003,1775,1845
2062,1823,1872
2019,1804,1840
1975,1757,1808
2017,1788,1845
2061,1831,1878
2016,1795,1819
1990,1756,1804
2061,1799,1863
2119,1840,1891
2068,1794,1820
2032,1749,1786
2099,1803,1851
2158,1835,1889
2114,1807,1827
2063,1759,1782
2108,1783,1815
2176,1839,1872
2162,1823,1852
2117,1780,1819
2150,1807,1856
2192,1843,1877
2161,1818,1829
2118,1776,1793
2149,1808,1839
2182,1840,1857
2139,1810,1808
2110,1783,1787
2146,1809,1851
2192,1851,1875
2145,1817,1823
2095,1776,1786
2134,1816,1841
2166,1868,1882
2134,1842,1846
2081,1808,1810
2115,1842,1847
2150,1851,1870
2108,1818,1824
2063,1791,1801
2090,1831,1846
2141,1868,1885
2105,1847,1840
2054,1847,1809
2087,1984,1871
2128,1886,1883
2082,1744,1819
2029,1763,1798
2071,1869,1871
2119,1866,1907
2075,1821,1857
2000,1776,1809
2032,1856,1849
2096,1942,1898
2058,1856,1843
1991,1810,1808
2039,1904,1878
2107,1936,1936
2047,1867,1868
1974,1805,1808
2020,1823,1846
2098,1856,1923
2066,1892,1871
2000,1859,1798
2044,1872,1870
2128,1939,1945
2090,1912,1876
2005,1856,1815
2062,1898,1869
2129,1965,1936
2085,1926,1883
2007,1874,1822
2083,1919,1889
2153,1968,1937
2112,1921,1863
2032,1882,1824
2082,1919,1898
2150,1978,1950
2122,1952,1879
2037,1902,1823
2090,1938,1894
2155,1998,1955
2119,1953,1886
2043,1894,1819
2095,1950,1898
2175,2015,1968
2126,1975,1897
2055,1915,1840
2100,1959,1901
2197,2011,1970
2160,1979,1909
2085,1915,1833
2128,1962,1893
2195,2019,1953
2158,1990,1907
2085,1930,1840
2134,1962,1891
2201,2007,1951
2160,1985,1891
2096,1951,1829
2146,1978,1914
2211,2003,1969
2170,1976,1907
2111,1927,1858
2143,1965,1897
2203,2015,1953
2157,1984,1895
2100,1937,1846
2157,1979,1917
2215,2032,1967
2173,2001,1905
2105,1946,1855
2150,1978,1910
2208,2030,1959
2170,2000,1913
2103,1951,1854
2143,1985,1897
2207,2030,1954
2158,2000,1910
2106,1968,1866
2149,2000,1914
2208,2035,1968
2160,2000,1914
2096,1947,1858
2135,1991,1915
2205,2043,1971
2160,2019,1914
2102,1969,1868
2141,2000,1921
2203,2062,1983
2160,2029,1935
2098,1975,1876
2142,2000,1920
2200,2057,1973
2159,2025,1933
2105,1968,1872
2140,2005,1924
2192,2075,1973
2144,2027,1915
2085,1968,1858
2129,2007,1930
2197,2071,1991
2154,2029,1927
2077,1965,1874
2110,2005,1937
2192,2081,2000
2150,2027,1936
2079,1958,1861
2114,1998,1919
2187,2074,1986
2139,2045,1936
2068,1984,1872
2112,2024,1929
2189,2079,1985
2139,2045,1933
2058,1981,1863
2096,2015,1909
2171,2074,1983
2139,2043,1942
2047,1979,1863
2090,2009,1918
2163,2085,1997
2123,2045,1931
2047,1996,1865
2099,2023,1917
2179,2091,1979
2125,2038,1921
2031,1985,1872
2083,2013,1935
2170,2079,2011
2121,2037,1949
2032,1983,1871
2066,2015,1911
2147,2099,1980
2106,2055,1932
2031,1972,1858
2073,2058,1906
2149,2064,1984
2105,2016,1936
2009,1984,1856
2047,2047,1904
2141,2113,1994
2102,2093,1957
2025,1974,1872
2047,2007,1914
2133,2073,1985
2102,2117,1943
2018,2000,1875
2041,2067,1926
2125,2106,1998
2095,2026,1948
2014,1996,1872
2046,2029,1921
2113,2109,1996
2082,2041,1949
2007,1967,1886
2037,2000,1929
2112,2071,1998
2074,2061,1951
1997,1991,1889
2028,2023,1936
2099,2062,1994
2062,2026,1955
1994,2030,1901
2027,2033,1946
2105,2075,1999
2064,2115,1951
2000,1998,1901
2030,2042,1956
2096,2115,2010
2059,2079,1957
1983,2001,1895
2016,2021,1936
2095,2085,1994
2056,2066,1952
1981,2018,1898
2003,2051,1949
2089,2064,2013
2055,2039,1961
1983,1968,1888
2010,1984,1936
2080,2096,2010
2037,2031,1971
1969,1979,1906
2000,2009,1946
2064,2085,2006
2026,2065,1957
1965,1957,1899
2000,2032,1947
2071,2101,2015
2035,2107,1965
1950,2009,1886
1987,1980,1936
2079,2022,2023
2032,2036,1973
1949,1998,1894
1983,1998,1933
2061,2042,1994
2019,2039,1952
1950,1984,1893
1984,2000,1921
2060,2099,2000
2018,2070,1978
1938,1979,1899
1974,2047,1925
2060,2093,2009
2025,2038,1964
1938,1984,1904
1974,2006,1937
2047,2062,2003
2006,2067,1950
1923,2014,1874
1963,2012,1935
2060,2073,2018
2011,2030,1961
1931,1990,1879
1955,1993,1922
2038,2105,2019
2003,2042,1979
1916,1950,1902
1954,2043,1936
2037,2111,2001
1996,2046,1953
1905,1998,1889
1943,2011,1941
2032,2066,2013
2000,2066,1965
1913,1983,1885
1945,2007,1920
2032,2035,1983
2000,2042,1963
1920,1950,1904
1945,1991,1936
2014,2045,1994
1984,2017,1953
1910,1971,1892
1937,1995,1924
2014,2058,1993
1988,2073,1958
1920,1987,1885
1940,2021,1936
2019,2035,1999
1989,1990,1950
1927,1956,1887
1958,2000,1931
2022,2064,2007
1989,2034,1968
1920,1974,1902
1959,1996,1935
2034,2020,1991
1995,2000,1958
1930,1963,1903
1958,2013,1938
2018,2046,1997
1975,2005,1945
1906,1991,1886
1941,1991,1935
2027,2015,2007
2000,2039,1967
1917,1995,1895
1941,1945,1935
2011,2027,1989
1975,2014,1950
1909,1958,1893
1946,2001,1938
2017,2036,1996
1987,2065,1945
1905,1999,1882
1933,1997,1923
2018,2078,1999
1993,2032,1964
1905,1998,1885
1934,1987,1920
2020,2064,1987
1996,2019,1957
1909,1979,1887
1936,2010,1926
2014,2064,1998
1983,2063,1946
1906,1963,1876
1933,1991,1923
2022,2087,1998
1981,2029,1968
1905,1961,1889
1929,1997,1925
2011,2125,2002
1981,2020,1963
1897,1935,1881
1929,1982,1921
2020,2063,2001
1985,1970,1951
1895,1937,1875
1936,1973,1946
2022,2015,2014
1984,2013,1971
1891,1937,1878
1921,1875,1921
