1972,1961,1907
1991,1957,1918
1973,1945,1873
1922,1957,1872
1996,1968,1920
1940,1968,1932
1982,1947,1890
1934,1958,1883
1967,1962,1913
2003,1967,1915
1979,1956,1877
1945,1957,1884
1970,1967,1913
1965,1955,1921
1949,1949,1882
1950,1952,1872
1968,1958,1904
1969,1953,1925
1968,1946,1885
1891,1954,1878
1961,1951,1915
1920,1954,1920
1948,1946,1887
1936,1953,1878
1968,1963,1914
1967,1961,1922
1951,1946,1891
1945,1953,1885
1989,1953,1909
1971,1953,1910
1945,1949,1888
1943,1947,1890
1968,1954,1924
1977,1953,1922
1954,1939,1885
1929,1949,1884
1986,1959,1919
2006,1961,1935
1946,1946,1899
1903,1953,1885
1999,1961,1920
2003,1950,1923
1968,1939,1889
1920,1942,1887
1968,1959,1915
1973,1953,1936
1968,1942,1904
1955,1935,1899
2011,1950,1923
2009,1947,1926
1971,1936,1891
1943,1941,1893
2021,1973,1939
2009,1951,1930
1958,1919,1872
1968,1936,1873
1984,1947,1909
1943,1946,1924
1968,1934,1884
1984,1937,1877
1968,1944,1910
1986,1939,1921
1954,1931,1898
1959,1934,1892
1979,1942,1917
1937,1936,1921
1984,1935,1888
1949,1930,1882
1969,1934,1920
1981,1933,1924
1964,1920,1895
1970,1919,1889
1951,1923,1914
2015,1931,1918
1921,1921,1894
1934,1925,1892
1990,1936,1920
2000,1935,1923
1984,1924,1887
1927,1931,1883
1972,1938,1926
1934,1936,1926
1954,1923,1882
1919,1935,1882
1993,1939,1919
1974,1935,1935
1897,1934,1890
1933,1932,1882
1969,1940,1915
2009,1942,1923
1985,1927,1891
1949,1935,1889
1968,1936,1920
1973,1936,1920
1954,1925,1882
1943,1933,1889
1970,1946,1920
1974,1936,1922
1951,1932,1888
1956,1935,1879
1982,1936,1911
1980,1933,1923
1967,1921,1890
1946,1921,1878
1983,1931,1905
1940,1940,1920
1968,1921,1886
1962,1936,1885
1971,1943,1911
1973,1942,1921
1949,1930,1888
1919,1933,1878
1949,1941,1910
1899,1940,1920
1949,1941,1881
1961,1932,1876
1936,1937,1916
2028,1937,1927
1941,1930,1890
1943,1925,1873
1941,1936,1905
1963,1935,1916
1945,1931,1879
1913,1931,1883
1939,1927,1913
1968,1923,1915
1925,1915,1878
1951,1923,1872
1981,1941,1917
1967,1939,1915
1948,1925,1872
1905,1924,1878
1969,1935,1910
2031,1933,1910
1917,1931,1883
1941,1924,1870
1968,1930,1904
1968,1933,1919
1948,1922,1892
1948,1918,1879
1968,1927,1909
1973,1925,1920
1975,1914,1885
1948,1915,1879
1969,1930,1907
1971,1925,1911
1957,1927,1888
1936,1934,1887
1975,1927,1903
1958,1919,1903
1983,1909,1875
1972,1918,1870
1973,1923,1903
1965,1913,1908
1941,1901,1872
1930,1904,1868
1887,1919,1904
1968,1923,1916
1902,1906,1873
1927,1918,1878
1970,1923,1909
1979,1917,1911
1941,1904,1872
1938,1905,1865
1966,1921,1887
1966,1919,1914
1945,1910,1893
1936,1916,1874
1963,1921,1907
1968,1918,1917
1945,1911,1878
1939,1920,1872
1963,1927,1904
1965,1919,1919
1951,1916,1882
1942,1917,1870
1969,1925,1901
1975,1927,1908
1947,1919,1867
1937,1910,1861
1957,1921,1903
1958,1919,1913
1936,1914,1875
1941,1921,1872
1964,1936,1911
1968,1930,1923
1936,1907,1877
1920,1904,1857
1953,1917,1893
1959,1933,1903
1934,1924,1883
1927,1923,1874
1955,1929,1909
1961,1925,1919
1936,1917,1876
1927,1922,1861
1950,1936,1902
1954,1920,1909
1936,1917,1872
1933,1921,1862
1955,1919,1887
1963,1921,1893
1935,1911,1867
1930,1914,1869
1962,1921,1903
1959,1918,1903
1938,1920,1872
1935,1916,1858
1943,1916,1894
1951,1918,1904
1927,1907,1872
1925,1915,1866
1959,1923,1903
1961,1922,1904
1936,1910,1857
1933,1908,1856
1953,1920,1895
1958,1921,1906
1936,1908,1869
1927,1916,1859
1953,1925,1890
1959,1927,1902
1934,1916,1872
1930,1920,1857
1963,1931,1887
1954,1929,1898
1937,1923,1854
1936,1922,1853
1954,1932,1887
1958,1925,1893
1929,1917,1867
1923,1921,1845
1946,1932,1874
1951,1936,1897
1924,1921,1870
1923,1918,1864
1947,1929,1898
1963,1936,1909
1936,1917,1872
1929,1920,1849
1947,1931,1885
1950,1935,1905
1933,1925,1872
1925,1922,1856
1948,1931,1888
1959,1930,1902
1932,1917,1866
1921,1918,1855
1936,1930,1888
1938,1925,1895
1920,1920,1861
1919,1913,1854
1941,1920,1882
1941,1927,1901
1930,1914,1871
1920,1919,1858
1947,1927,1887
1949,1922,1904
1927,1919,1869
1922,1927,1863
1950,1929,1893
1950,1923,1894
1931,1917,1859
1932,1923,1856
1953,1931,1886
1955,1933,1903
1932,1925,1869
1926,1923,1855
1950,1931,1898
1951,1930,1905
1929,1922,1871
1927,1927,1863
1954,1936,1886
1951,1937,1899
1936,1927,1869
1935,1934,1858
1959,1945,1879
1959,1943,1903
1937,1934,1869
1927,1929,1851
1950,1936,1886
1958,1937,1904
1937,1935,1869
1933,1933,1847
1956,1941,1876
1950,1939,1898
1934,1931,1864
1936,1935,1853
1957,1938,1882
1963,1940,1895
1934,1931,1869
1934,1935,1857
1953,1934,1889
1954,1930,1899
1934,1926,1858
1935,1930,1857
1951,1936,1890
1955,1936,1903
1925,1923,1863
1921,1917,1857
1947,1933,1890
1953,1936,1904
1933,1923,1866
1927,1923,1854
1947,1935,1891
1951,1933,1901
1930,1922,1865
1920,1925,1853
1950,1930,1885
1954,1922,1898
1931,1915,1856
1921,1922,1847
1936,1935,1886
1948,1936,1904
1931,1929,1872
1926,1925,1856
1939,1933,1891
1947,1930,1904
1934,1921,1871
1927,1919,1857
1949,1919,1902
1955,1931,1917
1936,1949,1879
1926,1929,1861
1945,1904,1894
1955,1926,1911
1936,1885,1879
1936,1923,1866
1953,1935,1903
1959,1936,1906
1929,1922,1868
1917,1914,1854
1936,1878,1885
1950,1887,1891
1934,1908,1862
1930,1933,1857
1947,1936,1890
1947,1893,1901
1929,1951,1869
1925,1926,1858
1947,1935,1890
1951,1950,1914
1931,1927,1879
1930,1921,1858
1950,1934,1897
1958,1937,1915
1933,1911,1875
1923,1919,1869
1947,1923,1897
1952,1918,1895
1936,1936,1866
1923,1909,1861
1945,1915,1892
1955,1872,1906
1926,1930,1879
1925,1917,1872
1946,1926,1903
1953,1924,1901
1936,1917,1865
1926,1904,1865
1942,1909,1904
1949,1904,1915
1931,1909,1873
1919,1915,1858
1936,1917,1890
1950,1918,1904
1927,1915,1875
1927,1920,1862
1949,1904,1893
1954,1872,1903
1929,1904,1863
1924,1927,1855
1943,1955,1892
1948,1904,1903
1933,1894,1869
1927,1916,1856
1950,1927,1901
1943,1945,1920
1922,1902,1887
1923,1902,1866
1941,1937,1893
1951,1920,1919
1930,1903,1884
1924,1917,1871
1940,1951,1904
1955,1930,1906
1930,1950,1872
1915,1966,1863
1937,1932,1893
1945,1918,1904
1919,1895,1867
1910,1902,1853
1931,1914,1886
1940,1918,1903
1926,1886,1871
1923,1936,1869
1943,1934,1899
1942,1879,1904
1927,1917,1872
1930,1930,1872
1950,1920,1892
1952,1979,1903
1927,1929,1869
1921,1918,1861
1936,1953,1898
1951,1901,1905
1931,1951,1872
1921,1959,1858
1939,1919,1894
1954,1930,1910
1927,1891,1877
1927,1943,1863
1950,1962,1882
1946,1902,1904
1923,1907,1873
1911,1877,1855
1939,1958,1893
1951,1979,1915
1933,1926,1875
1920,1893,1851
1941,1936,1889
1953,1936,1909
1925,1914,1881
1911,1910,1869
1931,1904,1891
1941,1945,1904
1927,1911,1882
1915,1918,1870
1938,1909,1891
1938,1849,1899
1925,1908,1869
1921,1911,1863
1942,1920,1892
1952,1910,1905
1919,1903,1872
1910,1906,1859
1937,1914,1891
1943,1975,1897
1919,1906,1857
1909,1895,1842
1925,1874,1873
1936,1914,1893
1923,1925,1862
1909,1899,1841
1921,1863,1865
1915,1899,1870
1903,1908,1852
1907,1872,1856
1931,1901,1883
1935,1927,1886
1920,1901,1854
1907,1855,1844
1926,1878,1882
1935,1862,1895
1905,1883,1850
1898,1855,1839
1920,1876,1872
1935,1885,1881
1913,1913,1856
1906,1875,1846
1923,1886,1859
1927,1873,1872
1898,1883,1847
1889,1870,1839
1915,1866,1866
1923,1846,1872
1903,1885,1842
1895,1869,1840
1915,1883,1865
1926,1871,1879
1898,1837,1845
1890,1894,1834
1916,1889,1859
1918,1905,1872
1897,1826,1841
1872,1815,1825
1904,1876,1863
1925,1875,1887
1906,1857,1855
1889,1870,1837
1914,1881,1861
1919,1860,1875
1895,1849,1845
1885,1840,1837
1905,1842,1863
1919,1872,1877
1902,1911,1845
1892,1855,1840
1904,1889,1871
1915,1861,1875
1902,1840,1853
1898,1791,1835
1915,1874,1872
1925,1862,1905
1902,1862,1869
1888,1865,1833
1903,1873,1855
1918,1879,1887
1903,1871,1862
1893,1872,1847
1910,1877,1872
1916,1879,1878
1894,1861,1841
1885,1867,1839
1913,1874,1872
1916,1872,1889
1888,1857,1853
1881,1856,1840
1910,1869,1874
1925,1869,1892
1888,1873,1855
1878,1868,1837
1902,1875,1874
1909,1873,1895
1889,1861,1856
1886,1868,1839
1909,1877,1872
1915,1883,1887
1889,1885,1856
1893,1872,1847
1914,1873,1872
1926,1872,1877
1897,1862,1858
1888,1868,1845
1913,1879,1872
1923,1872,1886
1900,1872,1853
1881,1885,1835
1910,1903,1872
1923,1901,1900
1905,1879,1872
1877,1875,1840
1903,1889,1858
1919,1898,1885
1903,1879,1858
1883,1879,1847
1904,1892,1871
1907,1891,1881
1889,1879,1853
1890,1885,1847
1914,1888,1885
1923,1887,1889
1896,1886,1847
1881,1883,1840
1915,1903,1890
1923,1901,1904
1901,1881,1863
1883,1886,1846
1895,1897,1889
1905,1893,1904
1898,1886,1868
1877,1886,1853
1894,1903,1879
1910,1902,1903
1900,1890,1874
1894,1894,1863
1905,1893,1871
1895,1872,1859
1882,1893,1855
1905,1918,1886
1926,1927,1911
1935,1920,1910
1911,1903,1860
1899,1904,1851
1911,1914,1885
1919,1914,1903
1904,1904,1873
1903,1899,1854
1922,1904,1873
1930,1904,1885
1904,1891,1846
1900,1899,1855
1921,1910,1898
1921,1907,1898
1875,1889,1840
1854,1883,1820
1919,1917,1902
1946,1917,1930
1911,1890,1881
1867,1872,1828
1881,1890,1847
1919,1901,1890
1909,1889,1869
1892,1878,1853
1889,1882,1862
1897,1883,1882
1896,1890,1875
1902,1887,1865
1909,1889,1887
1913,1878,1882
1895,1872,1843
1883,1872,1839
1898,1878,1874
1904,1873,1875
1872,1873,1846
1874,1872,1843
1907,1889,1883
1903,1874,1885
1873,1856,1851
1872,1863,1845
1905,1872,1872
1913,1874,1898
1879,1861,1859
1867,1856,1831
1879,1861,1856
1886,1862,1879
1873,1850,1857
1872,1823,1842
1873,1856,1857
1891,1861,1874
1894,1856,1872
1885,1852,1852
1902,1856,1867
1902,1856,1870
1862,1839,1829
1885,1843,1833
1905,1850,1870
1903,1855,1887
1872,1829,1835
1865,1840,1822
1898,1854,1872
1904,1844,1887
1872,1843,1851
1866,1850,1840
1891,1846,1856
1899,1840,1869
1865,1841,1829
1858,1840,1826
1889,1850,1854
1897,1828,1859
1870,1808,1819
1850,1813,1807
1868,1856,1831
1898,1847,1859
1878,1773,1839
1865,1777,1808
1873,1843,1840
1899,1853,1863
1882,1824,1829
1865,1813,1808
1883,1827,1840
1889,1820,1865
1867,1811,1823
1852,1813,1808
1873,1829,1851
1879,1837,1851
1862,1803,1806
1845,1808,1806
1873,1829,1855
1899,1844,1865
1881,1817,1834
1854,1813,1817
1870,1827,1831
1877,1831,1825
1867,1827,1822
1844,1830,1835
1870,1840,1862
1888,1856,1871
1861,1846,1822
1854,1805,1821
1870,1833,1814
1871,1837,1851
1851,1779,1769
1835,1809,1825
1855,1899,1846
1872,1872,1793
1839,1801,1813
1823,1793,1762
1847,1829,1794
1857,1843,1856
1839,1836,1823
1826,1856,1794
1844,1834,1798
1842,1835,1823
1813,1884,1803
1805,1871,1794
1817,1841,1767
1828,1836,1807
1801,1833,1786
1792,1842,1766
1808,1861,1794
1819,1867,1813
1801,1868,1781
1791,1875,1780
1808,1894,1776
1827,1910,1823
1801,1935,1779
1791,1939,1809
1818,1962,1803
1836,1970,1815
1811,2020,1798
1795,1982,1764
1814,1944,1813
1837,1968,1803
1811,1986,1789
1808,2007,1744
1838,2034,1802
1847,2059,1829
1825,2058,1798
1826,2064,1776
1857,2092,1815
1870,2128,1833
1840,2112,1789
1839,2101,1744
1860,2126,1785
1876,2128,1846
1858,2127,1856
1842,2124,1795
1883,2144,1792
1904,2147,1797
1888,2137,1802
1871,2131,1808
1889,2128,1827
1899,2128,1872
1882,2125,1849
1879,2117,1827
1905,2128,1860
1921,2129,1857
1903,2119,1805
1904,2124,1798
1917,2126,1822
1926,2121,1857
1904,2112,1795
1902,2126,1848
1942,2145,1833
1948,2143,1895
1938,2107,1862
1926,2078,1840
1934,2096,1837
1926,2101,1853
1925,2112,1859
1959,2117,1867
1982,2103,1882
1947,2099,1903
1914,2094,1825
1933,2102,1839
1954,2112,1851
1945,2099,1877
1922,2064,1825
1925,2066,1813
1952,2074,1846
1967,2079,1912
1936,2064,1891
1923,2063,1829
1950,2067,1882
1950,2071,1918
1937,2060,1887
1932,2069,1831
1949,2064,1854
1959,2055,1895
1935,2047,1856
1935,2055,1855
1959,2065,1936
1982,2074,1886
1943,2064,1879
1921,2023,1840
1947,2042,1851
1964,2045,1803
1941,2027,1866
1938,2033,1863
1959,2052,1903
1968,2042,1903
1951,2023,1879
1949,2033,1872
1968,2059,1907
1982,2047,1923
1958,2042,1879
1947,2033,1868
1968,2043,1904
1982,2042,1927
1967,2034,1893
1947,2013,1879
1979,2026,1921
1985,2028,1914
1968,2016,1952
1962,2011,1859
1981,2023,1933
1999,2027,1934
1978,2025,1888
1968,2016,1904
1985,1998,1951
2000,2000,2002
1968,1977,1959
1954,1980,1863
1991,2000,1902
2003,2002,1952
1988,1998,1942
1978,1989,1888
1997,2000,1942
2014,1997,1941
1994,1982,1936
1973,1987,1898
2000,1992,1984
2018,1995,1932
1984,1978,1922
1979,1984,1831
2010,2023,1945
2027,1979,1982
2000,1956,1893
1995,1970,1917
2014,1975,1933
2021,1982,1950
2000,1968,1921
1985,1963,1900
2008,1968,1970
2019,1981,1937
1999,1984,1923
1989,1987,1923
1999,1970,1929
2007,1969,1936
1991,1959,1915
1979,1967,1936
2005,1974,1980
2027,1981,1968
1997,1971,1919
1984,1974,1869
2000,1968,1936
2020,1969,1959
2000,1954,1936
1984,1936,1927
2003,1969,1917
2019,1980,1936
2000,1958,1931
1984,1958,1935
1994,1955,1950
2017,1955,1957
1998,1953,1946
1983,1956,1904
2015,1968,1954
2031,1968,1955
2000,1950,1926
1986,1942,1909
2007,1970,1940
2032,1985,1968
1998,1962,1933
1981,1932,1907
2003,1950,1936
2021,1968,1963
2002,1965,1932
1969,1936,1898
1997,1941,1918
2009,1959,1953
2009,1965,1921
1983,1941,1900
2000,1953,1946
1998,1953,1955
1983,1950,1917
1969,1947,1898
1994,1951,1928
2013,1963,1949
1984,1957,1915
1974,1949,1894
2001,1967,1931
2016,1954,1946
1985,1936,1914
1975,1941,1901
1997,1947,1936
2005,1953,1953
1985,1943,1919
1972,1946,1899
1998,1959,1933
2010,1936,1957
1957,1929,1926
1970,1926,1901
1968,1955,1933
1963,1956,1947
2011,1930,1918
1950,1922,1897
1986,1939,1933
2000,1950,1948
1981,1948,1927
1964,1925,1891
1950,1931,1919
2027,1937,1935
1943,1936,1915
1963,1925,1887
1987,1939,1913
2014,1920,1929
1986,1909,1906
1968,1921,1886
2001,1929,1911
1985,1932,1939
1966,1934,1909
1961,1906,1878
1973,1917,1910
1990,1921,1935
1970,1906,1904
1961,1917,1885
1967,1926,1910
2015,1921,1936
1969,1910,1904
1931,1905,1889
1979,1919,1920
1984,1919,1937
1929,1904,1898
1948,1904,1876
1982,1918,1911
1969,1920,1929
1968,1923,1904
1961,1903,1885
1985,1899,1903
2000,1904,1938
1971,1904,1902
1957,1901,1877
2005,1905,1906
1966,1922,1921
1968,1923,1904
1936,1904,1875
1979,1904,1895
1955,1906,1923
1936,1906,1893
1922,1906,1862
1971,1918,1894
1982,1904,1925
1955,1899,1889
1955,1913,1871
1969,1918,1907
1983,1903,1927
1961,1891,1895
1949,1894,1872
1958,1915,1902
1975,1920,1921
1949,1906,1889
1914,1890,1861
1994,1901,1891
1972,1908,1911
1920,1904,1875
1936,1910,1866
1966,1923,1899
1976,1909,1911
1950,1899,1872
1973,1905,1867
1942,1917,1906
1967,1925,1922
1921,1927,1894
1970,1889,1867
1975,1893,1900
1983,1905,1922
1939,1900,1893
1921,1903,1870
1949,1922,1901
1943,1925,1918
1940,1914,1890
1959,1904,1861
1971,1910,1890
1974,1909,1914
1969,1905,1893
1930,1911,1872
1967,1926,1893
1955,1924,1910
1983,1904,1877
1936,1905,1855
1923,1904,1887
1966,1906,1917
1941,1911,1886
1926,1915,1861
1979,1918,1882
1968,1914,1909
1894,1902,1885
1935,1915,1859
2036,1915,1891
1962,1905,1910
1941,1903,1882
1936,1904,1857
1957,1909,1890
1963,1919,1914
1942,1925,1881
1935,1915,1867
1949,1905,1890
1968,1910,1907
1941,1907,1879
1926,1904,1862
1953,1910,1891
1955,1909,1904
1917,1901,1872
1904,1903,1856
1967,1920,1886
1953,1921,1904
1977,1899,1874
1924,1892,1857
1921,1917,1877
1991,1935,1904
1968,1906,1881
1863,1895,1857
1983,1909,1886
1958,1919,1905
1917,1919,1877
1940,1904,1858
1934,1914,1881
1984,1903,1904
1939,1902,1878
1933,1904,1855
2015,1936,1884
2000,1916,1895
1930,1888,1869
1910,1897,1855
1988,1915,1888
1981,1915,1904
1929,1904,1881
1909,1900,1861
1947,1914,1885
1955,1912,1904
1951,1906,1869
1891,1904,1849
1939,1914,1875
1939,1913,1897
1920,1899,1867
1919,1906,1847
1939,1909,1877
1953,1917,1901
1943,1905,1871
1912,1909,1840
1984,1905,1878
1957,1901,1903
1890,1893,1873
1917,1899,1859
1947,1907,1883
1923,1909,1902
1922,1894,1872
1923,1885,1851
1995,1911,1884
2028,1907,1906
1921,1887,1872
1909,1888,1856
1936,1903,1882
1951,1904,1899
1951,1902,1855
1895,1911,1854
1933,1922,1883
1939,1892,1901
1923,1874,1867
1905,1888,1850
1932,1905,1885
1950,1907,1902
1925,1891,1872
1911,1891,1847
1933,1910,1875
1942,1904,1904
1921,1903,1870
1904,1898,1844
1930,1910,1884
1941,1907,1904
1915,1901,1875
1904,1899,1847
1922,1914,1872
1939,1909,1888
1921,1901,1869
1898,1885,1851
1915,1923,1878
1929,1904,1901
1906,1895,1870
1899,1899,1849
1921,1907,1869
1935,1917,1897
1915,1911,1879
1894,1904,1851
1915,1911,1872
1935,1905,1904
1905,1903,1872
1899,1904,1847
1917,1908,1872
1934,1907,1894
1911,1907,1872
1898,1900,1843
1919,1901,1872
1935,1906,1895
1915,1905,1869
1904,1902,1840
1919,1917,1873
1931,1918,1902
1904,1907,1872
1894,1903,1841
1921,1918,1874
1939,1912,1897
1918,1893,1869
1897,1904,1849
1919,1918,1872
1938,1918,1902
1927,1931,1870
1904,1902,1853
1930,1891,1872
1942,1898,1904
1922,1891,1872
1901,1899,1846
1924,1906,1876
1929,1911,1903
1916,1895,1868
1904,1899,1851
1921,1904,1872
1936,1909,1895
1921,1902,1863
1904,1905,1845
1920,1911,1874
1936,1911,1903
1921,1903,1870
1905,1899,1845
1925,1907,1872
1942,1906,1891
1921,1902,1865
1904,1902,1851
1929,1918,1879
1945,1919,1904
1923,1907,1873
1905,1897,1854
1932,1907,1879
1943,1911,1902
1919,1904,1871
1904,1905,1846
1931,1918,1871
1949,1924,1898
1923,1909,1868
1905,1906,1840
1931,1916,1872
1950,1917,1898
1922,1904,1872
1904,1902,1845
1925,1913,1872
1943,1919,1907
1917,1902,1865
1913,1900,1841
1933,1917,1877
1947,1936,1904
1919,1887,1869
1904,1876,1839
1934,1897,1863
1941,1906,1894
1922,1894,1854
1907,1890,1838
1923,1904,1874
1936,1909,1901
1916,1906,1865
1903,1904,1843
1929,1918,1877
1939,1921,1892
1915,1911,1868
1903,1920,1842
1925,1953,1875
1943,1918,1903
1923,1890,1863
1905,1892,1839
1933,1916,1870
1951,1919,1891
1923,1913,1872
1904,1911,1851
1922,1923,1872
1942,1924,1903
1926,1918,1874
1901,1911,1846
1931,1922,1873
1951,1922,1898
1930,1916,1871
1909,1907,1844
1935,1933,1868
1947,1935,1904
1927,1922,1883
1918,1907,1856
1936,1922,1883
1949,1936,1904
1922,1922,1875
1906,1901,1849
1936,1925,1872
1957,1926,1901
1939,1917,1877
1925,1918,1851
1941,1933,1872
1951,1938,1903
1929,1938,1879
1904,1907,1856
1934,1920,1879
1940,1931,1899
1926,1922,1871
1909,1920,1850
1927,1931,1883
1943,1935,1908
1921,1920,1871
1906,1917,1845
1926,1920,1878
1943,1930,1904
1923,1930,1874
1906,1918,1843
1923,1934,1877
1946,1935,1901
1920,1913,1870
1902,1914,1853
1921,1921,1883
1946,1923,1906
1920,1917,1877
1905,1928,1858
1927,1933,1887
1938,1904,1899
1920,1910,1867
1904,1969,1857
1921,1963,1887
1942,1910,1904
1924,1883,1875
1902,1907,1855
1923,1965,1877
1938,1925,1904
1921,1886,1879
1898,1888,1859
1927,1918,1879
1945,1924,1904
1925,1899,1876
1904,1899,1851
1920,1921,1879
1936,1892,1907
1911,1888,1885
1904,1873,1861
1929,1935,1881
1940,1936,1906
1921,1901,1875
1904,1939,1855
1921,1918,1881
1935,1913,1899
1917,1908,1871
1898,1903,1851
1915,1911,1883
1935,1921,1903
1910,1915,1882
1892,1915,1856
1919,1968,1881
1938,1945,1898
1918,1936,1872
1898,1899,1856
1922,1905,1877
1942,1915,1905
1914,1917,1881
1891,1935,1845
1920,1936,1880
1938,1971,1904
1917,1918,1883
1894,1903,1868
1917,1921,1889
1937,1919,1905
1922,1910,1888
1904,1872,1863
1914,1901,1885
1947,1922,1909
1918,1945,1887
1903,1907,1867
1930,1929,1889
1947,1929,1911
1923,1915,1878
1901,1929,1855
1926,1915,1888
1940,1915,1907
1914,1938,1874
1900,1917,1854
1920,1891,1886
1931,1901,1909
1916,1929,1883
1893,1887,1859
1920,1950,1891
1941,1957,1915
1919,1892,1886
1904,1922,1859
1921,1943,1878
1938,1958,1915
1927,1919,1887
1907,1934,1869
1932,1952,1897
1943,1923,1919
1920,1878,1894
1904,1919,1863
1927,1921,1894
1936,1962,1919
1921,1894,1886
1904,1913,1855
1920,1904,1891
1938,1938,1915
1920,1904,1882
1905,1906,1856
1933,1917,1890
1943,1904,1920
1915,1950,1897
1901,1945,1863
1920,1907,1889
1936,1936,1910
1920,1937,1882
1904,1889,1856
1923,1936,1883
1942,1927,1911
1922,1897,1885
1907,1879,1859
1931,1888,1882
1949,1924,1904
1926,1901,1883
1901,1882,1857
1921,1967,1877
1937,1931,1906
1918,1923,1882
1901,1852,1859
1926,1931,1890
1946,1921,1909
1925,1908,1884
1904,1923,1867
1925,1923,1898
1943,1927,1920
1927,1921,1890
1909,1910,1856
1931,1926,1878
1947,1920,1915
1926,1904,1891
1904,1920,1855
1936,1882,1881
1952,1936,1914
1930,1936,1882
1910,1886,1854
1933,1973,1887
1952,1970,1916
1929,1938,1883
1904,1935,1857
1926,1973,1889
1939,1923,1910
1919,1892,1879
1905,1886,1855
1931,1927,1882
1950,1936,1906
1929,1951,1881
1910,1915,1852
1934,1887,1887
1949,1914,1905
1920,1893,1881
1904,1889,1856
1927,1902,1877
1942,1926,1904
1925,1920,1882
1904,1906,1849
1926,1919,1872
1944,1921,1904
1928,1930,1865
1904,1874,1841
1921,1912,1885
1942,1957,1919
1923,1907,1887
1908,1895,1858
1931,1926,1890
1936,1923,1914
1920,1911,1889
1901,1905,1866
1922,1921,1889
1949,1969,1911
1923,1904,1886
1910,1914,1854
1934,1899,1879
1949,1954,1902
1931,1891,1868
1904,1904,1843
1930,1935,1886
1941,1926,1908
1919,1883,1887
1904,1908,1859
1925,1952,1882
1946,1949,1904
1919,1911,1888
1901,1843,1857
1923,1809,1875
1937,1967,1899
1915,1936,1877
1901,1918,1853
1916,1920,1882
1938,1931,1906
1922,1908,1872
1905,1904,1855
1920,1922,1887
1938,1925,1905
1920,1918,1873
1904,1911,1849
1926,1920,1878
1939,1925,1902
1920,1920,1872
1902,1915,1855
1923,1924,1881
1943,1921,1910
1926,1919,1879
1909,1913,1845
1936,1921,1871
1949,1925,1903
1922,1920,1874
1902,1911,1843
1922,1923,1862
1941,1926,1901
1922,1907,1875
1905,1901,1851
1927,1917,1883
1965,1919,1913
1931,1915,1890
1914,1904,1865
1936,1914,1890
1953,1917,1918
1936,1906,1895
1918,1904,1866
1940,1921,1895
1958,1929,1925
1936,1926,1891
1914,1920,1872
1933,1936,1905
1957,1936,1927
1936,1923,1894
1919,1915,1866
1935,1921,1894
1958,1921,1919
1935,1911,1887
1915,1906,1867
1929,1920,1883
1942,1921,1915
1925,1908,1890
1905,1904,1863
1923,1910,1888
1950,1918,1911
1930,1910,1888
1910,1904,1865
1933,1910,1887
1951,1920,1912
1941,1921,1898
1914,1909,1861
1925,1919,1875
1945,1921,1904
1931,1914,1878
1927,1924,1862
1965,1951,1911
1939,1910,1893
1915,1904,1865
1909,1905,1854
1945,1932,1893
1943,1908,1901
1920,1897,1875
1904,1889,1855
1931,1904,1875
1950,1906,1903
1933,1909,1885
1911,1908,1861
1936,1920,1891
1953,1924,1906
1936,1915,1882
1922,1905,1851
1936,1917,1881
1961,1920,1910
1940,1907,1885
1921,1899,1850
1943,1922,1874
1962,1923,1903
1936,1917,1875
1919,1906,1848
1936,1921,1878
1961,1921,1909
1946,1910,1878
1925,1904,1855
1942,1906,1885
1954,1911,1905
1936,1904,1883
1919,1907,1857
1936,1922,1882
1959,1931,1911
1944,1925,1889
1916,1913,1847
1936,1917,1875
1953,1919,1904
1936,1918,1883
1930,1919,1862
1950,1925,1877
1947,1916,1899
1925,1904,1874
1911,1905,1855
1936,1918,1882
1958,1933,1904
1920,1911,1871
1905,1904,1846
1935,1918,1872
1954,1924,1904
1934,1913,1883
1917,1910,1851
1926,1921,1876
1945,1918,1893
1930,1903,1872
1903,1904,1845
1931,1914,1869
1951,1917,1894
1936,1910,1879
1911,1906,1854
1931,1919,1874
1954,1923,1896
1936,1907,1873
1914,1897,1853
1935,1904,1875
1954,1918,1905
1936,1909,1886
1920,1906,1856
1936,1911,1874
1952,1917,1890
1934,1915,1872
1920,1911,1856
1936,1919,1883
1951,1925,1906
1927,1918,1877
1916,1915,1858
1935,1921,1886
1946,1921,1904
1920,1908,1875
1904,1907,1847
1929,1919,1875
1947,1917,1905
1923,1905,1884
1903,1904,1855
1922,1908,1875
1946,1919,1905
1927,1921,1877
1917,1927,1856
1919,1917,1872
1936,1920,1890
1924,1909,1872
1906,1914,1851
1933,1919,1879
1950,1920,1904
1936,1907,1886
1915,1904,1855
1933,1915,1870
1954,1915,1906
1936,1914,1883
1918,1906,1854
1931,1913,1874
1939,1919,1895
1925,1903,1880
1904,1903,1862
1923,1914,1901
1943,1917,1926
1936,1905,1840
1911,1901,1850
1927,1909,1840
1946,1918,1861
1933,1910,1877
1904,1907,1856
1936,1920,1868
1946,1922,1927
1927,1913,1923
1909,1905,1853
1923,1914,1870
1943,1922,1885
1925,1911,1904
1910,1903,1863
1925,1915,1875
1952,1919,1941
1930,1909,1903
1920,1920,1840
1920,1920,1886
1930,1901,1885
1922,1900,1890
1902,1905,1856
1922,1920,1885
1939,1921,1917
1919,1919,1885
1895,1910,1844
1919,1917,1858
1937,1918,1906
1924,1905,1872
1901,1903,1853
1927,1918,1856
1942,1921,1910
1929,1910,1879
1908,1909,1857
1921,1914,1908
1943,1923,1913
1931,1905,1879
1907,1901,1855
1925,1910,1877
1939,1908,1904
1924,1904,1919
1904,1895,1846
1922,1910,1872
1948,1919,1874
1927,1901,1864
1904,1903,1823
1925,1920,1879
1940,1920,1908
1935,1908,1841
1909,1903,1867
1926,1914,1888
1947,1920,1845
1926,1910,1866
1915,1903,1825
1923,1909,1839
1940,1920,1901
1920,1911,1863
1911,1906,1819
1937,1914,1862
1953,1922,1872
1931,1909,1861
1904,1904,1844
1929,1911,1855
1939,1915,1887
1923,1920,1904
1907,1907,1855
1925,1918,1878
1949,1922,1934
1934,1915,1894
1918,1904,1841
1925,1915,1875
1938,1920,1899
1923,1905,1859
1903,1907,1851
1921,1904,1872
