2002,1961,1914
1974,1968,1892
1938,1937,1872
1983,1917,1904
1969,1958,1910
1968,1975,1891
1967,1935,1885
1959,1910,1913
2005,1939,1923
2007,1959,1894
1916,1935,1881
1944,1929,1903
1921,1947,1911
1977,1966,1894
1987,1951,1889
1923,1929,1917
1974,1949,1914
1948,1949,1891
1966,1930,1881
1956,1923,1911
1979,1947,1918
1959,1959,1891
1984,1935,1883
1983,1936,1909
1962,1966,1911
1968,1963,1887
1933,1936,1880
1979,1950,1913
2010,1967,1925
1949,1957,1889
1904,1935,1866
1956,1933,1897
1951,1959,1915
1989,1968,1891
1937,1935,1881
1893,1933,1906
1970,1967,1914
1974,1967,1878
1940,1922,1872
1915,1910,1913
1929,1938,1923
1975,1950,1890
1935,1945,1872
1946,1941,1904
1984,1958,1920
2000,1978,1902
1966,1941,1878
1956,1936,1904
1986,1967,1923
1982,1974,1893
1943,1951,1873
1964,1935,1911
1958,1953,1923
2005,1962,1889
1994,1933,1872
1969,1918,1903
1967,1947,1917
2032,1939,1895
1867,1933,1873
1974,1929,1895
1966,1937,1919
1977,1953,1893
1979,1937,1887
1979,1929,1909
1979,1941,1915
2031,1961,1887
1989,1953,1893
2003,1925,1915
1998,1959,1927
2035,1946,1895
1963,1909,1872
1968,1910,1900
1955,1956,1918
1962,1959,1904
1951,1927,1889
1938,1933,1915
1981,1947,1921
1968,1957,1889
1965,1941,1873
1968,1937,1910
2015,1958,1934
1968,1958,1905
1949,1947,1879
1939,1936,1889
1933,1943,1901
1970,1942,1897
1961,1937,1893
1966,1958,1919
1986,1952,1921
1982,1957,1891
1950,1934,1887
1959,1930,1917
1988,1957,1936
2033,1967,1909
1994,1941,1885
1968,1931,1909
1983,1968,1927
1987,1967,1897
1942,1929,1874
2017,1904,1900
1982,1943,1909
2031,1953,1887
1994,1937,1875
1963,1927,1911
1986,1966,1919
1998,1968,1899
1957,1953,1879
1955,1925,1904
1879,1939,1914
1987,1950,1888
1967,1947,1877
1977,1954,1915
1980,1968,1927
2001,1965,1903
1949,1921,1871
1955,1920,1900
1989,1955,1921
1995,1959,1899
1968,1948,1890
1963,1949,1909
1985,1951,1917
1993,1968,1901
1965,1952,1892
1946,1946,1904
1994,1959,1922
1989,1973,1904
1959,1945,1882
1967,1952,1914
1993,1967,1926
1994,1943,1891
1961,1929,1875
1964,1935,1904
1987,1954,1917
1997,1965,1886
1959,1935,1872
1961,1926,1898
1999,1945,1910
2003,1949,1894
1969,1931,1877
1964,1926,1903
1984,1956,1905
1991,1943,1884
1957,1923,1870
1950,1925,1904
1991,1946,1919
1987,1964,1901
1942,1923,1872
1949,1904,1904
1991,1936,1920
2000,1969,1894
1961,1941,1875
1949,1921,1904
1982,1936,1919
1999,1963,1906
1967,1941,1893
1964,1934,1910
1991,1959,1925
1984,1955,1899
1959,1935,1879
1951,1930,1910
1978,1943,1919
1987,1961,1902
1966,1927,1886
1952,1910,1905
1990,1954,1918
1990,1966,1904
1967,1936,1893
1959,1935,1925
1982,1968,1937
1990,1950,1905
1943,1911,1876
1941,1919,1906
1978,1941,1927
1994,1954,1906
1953,1936,1888
1953,1936,1913
1996,1955,1939
2001,1951,1911
1965,1909,1885
1957,1919,1906
1982,1948,1921
1983,1947,1898
1954,1917,1878
1940,1910,1909
1984,1937,1937
1983,1954,1904
1955,1927,1895
1957,1924,1920
1983,1933,1933
1982,1955,1897
1947,1965,1878
1946,1929,1910
1975,1930,1918
1981,1936,1898
1947,1920,1878
1941,1917,1904
1984,1953,1936
1998,1967,1919
1961,1933,1901
1938,1904,1906
1970,1936,1915
1983,1953,1904
1950,1931,1890
1943,1923,1905
1979,1936,1932
1975,1943,1904
1936,1938,1873
1949,1925,1914
1986,1958,1935
1984,1957,1906
1943,1936,1885
1941,1938,1905
1974,1975,1933
1975,1955,1902
1936,1911,1874
1933,1907,1903
1968,1937,1921
1973,1967,1891
1968,1934,1878
1943,1915,1898
1969,1941,1927
1984,1969,1904
1946,1926,1885
1943,1926,1905
1983,1949,1926
1981,1941,1894
1951,1937,1878
1946,1943,1907
1970,1936,1920
1983,1952,1898
1951,1929,1883
1942,1922,1903
1985,1953,1926
1984,1953,1906
1948,1933,1886
1940,1925,1904
1968,1952,1911
1975,1943,1879
1955,1919,1863
1948,1914,1905
1978,1938,1919
1983,1950,1891
1941,1920,1871
1939,1927,1899
1978,1955,1917
1986,1952,1887
1949,1909,1872
1937,1919,1899
1969,1963,1911
1974,1936,1883
1946,1910,1872
1939,1910,1904
1975,1955,1927
1995,1968,1906
1957,1938,1879
1942,1907,1903
1968,1936,1913
1983,1951,1894
1952,1931,1887
1943,1924,1910
1972,1941,1918
1972,1953,1889
1941,1921,1874
1937,1935,1905
1971,1954,1921
1985,1961,1904
1949,1923,1872
1933,1918,1901
1966,1957,1923
1978,1947,1901
1946,1915,1873
1938,1907,1904
1969,1939,1920
1977,1962,1901
1951,1926,1886
1936,1917,1906
1968,1935,1926
1982,1946,1904
1951,1920,1882
1938,1934,1903
1961,1937,1911
1978,1929,1889
1968,1936,1891
1961,1906,1919
1979,1943,1927
1993,1971,1905
1959,1924,1889
1957,1941,1913
1983,1885,1924
1983,1959,1900
1959,1920,1888
1952,1984,1909
1984,1915,1919
1988,1995,1895
1951,1935,1865
1945,1873,1895
1986,1958,1927
1991,1939,1906
1961,1908,1888
1956,1959,1906
1984,1951,1921
1998,1941,1900
1964,1959,1877
1939,1919,1904
1975,1936,1926
1986,1970,1897
1956,1954,1878
1941,1915,1902
1973,1945,1920
1999,2002,1904
1968,1915,1876
1952,1887,1904
1979,1968,1917
1986,1950,1895
1963,1893,1878
1947,1909,1905
1978,1970,1921
1978,1956,1897
1938,1926,1872
1941,1888,1897
1989,1949,1923
1999,1979,1899
1961,1972,1872
1952,1920,1900
1977,1983,1910
1987,1959,1899
1971,1919,1889
1951,1919,1904
1973,1930,1920
1987,1929,1899
1955,1938,1875
1940,1932,1903
1975,1963,1923
1998,1961,1904
1966,1936,1883
1949,1920,1904
1981,1973,1917
1986,1976,1887
1957,1948,1877
1949,1911,1899
1977,1961,1918
1985,1941,1895
1950,1967,1872
1936,1934,1884
1967,1932,1901
1981,1977,1889
1962,1962,1886
1954,1903,1905
1975,1895,1913
1987,1936,1889
1955,1952,1872
1949,1890,1894
1986,1946,1918
1987,1962,1899
1952,1940,1871
1938,1894,1881
1974,1924,1913
1991,1963,1890
1947,1934,1865
1936,1906,1894
1987,1927,1925
2003,1959,1900
1951,1899,1870
1933,1915,1886
1968,1897,1906
1991,1974,1897
1954,1903,1878
1940,1936,1891
1963,1965,1911
1982,1970,1901
1953,1901,1875
1941,1862,1895
1965,1910,1911
1984,1893,1891
1959,1950,1878
1947,1919,1905
1969,1941,1922
1975,1961,1893
1924,1958,1865
1929,1958,1897
1959,1904,1909
1977,1943,1895
1952,1921,1883
1938,1935,1917
1970,1954,1934
1986,1971,1904
1949,1894,1881
1939,1903,1903
1971,2031,1920
1984,1970,1902
1954,1952,1882
1945,1903,1907
1963,1936,1921
1970,1959,1898
1938,1921,1866
1937,1921,1898
1961,1951,1919
1975,1946,1883
1943,1932,1872
1943,1907,1900
1968,1931,1915
1988,1986,1899
1952,1926,1879
1935,1910,1895
1959,1943,1913
1978,1956,1895
1947,1968,1861
1923,1887,1877
1954,1914,1902
1981,1967,1904
1958,1951,1887
1936,1974,1895
1963,1904,1906
1970,1953,1894
1942,1915,1869
1933,1936,1889
1959,1986,1905
1971,1957,1879
1939,1966,1861
1934,1904,1895
1966,1929,1922
1975,2021,1893
1938,1936,1872
1932,1917,1895
1961,1941,1906
1971,1968,1901
1940,1936,1870
1931,1920,1887
1961,1937,1905
1979,2001,1904
1938,1931,1867
1938,1902,1892
1965,1963,1915
1971,1974,1887
1939,1938,1871
1937,1957,1897
1951,1957,1907
1968,1953,1889
1963,1936,1883
1936,1914,1889
1950,1935,1898
1966,1940,1884
1943,1932,1875
1931,1911,1894
1945,1917,1904
1953,1945,1879
1937,1914,1873
1936,1963,1905
1968,1973,1934
1963,1947,1884
1927,1970,1855
1937,1982,1905
1971,1953,1933
1971,2006,1904
1934,1932,1872
1915,1877,1887
1952,1923,1915
1963,1857,1903
1934,1920,1882
1919,1972,1894
1936,1943,1906
1960,1939,1893
1952,1924,1897
1936,1904,1918
1950,1930,1922
1952,1936,1879
1923,1904,1858
1923,1923,1901
1955,1938,1926
1966,1943,1889
1920,1919,1851
1903,1902,1867
1931,1931,1901
1961,1939,1893
1931,1911,1867
1915,1877,1873
1937,1914,1901
1964,1945,1894
1943,1943,1886
1919,1920,1894
1942,1904,1905
1957,1920,1882
1921,1904,1855
1913,1903,1878
1947,1936,1910
1968,1941,1895
1922,1925,1866
1904,1914,1883
1947,1945,1917
1962,1971,1893
1929,1931,1872
1910,1909,1891
1937,1943,1902
1959,1968,1881
1922,1950,1858
1904,1920,1870
1936,1946,1893
1957,1968,1893
1922,1958,1872
1905,1916,1877
1936,1923,1901
1963,1974,1890
1919,1948,1856
1912,1935,1881
1953,1970,1921
1970,1973,1902
1935,1939,1869
1910,1951,1873
1942,1969,1901
1964,1984,1885
1927,1954,1863
1909,1921,1881
1936,1931,1898
1951,1965,1883
1926,1959,1869
1901,1937,1879
1519,1943,1890
660,1978,1875
1424,1949,1860
2022,1953,1872
2119,1968,1909
1980,1975,1902
1834,1958,1863
1823,1947,1875
1936,1963,1899
1984,1975,1881
1955,1953,1855
1938,1938,1873
1949,1942,1898
1970,1940,1879
1949,1961,1861
1936,1967,1872
1959,1951,1903
1989,1968,1889
1965,1957,1868
1937,1938,1867
1979,1962,1905
2005,1986,1904
1971,1948,1866
1938,1925,1874
1979,1957,1909
1994,1968,1901
1951,1937,1860
1921,1919,1863
1974,1938,1907
2014,1979,1909
1982,1966,1887
1949,1951,1889
1973,1939,1903
1990,1936,1877
1943,1923,1866
1897,1927,1890
1499,1961,1914
1604,1983,1889
1925,1936,1871
2043,1938,1901
2019,1985,1920
2000,1969,1899
1977,1938,1875
1968,1927,1895
1998,1947,1920
2005,1968,1898
1989,1955,1877
1969,1925,1898
1994,1950,1920
2016,1973,1906
1979,1946,1894
1957,1933,1899
2002,1952,1922
2017,1970,1913
1985,1948,1881
1964,1930,1903
1985,1967,1914
2011,1983,1905
1984,1958,1882
1978,1937,1911
1999,1963,1936
2013,1977,1917
1978,1967,1885
1954,1942,1903
1986,1959,1935
2007,1970,1913
1971,1959,1885
1955,1946,1901
1983,1982,1926
2006,1985,1913
1974,1957,1883
1955,1946,1898
1983,1954,1922
2002,1978,1913
1972,1967,1876
1938,1920,1873
1982,1946,1914
2026,1995,1930
1989,1971,1904
1962,1945,1904
1986,1945,1919
2001,1983,1904
1984,1968,1890
1973,1958,1908
1995,1969,1922
2014,1982,1906
1985,1965,1895
1963,1953,1911
1984,1954,1931
1999,1979,1909
1969,1967,1887
1967,1936,1904
1982,1959,1915
1991,1968,1886
1975,1955,1878
1970,1934,1924
2000,1957,1946
2016,1973,1917
1978,1969,1874
1963,1943,1897
1990,1961,1929
2007,1981,1910
1984,1965,1893
1969,1938,1904
1982,1963,1926
2001,1974,1904
1981,1967,1893
1890,1958,1910
1879,1951,1925
1922,1954,1913
1955,1962,1891
1965,1941,1914
2003,1968,1934
2022,1985,1924
1788,1967,1931
1415,1936,1907
1695,1961,1915
1909,1968,1920
2000,1950,1882
1999,1929,1950
2003,1934,1920
2011,1984,1929
1987,1968,1888
1958,1941,1936
1982,1969,1909
2018,1968,1873
2001,1950,1895
1981,1941,1891
2002,1957,1975
2023,1966,1897
2000,1956,1904
1974,1969,1905
2003,1955,1931
2011,1963,1918
1981,1942,1873
1973,1937,1905
2021,1968,1939
2043,1984,1922
2002,1959,1888
1971,1920,1905
1994,1926,1910
2014,1959,1938
1995,1941,1917
1968,1921,1886
1999,1950,1938
2018,1964,1922
1983,1933,1897
1969,1949,1933
2009,1966,1939
2029,1973,1941
2000,1951,1899
1970,1936,1880
2001,1955,1938
2032,1956,1921
1999,1934,1890
1979,1913,1904
1999,1938,1942
2010,1966,1917
1985,1954,1889
1969,1926,1907
1999,1933,1906
2027,1956,1895
1987,1938,1894
1965,1908,1865
1985,1914,1904
2018,1966,1917
1999,1939,1877
1978,1910,1908
2002,1935,1939
2034,1959,1925
1993,1936,1913
1968,1913,1875
1998,1925,1932
2019,1941,1935
1984,1921,1904
1961,1930,1915
1994,1931,1957
2027,1936,1968
2013,1921,1940
1981,1901,1939
1994,1927,1957
2016,1951,1909
2003,1932,1868
1984,1915,1888
2004,1925,1940
2015,1965,1940
1982,1950,1887
1950,1925,1903
1996,1936,1925
2023,1955,1911
1998,1950,1894
1971,1920,1904
1999,1936,1926
2014,1955,1923
2001,1942,1920
1982,1923,1904
2000,1941,1903
2017,1965,1913
1984,1956,1904
1967,1907,1915
1991,1914,1941
2015,1936,1919
1990,1937,1898
1953,1931,1941
1953,1946,1920
1984,1967,1936
1996,1967,1924
1989,1913,1905
1995,1930,1947
2013,1978,1911
1982,1936,1840
1957,1907,1890
2000,1934,1997
2032,1955,1910
2000,1942,1873
1971,1927,1905
1998,1936,1917
2035,1955,1911
1995,1935,1886
1970,1914,1890
2001,1937,1927
2018,1962,1915
1985,1941,1887
1968,1905,1894
2015,1923,1936
2055,1961,1920
2015,1952,1890
1974,1921,1906
2000,1939,1933
2021,1963,1920
1999,1938,1888
1969,1913,1895
2000,1938,1935
2035,1963,1952
2010,1937,1902
1981,1911,1885
1999,1937,1905
2020,1965,1930
1995,1943,1874
1989,1923,1872
2017,1941,1968
2031,1957,1938
1998,1941,1887
1978,1930,1923
2002,1955,1909
2028,1968,1915
1995,1943,1853
1966,1915,1966
2000,1941,1959
2027,1968,1934
2000,1954,1885
1969,1935,1948
2001,1953,1945
2032,1964,1895
2003,1943,1904
1973,1930,1914
1989,1955,1919
2023,1968,1945
1995,1947,1847
1975,1925,1866
1990,1936,1913
2031,1966,1926
2018,1955,1887
1986,1926,1915
2001,1934,1938
2006,1950,1895
1987,1947,1872
1971,1924,1900
1999,1921,1935
2015,1968,1920
1987,1932,1907
1965,1904,1901
1987,1920,1925
2003,1947,1915
1986,1941,1890
1954,1915,1931
1975,1936,1904
2001,1951,1920
1994,1941,1904
1965,1922,1906
1983,1928,1930
2011,1942,1909
1984,1951,1921
1962,1905,1918
1986,1919,1930
2015,1963,1917
1984,1936,1901
1968,1893,1891
1988,1931,1942
2014,1981,1908
1987,1937,1886
1959,1906,1896
1988,1922,1925
2009,1951,1918
1990,1933,1887
1955,1914,1884
1985,1943,1933
2011,1968,1923
2000,1933,1893
1968,1904,1903
1978,1913,1922
2000,1935,1904
1980,1920,1873
1956,1899,1897
1985,1933,1936
2003,1968,1915
1979,1941,1884
1949,1895,1886
1974,1904,1914
2001,1949,1908
1995,1953,1893
1973,1920,1905
1989,1909,1925
2003,1933,1920
1987,1917,1886
1957,1910,1902
1974,1927,1926
2000,1929,1915
1982,1921,1898
1969,1904,1914
1995,1930,1939
2005,1939,1920
1979,1909,1872
1907,1916,1888
2002,1938,1927
2010,1956,1927
1995,1938,1903
1967,1916,1907
1991,1936,1932
1979,1931,1904
1967,1918,1879
1978,1906,1909
1952,1931,1939
2023,1951,1923
1991,1931,1887
1909,1906,1892
1970,1915,1911
2015,1950,1917
1983,1939,1900
1958,1904,1914
1984,1936,1939
2043,1946,1917
1961,1936,1881
1981,1917,1903
1984,1936,1927
2000,1965,1917
1984,1948,1888
1961,1920,1887
1984,1923,1920
1993,1950,1922
1978,1943,1894
1938,1926,1901
1957,1936,1925
1952,1959,1913
1989,1951,1883
1947,1943,1887
1956,1937,1901
1863,1960,1902
1841,1953,1904
1907,1930,1918
2004,1953,1935
2053,1971,1923
1962,1943,1889
1926,1922,1895
1987,1927,1925
2013,1951,1930
1984,1955,1903
1958,1936,1895
1935,1936,1918
1989,1968,1915
2031,1975,1898
1995,1929,1900
2003,1935,1927
2014,1967,1909
1971,1959,1889
1941,1936,1904
1988,1943,1936
2035,1958,1925
1985,1957,1889
1967,1937,1888
1991,1918,1920
2018,1943,1920
2015,1952,1910
1962,1941,1909
1969,1946,1929
2054,1970,1918
1988,1957,1894
1963,1930,1899
2015,1939,1929
1980,1968,1920
1986,1963,1898
2000,1930,1899
2007,1962,1937
2011,1968,1938
1984,1954,1904
1955,1929,1894
1991,1946,1921
2029,1958,1930
1987,1968,1909
1995,1987,1919
1966,1946,1937
2037,1949,1926
1997,1943,1890
1968,1937,1895
1984,1949,1931
2007,1968,1936
1984,1955,1906
1970,1940,1910
1977,1950,1933
2035,1984,1924
1963,1966,1895
2029,1927,1901
2002,1943,1926
1978,1958,1917
1982,1950,1877
2000,1952,1915
2047,1968,1968
2029,1975,1949
2035,1967,1904
1967,1954,1915
1978,1962,1941
2070,2000,1931
1991,1967,1898
1968,1926,1908
1984,1937,1936
2016,1967,1936
1979,1968,1905
2033,1936,1900
1920,1920,1936
1954,1973,1943
2013,1974,1911
1974,1949,1919
1987,1953,1931
2007,1968,1923
1999,1959,1901
1984,1943,1917
2003,1947,1946
2021,1982,1936
2001,1968,1897
1968,1963,1910
2017,1958,1938
1983,1967,1930
1996,1959,1904
1959,1941,1908
1971,1947,1930
2059,1947,1919
2019,1944,1895
1971,1937,1910
1999,1935,1942
2009,1949,1931
1995,1939,1881
1931,1934,1915
2022,1944,1953
2096,1963,1947
2047,1956,1901
1963,1943,1897
1973,1952,1936
2005,1968,1925
1969,1954,1906
2022,1947,1907
1973,1933,1930
2018,1963,1934
1968,1936,1889
1936,1919,1888
1984,1945,1936
2059,1968,1942
2022,1967,1904
1968,1933,1893
1982,1936,1922
2003,1958,1926
1991,1942,1888
1974,1931,1900
1951,1954,1927
2031,1977,1922
1994,1943,1889
1962,1907,1883
1974,1915,1914
1995,1953,1913
1981,1958,1888
1962,1939,1894
1973,1947,1927
2027,1955,1921
1998,1941,1889
1968,1920,1886
1951,1935,1922
2004,1962,1927
1984,1950,1897
1975,1933,1891
1982,1951,1929
2091,1930,1923
1988,1925,1882
1970,1921,1871
1977,1939,1913
2042,1967,1938
2007,1951,1907
1977,1931,1895
1999,1939,1919
1997,1955,1919
2000,1949,1895
1961,1936,1882
1974,1955,1915
2001,1968,1920
1979,1933,1889
1971,1918,1894
1987,1939,1933
2004,1968,1931
1988,1955,1893
1955,1920,1888
1987,1936,1927
2018,1972,1936
1990,1961,1902
1966,1939,1890
1984,1941,1923
2009,1952,1931
1981,1938,1887
1956,1938,1876
1978,1954,1917
2017,1957,1936
1997,1946,1907
1968,1909,1886
1970,1931,1911
1993,1943,1911
1974,1923,1877
1956,1919,1879
1986,1932,1931
2007,1958,1927
1989,1949,1894
1962,1930,1878
1977,1937,1919
2000,1949,1919
1975,1943,1878
1952,1941,1877
1968,1948,1904
1986,1967,1919
1983,1939,1889
1947,1907,1874
1961,1934,1904
1984,1959,1907
1968,1951,1868
1953,1933,1869
1975,1943,1917
1999,1973,1923
1981,1968,1890
1952,1923,1874
1968,1922,1911
1995,1965,1914
1978,1959,1879
1952,1923,1868
1985,1941,1919
2007,1969,1934
1990,1961,1904
1963,1935,1887
1975,1939,1906
1993,1972,1907
1993,1981,1898
1966,1932,1882
1974,1919,1908
2006,1949,1920
1988,1958,1885
1952,1925,1872
1971,1931,1904
2014,1962,1931
1995,1963,1910
1963,1927,1888
1983,1930,1907
2007,1952,1919
1992,1950,1895
1965,1926,1872
1971,1932,1904
1996,1951,1917
1982,1953,1891
1965,1941,1880
1969,1938,1901
1986,1954,1915
1987,1952,1894
1968,1941,1883
1962,1937,1903
1980,1963,1904
1979,1945,1885
1951,1920,1872
1968,1938,1901
1997,1959,1914
1978,1936,1878
1948,1932,1862
1968,1945,1895
1994,1962,1915
1982,1957,1885
1968,1947,1873
1978,1969,1904
1995,1959,1904
1978,1934,1874
1962,1918,1867
1978,1938,1901
2000,1963,1908
1971,1957,1875
1946,1935,1862
1975,1943,1898
2003,1970,1920
1973,1936,1877
1952,1907,1871
1965,1933,1900
1984,1968,1911
1973,1959,1897
1952,1932,1882
1968,1935,1904
1990,1955,1905
1978,1946,1874
1939,1924,1871
1968,1934,1906
1985,1967,1915
1975,1954,1889
1953,1930,1875
1969,1937,1901
1996,1947,1917
1981,1937,1891
1954,1920,1883
1966,1931,1909
1984,1968,1915
1973,1968,1889
1951,1931,1883
1966,1936,1904
1986,1952,1920
1973,1952,1891
1953,1936,1879
1967,1943,1904
1984,1957,1910
1969,1946,1885
1947,1931,1877
1951,1935,1891
1970,1962,1903
1967,1967,1894
1954,1935,1902
1968,1936,1905
1984,1949,1907
1972,1943,1892
1946,1913,1872
1965,1942,1891
1975,1958,1902
1967,1943,1878
1936,1921,1872
1948,1938,1894
1968,1959,1904
1971,1952,1893
1961,1930,1890
1969,1936,1905
1983,1948,1915
1957,1961,1879
1926,1941,1862
1951,1931,1887
1980,1943,1911
1968,1936,1890
1949,1935,1885
1963,1940,1901
1984,1958,1907
1967,1946,1881
1922,1917,1863
1950,1926,1895
1987,1956,1918
1983,1939,1894
1953,1915,1883
1962,1947,1904
1984,1950,1904
1963,1947,1870
1936,1922,1872
1958,1928,1920
1982,1971,1933
1965,1943,1877
1931,1882,1862
1945,1920,1904
1984,1987,1909
1987,1968,1897
1954,1954,1886
1955,1957,1904
1984,1939,1909
1966,2000,1879
1929,1937,1877
1968,1957,1919
1982,1977,1918
1967,1926,1873
1931,1898,1870
1952,1904,1911
2000,1969,1930
1985,1935,1902
1954,1884,1881
1957,1917,1904
1976,1936,1907
1967,1942,1872
1936,1947,1875
1953,1950,1914
1986,2002,1923
1968,1982,1887
1937,1935,1870
1951,1897,1901
1986,1915,1907
1972,1935,1882
1936,1920,1871
1943,1918,1906
1981,1968,1919
1971,1967,1881
1937,1931,1874
1955,1955,1908
1984,1968,1914
1973,1938,1878
1934,1941,1872
1936,1927,1895
1979,1941,1905
1968,1930,1872
1935,1919,1870
1957,1915,1898
1990,1951,1907
1981,1958,1891
1945,1919,1877
1946,1930,1910
1985,1922,1919
1973,1937,1884
1938,1895,1872
1952,1919,1911
1985,1916,1919
1975,1936,1887
1939,1878,1877
1953,1904,1904
1983,1920,1911
1968,1935,1886
1943,1895,1885
1953,1899,1914
1975,1946,1906
1971,1934,1877
1943,1874,1880
1965,1923,1925
1989,1983,1919
1968,1929,1875
1945,1905,1872
1966,1968,1917
1985,1931,1911
1964,1920,1872
1948,1907,1872
1955,1926,1909
1984,1974,1911
1968,1948,1882
1942,1899,1872
1958,1911,1903
1989,1942,1906
1983,1968,1889
1942,1904,1880
1954,1863,1901
1986,1920,1903
1974,1936,1873
1950,1915,1879
1965,1877,1904
1995,1933,1911
1979,1913,1877
1933,1885,1865
1949,1945,1898
1988,1940,1915
1975,1979,1891
1936,1929,1879
1953,1936,1908
1997,1920,1922
1973,1900,1876
1930,1891,1867
1947,1905,1905
1988,1919,1920
1979,1931,1887
1935,1846,1875
1938,1897,1904
1984,1931,1920
1987,1953,1893
1941,1925,1887
1947,1919,1905
1982,1880,1907
1974,1936,1872
1933,1921,1866
1954,1931,1905
1995,2018,1911
1982,1936,1887
1939,1914,1882
1947,1920,1914
1983,1937,1915
1981,1942,1887
1943,1918,1874
1957,1923,1915
1997,1955,1926
1985,1966,1899
1945,1924,1886
1951,1904,1905
1982,1936,1910
1987,1965,1903
1938,1925,1888
1945,1985,1912
1986,1951,1917
1982,1936,1884
1941,1929,1877
1946,1903,1911
1984,2026,1919
1967,1936,1878
1936,1939,1873
1952,1920,1904
1990,1960,1918
1987,1959,1895
1943,1975,1873
1952,1915,1904
1990,1931,1924
1982,1979,1893
1942,1904,1872
1955,1913,1907
1989,2021,1905
1984,1943,1882
1941,1907,1874
1955,1951,1901
1999,1951,1917
1989,1965,1888
1941,1920,1870
1955,1907,1895
2000,1938,1910
1995,1959,1902
1953,1879,1886
1954,1920,1903
1998,1952,1910
2000,1946,1889
1951,1931,1875
1967,1968,1907
2002,1984,1925
1990,1973,1903
1942,1906,1873
1946,1936,1897
1984,1949,1915
1981,1950,1892
1937,1929,1872
1936,1952,1901
1971,1921,1903
1969,1925,1871
1942,1916,1876
1946,1878,1907
1985,2031,1927
1975,1927,1892
1936,1919,1872
1936,1879,1893
1974,1962,1909
1969,1931,1881
1922,1826,1866
1923,1929,1895
1969,1882,1920
1968,1949,1894
1933,1933,1873
1926,1930,1901
1968,1959,1925
1959,1954,1895
1915,1931,1877
1917,1911,1895
1966,1927,1913
1965,1943,1879
1922,1926,1872
1931,1922,1905
1979,1961,1920
1963,1947,1891
1915,1913,1874
1932,1920,1909
1968,1957,1921
1952,1938,1874
1920,1910,1873
1936,1915,1916
1982,1946,1927
1981,1942,1895
1933,1906,1873
1920,1914,1907
1979,1945,1930
1983,1936,1902
1936,1911,1890
1927,1907,1906
1967,1936,1922
1968,1950,1904
1924,1915,1874
1936,1914,1910
1984,1970,1936
1983,1955,1909
1936,1887,1877
1937,1895,1906
1973,1936,1925
1973,1947,1902
1932,1918,1892
1935,1914,1906
1970,1923,1918
1967,1939,1899
1936,1933,1894
1930,1907,1916
1964,1920,1921
1968,1945,1890
1924,1924,1885
1942,1911,1913
1991,1943,1935
1984,1942,1902
1939,1913,1877
1936,1911,1906
1979,1940,1925
1971,1936,1904
1936,1904,1872
1938,1909,1904
1986,1942,1926
1979,1953,1903
1936,1921,1878
1942,1919,1907
1978,1968,1922
1974,1956,1898
1935,1894,1870
1939,1895,1914
1984,1942,1936
1981,1961,1903
1935,1901,1882
1938,1910,1902
1983,1933,1922
1981,1949,1894
1939,1913,1876
1943,1915,1904
1995,1951,1927
1996,1962,1904
1941,1921,1879
1947,1920,1910
1987,1950,1933
1980,1962,1899
1937,1925,1876
1948,1911,1905
1979,1939,1919
1971,1953,1887
1939,1940,1886
1947,1915,1918
1982,1942,1923
1969,1954,1894
1926,1922,1872
1922,1926,1902
1983,1962,1919
1986,1955,1901
1936,1925,1878
1934,1915,1904
1967,1945,1904
1972,1955,1891
1941,1923,1875
1942,1923,1902
1969,1952,1919
1965,1963,1890
1928,1947,1869
1944,1936,1904
1995,1968,1921
1978,1974,1888
1939,1937,1877
1945,1927,1912
1981,1950,1926
1975,1943,1897
1937,1914,1872
1942,1918,1903
1980,1956,1927
1978,1957,1901
1936,1934,1879
1936,1920,1905
1975,1965,1923
1975,1966,1899
1934,1931,1881
1927,1942,1902
1963,1988,1918
1970,1954,1889
1930,1907,1869
1931,1908,1905
1971,1946,1923
1968,1963,1894
1925,1920,1872
1931,1915,1911
1976,1943,1933
1968,1954,1903
1923,1938,1872
1931,1940,1902
1969,1970,1920
1974,1959,1898
1937,1929,1877
1943,1936,1904
1985,1950,1916
1978,1967,1895
1920,1922,1863
1925,1925,1891
1984,1966,1931
1979,1967,1901
1927,1919,1866
1936,1919,1915
1991,1983,1941
1986,1977,1906
1936,1949,1872
1925,1948,1902
1975,1951,1925
1985,1948,1895
1939,1926,1879
1933,1936,1909
1971,1956,1922
1971,1955,1900
1938,1935,1872
1935,1934,1903
1975,1952,1921
1969,1967,1897
1937,1937,1890
1941,1936,1922
1981,1964,1942
1970,1982,1898
1934,1937,1888
1944,1927,1915
1982,1968,1936
1983,1968,1906
1931,1936,1887
1934,1945,1907
1973,1968,1923
1971,1955,1903
1936,1926,1882
1936,1933,1904
1971,1959,1929
1970,1961,1889
1938,1943,1872
1955,1936,1920
1989,1968,1964
1975,1973,1927
1934,1936,1835
1953,1931,1873
1995,1962,1936
1997,1972,1943
1942,1950,1872
1936,1917,1906
1978,1937,1904
1978,1955,1852
1926,1939,1871
1927,1927,1920
1968,1962,1915
1969,1978,1904
1927,1951,1840
1927,1939,1913
1963,1968,1927
1968,1968,1920
1925,1945,1853
1927,1947,1947
1978,1974,1893
1984,1970,1894
1949,1942,1883
1937,1926,1905
1971,1955,1920
1973,1959,1895
1938,1936,1837
1949,1922,1902
1987,1975,1967
1984,1984,1877
1941,1965,1882
1936,1931,1904
1978,1957,1917
1981,1968,1877
1936,1937,1872
1941,1929,1885
1987,1971,1934
1997,1983,1904
1949,1950,1905
1938,1941,1903
1975,1965,1921
1986,1983,1916
1953,1944,1878
1946,1923,1910
1977,1958,1959
1978,1974,1911
1936,1947,1881
1931,1947,1872
1967,1967,1923
1977,1971,1913
1943,1945,1887
1946,1944,1891
1978,1971,1905
1968,1968,1890
1935,1938,1856
1949,1945,1948
1984,1968,1936
1984,1971,1884
1945,1951,1867
1947,1947,1873
1989,1949,1955
1991,1951,1859
1947,1938,1855
1943,1927,1904
1974,1947,1922
2000,1970,1883
1956,1947,1878
1942,1936,1921
1971,1965,1924
1993,1975,1921
1967,1957,1908
1952,1944,1927
