1963,1936,1879
1935,1937,1861
2013,1995,1939
2036,2003,1968
1953,1934,1879
1935,1915,1870
2019,1992,1947
2032,2020,1963
1941,1941,1878
1933,1923,1873
2014,2000,1962
2038,2013,1981
1956,1936,1886
1937,1911,1872
2019,1991,1942
2038,2011,1963
1962,1925,1867
1937,1920,1859
2015,2021,1963
2035,2014,1967
1951,1904,1862
1935,1902,1872
2031,1995,1971
2047,2019,1973
1958,1936,1883
1945,1934,1872
2010,1991,1951
2032,2000,1953
1957,1930,1863
1939,1929,1875
2026,2000,1969
2035,2013,1963
1956,1936,1877
1940,1930,1869
2019,1995,1945
2042,2018,1966
1968,1962,1883
1948,1935,1871
2018,1974,1935
2033,2000,1947
1955,1930,1874
1949,1911,1883
2023,1984,1961
2043,2009,1954
1951,1941,1869
1936,1919,1870
2019,1985,1957
2047,2011,1961
1954,1942,1872
1936,1920,1871
2026,1990,1959
2039,2013,1967
1953,1936,1870
1936,1927,1871
2018,2012,1955
2045,1998,1950
1957,1899,1867
1931,1904,1867
2010,1984,1957
2038,2022,1968
1953,1936,1873
1925,1907,1850
2002,1978,1936
2034,2000,1959
1967,1942,1876
1942,1933,1871
2013,1988,1942
2035,2001,1949
1958,1973,1881
1933,1920,1886
2003,1958,1962
2035,1995,1969
1953,1931,1877
1926,1915,1859
2011,1990,1949
2045,2007,1968
1961,1936,1872
1926,1915,1849
1998,1983,1936
2031,2015,1963
1959,1963,1884
1943,1939,1872
2017,1968,1943
2027,1985,1962
1943,1935,1868
1927,1929,1870
2015,1993,1950
2038,2020,1971
1953,1936,1873
1923,1914,1856
2003,1984,1936
2033,1995,1953
1951,1942,1866
1931,1938,1858
2008,1983,1936
2022,2001,1950
1941,1934,1858
1914,1893,1844
1999,1971,1925
2016,2003,1952
1949,1936,1874
1915,1910,1856
1993,1968,1930
2021,1985,1936
1952,1935,1867
1936,1919,1863
2006,1990,1938
2035,2003,1949
1951,1934,1861
1920,1919,1841
1998,1984,1926
2032,2001,1940
1967,1951,1869
1936,1915,1872
2000,1968,1941
2025,2005,1951
1950,1946,1862
1937,1914,1861
2012,1970,1938
2029,1998,1954
1953,1930,1872
1922,1916,1856
2007,1990,1937
2045,2016,1958
1967,1926,1877
1937,1914,1859
2005,1977,1927
2042,2010,1947
1962,1946,1873
1937,1935,1872
2015,1986,1961
2035,2000,1979
1959,1959,1872
1930,1931,1854
2011,1981,1942
2037,2000,1952
1953,1921,1855
1936,1911,1853
2021,1989,1953
2045,2014,1971
1965,1947,1874
1930,1920,1857
2010,1985,1936
2042,2007,1968
1962,1952,1872
1925,1930,1857
2003,1978,1929
2038,2002,1956
1966,1957,1881
1939,1901,1857
2017,1986,1946
2031,2045,1968
1956,1995,1875
1936,1883,1856
2007,1943,1937
2047,2057,1965
1957,1970,1865
1931,1893,1842
2007,1993,1952
2039,2007,1982
1968,1989,1893
1941,1936,1872
2023,2055,1954
2057,2035,1973
1965,1981,1889
1937,1959,1864
2010,1968,1945
2043,2026,1973
1973,1936,1890
1934,1921,1865
2010,1979,1934
2037,2002,1951
1968,1949,1879
1939,1929,1858
2019,2022,1954
2063,2046,1979
1974,1969,1878
1943,1921,1856
2015,1952,1941
2053,1995,1971
1970,1966,1882
1936,1943,1859
2009,2010,1934
2038,2007,1974
1965,1947,1902
1934,1936,1872
2004,1986,1946
2037,2030,1958
1967,1953,1872
1939,1927,1859
2006,1987,1956
2043,2019,1978
1966,1997,1888
1933,1989,1861
2006,1989,1949
2043,2005,1975
1964,1966,1887
1933,1923,1862
2000,1951,1941
2037,2017,1971
1967,1963,1887
1936,1927,1868
2005,1986,1936
2039,2019,1970
1971,1959,1894
1937,1886,1872
2005,1943,1939
2035,2000,1970
1969,1957,1889
1936,1943,1864
2003,2033,1940
2039,2022,1964
1970,1948,1894
1937,1913,1860
2011,1986,1938
2035,2022,1974
1961,1979,1890
1933,1915,1856
2000,1979,1950
2033,2021,1986
1963,1952,1895
1936,1967,1870
2010,1984,1934
2033,2000,1957
1951,1938,1875
1927,1911,1870
2018,1994,1953
2047,2031,1982
1962,1920,1879
1926,1904,1872
2007,1950,1954
2046,2039,1985
1978,1943,1899
1947,1934,1873
2013,1969,1945
2041,2037,1970
1962,1918,1894
1931,1926,1872
2010,1965,1953
2041,1999,1978
1966,1980,1904
1941,1939,1889
2009,1953,1957
2042,1988,1979
1968,1918,1891
1937,1937,1872
2010,1973,1947
2038,2007,1981
1969,1924,1887
1936,1905,1859
2002,1981,1946
2046,2043,1987
1978,1936,1905
1941,2002,1867
2000,1970,1936
2037,2007,1973
1968,1961,1896
1930,1927,1866
2005,1982,1945
2043,2018,1981
1969,1928,1889
1926,1903,1857
2002,1978,1941
2035,1997,1968
1965,1929,1883
1933,1882,1863
2000,1973,1942
2039,1979,1977
1977,1916,1888
1936,1965,1854
2005,1985,1941
2037,2019,1975
1958,1927,1884
1926,1872,1854
2001,1965,1946
2047,2082,1984
1981,1954,1902
1937,1936,1867
1994,2032,1934
2035,1993,1970
1974,1862,1894
1936,1908,1862
2009,1983,1951
2058,2003,1975
1978,1987,1899
1924,1915,1857
2000,1966,1936
2039,1987,1969
1975,1910,1899
1934,1872,1861
2003,1986,1950
2042,2015,1985
1966,1934,1890
1935,1910,1872
2007,1966,1953
2061,2013,1978
1972,1975,1887
1931,1917,1859
2014,1967,1941
2064,1974,1971
1978,1948,1897
1945,1923,1873
2022,1970,1938
2053,2004,1970
1975,1942,1888
1942,1825,1863
2013,1987,1941
2067,2032,1985
1991,1913,1906
1950,1905,1871
2013,1975,1937
2054,2012,1984
1978,1918,1906
1947,1926,1883
2019,1986,1950
2055,2037,1972
1983,1920,1891
1933,1915,1872
2007,2032,1954
2054,2085,1986
1985,1986,1892
1947,1931,1859
2017,2065,1947
2068,1950,1978
1985,1943,1895
1938,1922,1867
2013,1985,1948
2054,2023,1979
1985,1968,1900
1947,1919,1861
2021,1972,1941
2068,2011,1979
1990,1967,1907
1953,1935,1885
2015,1993,1959
2059,2033,1995
1984,1943,1905
1939,1907,1869
2007,1968,1947
2045,2007,1974
1978,1945,1904
1947,1913,1881
2019,1988,1957
2060,2032,1982
1986,1952,1905
1954,1904,1874
2011,1975,1941
2055,2030,1979
1986,1979,1893
1943,1925,1871
2010,1962,1953
2057,2000,1972
1993,1950,1887
1962,1915,1867
2029,1968,1950
2058,2016,1979
1983,1958,1893
1945,1921,1869
2022,1982,1946
2062,2003,1978
1982,1951,1890
1937,1920,1872
2011,1970,1939
2057,2007,1959
1981,1958,1891
1936,1925,1863
2010,1980,1931
2045,2015,1970
1979,1949,1895
1936,1916,1863
2006,1975,1945
2054,2002,1982
1979,1947,1895
1945,1920,1857
2009,1979,1930
2057,2012,1968
1985,1958,1887
1941,1922,1861
2001,1974,1936
2046,2012,1962
1975,1950,1879
1943,1921,1855
2010,1982,1925
2059,2013,1975
1993,1979,1901
1947,1921,1853
2001,1955,1935
2037,2006,1970
1977,1959,1904
1948,1923,1867
2016,1974,1935
2057,2005,1969
1987,1942,1898
1953,1917,1867
2010,1991,1933
2063,2038,1968
1990,1962,1899
1950,1915,1863
2021,1983,1936
2064,2029,1979
1984,1959,1899
1941,1923,1863
2018,1985,1952
2060,2023,1982
1979,1968,1890
1945,1920,1850
2007,1986,1936
2055,2002,1968
1989,1959,1893
1955,1941,1867
2013,1990,1935
2053,2022,1972
1979,1954,1890
1935,1926,1853
1996,1984,1925
2045,2029,1973
1989,1965,1905
1946,1931,1857
1999,1985,1931
2043,2025,1974
1985,1962,1909
1947,1935,1874
2010,1987,1942
2062,2039,1968
1990,1975,1904
1943,1935,1871
2011,1979,1927
2062,2003,1967
1985,1945,1891
1951,1924,1865
2015,1984,1937
2063,2016,1983
1982,1965,1895
1950,1913,1867
2013,1982,1951
2065,2025,1995
1990,1968,1906
1948,1934,1871
2014,1984,1947
2061,2017,1975
1986,1956,1893
1947,1941,1871
2014,1967,1943
2062,2002,1987
1995,1948,1904
1953,1917,1863
2019,1984,1949
2064,2026,1995
1984,1968,1904
1941,1913,1863
2018,1967,1947
2061,2018,1984
1986,1970,1903
1943,1921,1857
2000,1959,1921
2047,2005,1978
1991,1968,1920
1949,1921,1873
1997,1968,1924
2037,2013,1957
1979,1950,1883
1937,1920,1865
2010,1977,1947
2055,2021,1982
1979,1958,1897
1937,1919,1858
2000,1969,1937
2047,2000,1971
1984,1968,1902
1948,1937,1870
2017,1984,1936
2064,2035,1979
1987,1966,1904
1938,1899,1846
1999,1968,1930
2057,2023,1990
1986,1961,1908
1943,1920,1872
2009,1978,1936
2065,2022,1974
1991,1954,1893
1948,1918,1858
2013,1974,1935
2053,2015,1967
1984,1963,1899
1946,1919,1863
2015,1968,1942
2061,2013,1980
1984,1967,1899
1934,1921,1861
1995,1967,1927
2057,2032,1975
2000,1970,1909
1951,1920,1855
2007,1970,1920
2044,2022,1975
1979,1971,1907
1942,1931,1867
2003,1966,1923
2052,2014,1968
1987,1968,1903
1937,1930,1862
1991,1984,1910
2059,2030,1970
1985,1968,1927
1945,1910,1855
2001,1955,1968
2041,2022,1952
1977,1974,1889
1936,1936,1885
1997,1968,1908
2039,2011,1970
1986,1967,1926
1947,1921,1886
1991,1969,1920
2035,2015,1959
1978,1959,1889
1934,1920,1851
1999,1968,1930
2047,2013,1999
1982,1961,1889
1936,1917,1837
2001,1971,1939
2045,2003,1987
1985,1946,1903
1935,1914,1862
1999,1978,1920
2039,2016,1968
1981,1954,1892
1934,1908,1850
2001,1968,1930
2039,2012,2000
1972,1963,1899
1939,1919,1866
2013,1980,1963
2064,2020,1988
1990,1969,1904
1943,1919,1862
2002,1969,1925
2045,2015,1975
1979,1966,1903
1945,1931,1850
2013,1985,1963
2069,2029,1996
1989,1951,1920
1937,1916,1872
2003,1982,1958
2061,2025,1983
1990,1961,1890
1947,1918,1866
1999,1970,1902
2059,2017,1964
1988,1966,1868
1937,1915,1843
2001,1969,1936
2062,2018,1971
1993,1966,1918
1943,1919,1866
2001,1974,1919
2061,2031,1953
1987,1970,1911
1947,1923,1868
2015,1982,1907
2063,2017,1956
1997,1967,1868
1939,1913,1843
2000,1968,1927
2055,2022,1926
1990,1969,1903
1956,1922,1837
2011,1977,1911
2063,2031,1981
1991,1970,1905
1938,1893,1874
1996,1947,1888
2064,2009,1945
2000,1963,1905
1946,1922,1856
2006,1973,1943
2066,2019,1989
1993,1956,1917
1942,1919,1897
2003,1968,1914
2062,2013,1981
1998,1964,1879
1951,1921,1876
2002,1968,1934
2047,2014,2000
1998,1971,1904
1939,1913,1879
2001,1965,1929
2054,2015,1965
1984,1962,1906
1936,1919,1849
2000,1959,1914
2043,2011,1989
1984,1965,1895
1939,1888,1803
1987,1936,1835
2055,2000,1977
1990,1959,1907
1937,1907,1842
1998,1963,1914
2054,2015,2063
1990,1969,1920
1942,1919,1867
2000,1961,1865
2053,2002,1971
1990,1954,1904
1936,1918,1854
2001,1968,1922
2062,2015,1983
1991,1979,1918
1943,1924,1860
2000,1941,1908
2034,1977,1882
1987,1943,1904
1942,1931,1872
1994,1959,1986
2047,2007,1995
1991,1959,1899
1937,1904,1851
1995,1955,1925
2047,2006,1991
1995,1962,1922
1938,1919,1862
2000,1979,1906
2059,2025,1979
1984,1974,1946
1939,1917,1891
2001,1966,1905
2055,2012,1972
1984,1967,1920
1936,1921,1829
1984,1965,1926
2041,2006,1960
1983,1968,1895
1932,1929,1807
2000,1966,1919
2057,2010,1970
2000,1972,1904
1953,1919,1869
2002,1968,1936
2041,2019,1971
1994,1984,1905
1952,1919,1871
2000,1957,1935
2055,2001,1975
1989,1962,1898
1945,1916,1858
2000,1965,1923
2063,2006,1982
2000,1965,1904
1945,1924,1840
2003,1966,1904
2062,2006,1971
2000,1979,1902
1949,1930,1871
1996,1947,1927
2061,2000,1953
1999,1965,1897
1945,1931,1917
1997,1978,1938
2055,2016,1985
1996,1975,1904
1954,1925,1879
1995,1968,1898
2047,2023,1953
1991,1971,1979
1939,1927,1859
1999,1975,1922
2046,2011,1968
1981,1958,1959
1923,1917,1867
1984,1958,1920
2057,2002,1996
1997,1967,1911
1939,1936,1868
1995,1965,1930
2041,2005,1974
1999,1963,1914
1940,1919,1858
1995,1956,1918
2047,2003,1970
2000,1968,1906
1949,1909,1844
1998,1962,1910
2046,2023,1977
1984,1975,1916
1935,1918,1861
1985,1963,1907
2042,2014,1968
2000,1967,1904
1950,1925,1861
1989,1957,1919
2038,2021,1965
1995,1987,1917
1934,1933,1872
1984,1942,1920
2038,1984,1968
1991,1943,1895
1935,1910,1842
1983,1963,1930
2042,2000,1986
1997,1966,1918
1937,1909,1872
1986,1950,1926
2038,2006,1970
1989,1967,1919
1938,1918,1876
1968,1966,1931
2046,2022,1971
1988,1974,1903
1936,1907,1849
1969,1939,1920
2055,2002,1980
1982,1950,1904
1923,1906,1856
2016,1955,1919
2075,2010,1986
1971,1965,1926
1966,1904,1866
1987,1936,1931
2045,2019,1982
1991,1982,1917
1933,1931,1866
2000,1959,1927
2062,2003,1977
2007,1968,1914
1949,1921,1856
1984,1968,1915
2057,2006,1973
1991,1957,1913
1931,1915,1869
1981,1943,1925
2039,2009,1988
1984,1971,1926
1935,1924,1872
2012,1969,1922
2027,2017,1971
1982,1968,1918
1948,1906,1872
1998,1970,1933
2059,2034,1973
1994,1967,1919
1931,1904,1861
1999,1963,1913
2058,2019,1984
2001,1977,1926
1937,1918,1873
1997,1954,1922
2046,2001,1977
1998,1969,1914
1933,1920,1858
1980,1951,1915
2043,2003,1969
1968,1968,1919
1947,1923,1870
1975,1987,1937
2087,2027,1994
1999,1966,1919
1968,1909,1859
1968,1956,1920
2110,2025,1985
2013,1995,1921
1928,1914,1862
1975,1935,1920
2085,1983,1971
2006,1950,1911
1975,1918,1863
1988,1955,1917
2055,2009,1963
1998,1977,1917
1953,1917,1869
2011,1968,1930
2064,2011,1971
2023,1974,1911
1941,1934,1854
1993,1967,1927
2013,2011,1984
2032,1963,1920
1922,1907,1856
1978,1945,1910
2071,1997,1972
1993,1981,1925
1943,1934,1869
2000,1955,1918
2033,2004,1953
2000,1974,1904
1939,1934,1872
2003,1969,1925
2076,2015,1974
2022,1990,1907
1967,1941,1856
1970,1991,1920
2074,2007,1965
1973,1973,1904
1920,1938,1872
1984,1963,1924
2000,1994,1977
1968,1962,1911
1946,1920,1855
1983,1959,1918
2039,2018,1975
1975,1974,1915
1957,1919,1854
1993,1954,1895
2047,2018,1969
2011,1981,1920
1970,1923,1865
1984,1954,1919
2136,2000,1967
2017,1979,1909
1951,1939,1867
2093,1964,1917
2064,2018,1968
2003,1973,1922
1940,1901,1859
1989,1947,1913
2046,2000,1966
1998,1963,1906
1936,1906,1851
1974,1942,1917
2033,2015,1979
1994,1992,1927
1934,1930,1867
1987,1968,1923
2115,2000,1974
1999,1963,1920
1999,1926,1863
1999,1965,1911
2013,1998,1963
1968,1964,1911
1952,1915,1859
1981,1955,1910
2025,2018,1965
2032,1978,1910
1921,1913,1857
1971,1946,1915
2058,2004,1968
2027,1986,1920
1916,1931,1861
1968,1955,1911
2016,2006,1963
1952,1979,1904
1920,1926,1856
1970,1955,1919
2095,2014,1977
2000,1980,1923
1952,1919,1861
1985,1961,1908
2042,2021,1969
2003,1969,1912
1966,1904,1859
1975,1948,1918
2037,2010,1968
1981,1971,1905
2000,1923,1856
1967,1959,1910
2112,2010,1968
2001,1970,1915
1936,1919,1846
1990,1954,1910
2059,2002,1977
1998,1968,1904
1934,1918,1857
1975,1955,1913
2032,2000,1966
1989,1961,1907
1934,1921,1856
2000,1957,1910
2032,2001,1965
1979,1984,1907
1948,1936,1856
1968,1939,1904
2064,1991,1962
1962,1973,1909
1914,1922,1851
1984,1953,1904
2035,2015,1959
1983,1968,1903
1946,1911,1860
1983,1939,1919
1984,1997,1965
2038,1966,1907
1962,1919,1866
2006,1950,1921
2029,2009,1974
1997,1973,1921
1936,1917,1856
1983,1952,1902
2045,2017,1968
1993,1984,1920
1937,1945,1861
1993,1960,1907
2054,1982,1961
2003,1954,1905
1945,1915,1869
1985,1945,1907
2043,1999,1952
1996,1971,1912
1951,1923,1866
1989,1958,1919
2038,2007,1966
1990,1982,1910
1935,1933,1861
1984,1968,1906
2057,2025,1977
2007,1969,1928
1941,1905,1856
1979,1936,1908
2034,2000,1971
1991,1974,1914
1941,1923,1855
1984,1952,1911
2037,1993,1968
1998,1969,1914
1946,1935,1869
1983,1953,1907
2038,2000,1966
2000,1984,1916
1938,1925,1854
1985,1959,1910
2041,2012,1974
1997,1968,1921
1942,1923,1869
1986,1963,1915
2041,2007,1973
1995,1969,1917
1940,1923,1861
1987,1954,1915
2045,2006,1981
1998,1974,1929
1934,1927,1866
1987,1953,1921
2047,1981,1984
1999,1955,1931
1946,1927,1889
1989,1965,1934
2046,2027,1983
2000,1969,1915
1942,1911,1859
1987,1953,1913
2055,2006,1973
2009,1974,1937
1943,1906,1867
1973,1937,1904
2033,2003,1970
2003,1972,1925
1943,1910,1857
1983,1959,1913
2047,2019,1975
2000,1970,1916
1936,1917,1843
1978,1951,1898
2045,2015,1969
2002,1993,1919
1936,1920,1854
1973,1959,1907
2043,2030,1972
2000,1969,1907
1929,1909,1856
1969,1951,1902
2034,2013,1968
2002,1970,1920
1943,1925,1849
1972,1967,1903
2046,2029,1966
1998,1981,1923
1936,1910,1855
1971,1950,1903
2035,2013,1967
2000,1971,1920
1939,1914,1854
1974,1950,1909
2033,2012,1969
1997,1998,1915
1936,1917,1857
1968,1934,1906
2017,1994,1970
1985,1972,1918
1935,1926,1855
1987,1951,1918
2042,2010,1977
1997,1987,1921
1927,1923,1845
1968,1957,1904
2032,2019,1973
1996,1980,1921
1936,1926,1866
1965,1957,1914
2032,2005,1967
1987,1983,1920
1938,1930,1857
1982,1952,1892
2032,1999,1962
1984,1975,1922
1938,1923,1851
1982,1954,1897
2033,2022,1965
1986,1975,1925
1926,1929,1855
1971,1968,1904
2037,1990,1966
1999,1957,1920
1932,1911,1855
1970,1948,1906
2046,2003,1966
2006,1984,1916
1949,1925,1865
1983,1954,1911
2055,2009,1961
2002,1981,1919
1937,1922,1850
1973,1954,1904
2037,2012,1971
2000,1987,1925
1936,1938,1856
1985,1975,1904
2047,2009,1967
2012,1984,1921
1951,1924,1856
1982,1950,1904
2039,2014,1968
2007,1989,1923
1951,1927,1859
1986,1949,1909
2041,2006,1967
2004,1982,1906
1953,1934,1841
1987,1968,1919
2047,2022,1990
2013,1997,1933
1942,1935,1856
1978,1966,1905
2039,2018,1969
2005,1981,1927
1945,1920,1856
1978,1949,1911
2035,2013,1969
2006,1984,1920
1941,1931,1867
1980,1947,1917
2042,2005,1979
2007,1986,1935
1945,1920,1861
1974,1952,1909
2037,2029,1983
2005,1983,1925
1943,1917,1859
1975,1950,1918
2040,2013,1986
2006,1987,1934
1946,1927,1855
1994,1953,1904
2063,2054,1975
2019,1995,1946
1946,1921,1871
1977,1936,1910
2042,2021,1991
2003,2027,1931
1937,1949,1856
1974,1946,1904
2033,1990,1979
1994,1971,1936
1936,1961,1869
1975,1957,1909
2035,2016,1983
2001,2000,1935
1941,1942,1869
1978,1930,1909
2045,2066,1968
2006,1997,1931
1941,1955,1867
1981,2003,1921
2035,2055,1982
2001,1963,1934
1948,1930,1865
1983,1989,1917
2055,1999,1989
2023,1986,1943
1956,1934,1884
1983,1958,1917
2043,2031,1974
2011,2001,1922
1937,1886,1858
1974,1930,1910
2054,1977,1978
2013,1996,1940
1947,1934,1875
1968,1923,1904
2036,1971,1971
2007,1971,1936
1954,1936,1874
1988,1943,1929
2060,2009,1983
2014,1986,1927
1941,1943,1863
1979,1961,1911
2043,2000,1971
2019,1957,1936
1951,1921,1870
1975,1936,1910
2041,1997,1968
2016,1997,1929
1961,1981,1863
1984,1919,1904
2042,1968,1968
2014,2023,1937
1951,1922,1872
1975,1947,1909
2045,2018,1973
2018,2004,1917
1955,1930,1859
1987,1949,1905
2043,2000,1973
2010,1987,1935
1950,1904,1871
1984,1937,1911
2041,1979,1974
2016,1990,1933
1939,1902,1853
1977,1943,1903
2055,2031,1995
2031,2006,1951
1958,1905,1878
1975,1963,1904
2045,1991,1973
2025,2026,1936
1954,1929,1861
1984,1939,1904
2043,2022,1979
2019,1971,1946
1957,1941,1873
1984,1965,1911
2061,1969,1984
2021,2016,1941
1958,1935,1869
1983,1937,1906
2054,1971,1968
2021,1984,1942
1952,1911,1874
1972,1937,1906
2035,2017,1970
2011,1974,1937
1953,1925,1869
1978,1935,1907
2041,2041,1984
2013,1942,1943
1951,1949,1869
1981,1981,1917
2045,2029,1977
2007,2001,1942
1931,1935,1875
1968,1936,1913
2038,1996,1967
2015,1987,1933
1949,1923,1878
1983,1934,1916
2042,2009,1973
2003,2001,1925
1945,1957,1871
1979,1946,1904
2046,2000,1979
2017,1933,1950
1954,1990,1872
1971,1968,1891
2037,2000,1971
2011,1984,1943
1946,1916,1871
1983,1946,1911
2055,2007,1968
2017,1985,1946
1942,1919,1872
1973,1950,1904
2037,1989,1969
2010,2065,1936
1946,1939,1873
1974,1922,1908
2037,1959,1982
2003,1955,1939
1946,1947,1872
1984,1898,1908
2041,1999,1979
2016,2005,1934
1956,1926,1863
1978,1951,1904
2045,1998,1975
2030,2034,1936
1961,1979,1863
1968,1925,1899
2042,2011,1968
2021,1999,1936
1958,1952,1872
1984,1926,1904
2041,1984,1959
2022,1975,1927
1951,1936,1854
1970,2018,1887
2038,2000,1968
2007,1979,1925
1943,1930,1869
1973,1895,1904
2039,2000,1966
2003,2006,1933
1939,1915,1857
1968,1920,1895
2038,1990,1970
2003,1987,1940
1931,1910,1869
1962,1939,1898
2031,2001,1967
2015,1984,1942
1945,1918,1872
1966,1933,1899
2019,1993,1959
1998,1993,1929
1933,1950,1866
1954,1945,1901
2023,1999,1968
2005,1974,1933
1936,1903,1871
1968,1952,1913
2033,1999,1975
2003,1999,1937
1938,1925,1866
1968,1953,1904
2033,2016,1973
2006,1991,1936
1936,1945,1856
1962,1936,1886
2043,1995,1962
2015,1984,1922
1937,1956,1867
1967,1936,1904
2028,1978,1966
2011,1997,1930
1941,1904,1869
1967,1942,1895
2027,2000,1968
2014,1999,1940
1947,1926,1867
1962,1930,1883
2023,1993,1943
2003,1986,1919
1951,1923,1869
1977,1938,1887
2032,2005,1956
2010,1979,1926
1947,1898,1843
1974,1907,1893
2035,1989,1959
2010,1983,1921
1936,1917,1856
1957,1937,1886
2031,2000,1964
2010,1980,1932
1943,1921,1867
1968,1941,1908
2032,1995,1968
2016,1986,1936
1949,1930,1867
1966,1946,1904
2033,1987,1959
2001,1975,1923
1936,1918,1868
1963,1936,1904
2031,2000,1964
2007,1983,1930
1937,1930,1853
1953,1923,1901
2032,1994,1970
2011,1993,1937
1938,1927,1870
1966,1949,1902
2032,1999,1963
2012,1980,1938
1949,1924,1864
1963,1937,1899
2025,1997,1968
2008,1979,1933
1938,1919,1869
1955,1941,1904
2020,1995,1959
2010,1995,1932
1951,1950,1871
1968,1942,1904
2032,1990,1968
2013,1985,1941
1946,1934,1872
1965,1957,1897
2017,2007,1959
2003,1968,1931
1937,1920,1870
1962,1930,1892
2026,1999,1968
2001,1984,1943
1934,1929,1872
1950,1945,1905
2032,2002,1972
2009,2001,1936
1937,1947,1861
1958,1936,1904
2032,2000,1975
2010,2000,1945
1936,1935,1869
1951,1945,1889
2019,2000,1951
2000,1984,1931
1936,1927,1869
1957,1943,1899
2029,2000,1959
2017,1999,1956
1937,1925,1882
1954,1936,1891
2031,2003,1959
2015,1998,1945
1938,1934,1872
1956,1955,1895
2020,1991,1965
2003,1974,1936
1931,1915,1862
1951,1929,1897
2028,1997,1961
2004,1984,1929
1936,1920,1850
1955,1938,1898
2021,2010,1968
2007,2000,1936
1942,1936,1865
1963,1943,1886
2023,2007,1951
2001,1989,1913
1932,1919,1856
1954,1934,1896
2029,2012,1958
2006,1999,1929
1937,1911,1866
1961,1930,1890
2025,1995,1961
2005,1991,1947
1936,1923,1871
1950,1935,1881
2019,1997,1955
2010,1992,1932
1941,1923,1866
1963,1934,1893
2017,1997,1958
2003,1987,1936
1936,1926,1866
1947,1936,1886
2018,1989,1963
2014,1983,1929
1946,1935,1870
1973,1969,1911
2032,2001,1982
2014,1971,1933
1936,1904,1861
1953,1930,1888
2013,1990,1961
2007,1985,1931
1947,1933,1872
1962,1939,1903
2025,2000,1969
2013,1999,1951
1942,1923,1867
1951,1934,1887
2021,2000,1968
2009,1991,1933
1950,1938,1875
1959,1936,1904
2023,1994,1963
2010,1985,1935
1939,1933,1858
1955,1929,1893
2027,1981,1960
2015,1989,1924
1936,1931,1859
1949,1936,1898
2021,1994,1963
2015,2003,1951
1946,1935,1873
1956,1921,1897
2027,1994,1968
2001,1989,1929
1932,1919,1853
1951,1930,1888
2027,1993,1957
2013,1983,1909
1939,1919,1863
1957,1938,1906
2028,2003,1969
2019,2000,1945
1954,1915,1868
1955,1929,1886
2031,1999,1966
2021,1997,1938
1947,1936,1870
1963,1940,1894
2030,2000,1958
2013,1991,1925
1940,1925,1861
1959,1931,1899
2032,2001,1969
2021,1989,1945
1949,1919,1845
1966,1931,1898
2025,2000,1969
2003,2000,1951
1938,1933,1875
1967,1925,1900
2032,1993,1968
2016,2002,1949
1946,1926,1875
1955,1929,1906
2028,1984,1993
2013,1991,1929
1946,1936,1901
1958,1936,1877
2023,1988,1978
2013,1991,1971
1939,1940,1847
1957,1935,1877
2032,1995,1937
2027,1999,1951
1955,1952,1882
1959,1951,1895
2026,1998,1951
2019,1999,1918
1951,1933,1877
1957,1931,1901
2027,1987,1966
2026,1989,1917
1953,1930,1889
1957,1933,1889
2024,1991,1953
2015,1994,1938
1949,1937,1879
1973,1939,1926
2039,2005,1936
2028,1984,1970
1955,1936,1856
1957,1949,1863
2018,2005,1983
2014,1993,1933
1941,1930,1877
1950,1933,1883
2031,2000,1955
2019,1995,1947
1937,1936,1856
1949,1945,1914
2029,2007,1966
2022,1991,1965
1938,1917,1871
1951,1919,1840
2030,1987,1984
2021,1989,1965
1948,1935,1872
1956,1925,1872
2031,1988,1940
2023,1991,1957
1947,1949,1895
1961,1942,1938
2045,1999,1986
2032,1998,1933
1959,1936,1872
1966,1935,1895
2032,1987,1955
2029,1997,1967
1948,1938,1861
1968,1926,1898
2032,1985,1959
2013,1984,1953
1941,1921,1840
1954,1931,1844
2029,1995,1930
2030,1995,1906
1956,1931,1868
1962,1943,1881
2025,2000,1958
2019,1993,1939
1943,1934,1890
1951,1923,1872
2022,1990,1939
2019,1997,1935
1943,1928,1844
1953,1925,1909
2016,1979,1984
2016,1993,1957
1947,1935,1856
1954,1923,1908
2029,1981,1936
2011,1988,1945
1931,1936,1845
1939,1947,1884
2003,1988,1942
1999,1990,1968
1935,1945,1900
1953,1942,1851
2027,1994,1984
2015,1995,1920
1939,1931,1872
1947,1931,1840
2017,2005,1920
2007,2018,1968
1941,1925,1810
1949,1920,1873
2023,1984,1958
2025,1980,1920
1942,1933,1790
1946,1936,1884
2014,1984,1943
2010,1969,1965
1940,1920,1863
1957,1930,1807
2022,1984,1968
2007,1989,1939
1937,1930,1872
1954,1936,1893
2019,1990,1962
2012,1984,1939
1938,1924,1878
1947,1931,1863
2014,1981,1947
2013,1981,1936
1947,1933,1887
1950,1929,1875
2019,1985,1949
2006,1988,1925
1934,1932,1871
1949,1936,1861
2013,1993,2005
2015,1966,1936
1940,1904,1911
1952,1913,1936
2029,1981,1971
2019,1982,1904
1937,1935,1877
1942,1934,1885
2012,1986,1951
2019,1990,1931
1937,1917,1862
1939,1917,1874
2011,1984,1957
2021,1984,1917
1939,1925,1876
1953,1920,1872
2014,1987,1956
2012,1984,1951
1945,1926,1872
1946,1946,1874
2006,2011,1952
2001,2007,1951
1931,1928,1859
1945,1909,1859
2014,1967,1945
2006,1981,1943
1938,1939,1872
1941,1943,1881
2018,1985,1920
2018,1977,1995
1938,1919,1874
1939,1936,1883
2011,1985,1942
2000,1986,1928
1934,1922,1851
1937,1926,1881
2009,1984,1954
2015,1991,1925
1950,1931,1843
1949,1924,1883
2021,1990,1948
2013,1988,1906
1936,1919,1845
1936,1922,1930
2012,1985,1970
2016,1995,1914
1940,1932,1865
1947,1934,1883
2018,1989,1937
2015,1994,1921
1939,1929,1863
1952,1934,1869
2016,2005,1951
2009,2012,1968
1948,1936,1875
1953,1936,1888
2017,1990,1941
2022,1995,1935
1937,1938,1863
1940,1936,1881
2021,1991,1951
2025,1997,1942
1954,1939,1862
1943,1923,1874
2018,1972,1949
2014,1986,1931
1950,1933,1851
1951,1936,1874
2023,2001,1946
