1991,1797,1846
1947,1847,1865
1905,1763,1833
1854,1757,1815
1931,1751,1859
1958,1797,1920
1879,1808,1785
1863,1760,1776
1919,1774,1827
1917,1778,1839
1901,1781,1827
1915,1819,1856
1931,1826,1872
1909,1802,1835
1899,1790,1808
1921,1813,1845
1927,1833,1872
1918,1839,1857
1877,1839,1828
1905,1851,1813
1932,1858,1815
1935,1821,1855
1925,1808,1851
1906,1849,1872
1920,1868,1882
1963,1877,1863
1922,1863,1840
1931,1904,1862
1926,1851,1872
1926,1841,1845
1898,1859,1843
1962,1886,1885
1967,1968,1917
1952,1936,1854
1903,1856,1826
1919,1871,1868
1905,1903,1907
1926,1891,1886
1967,1904,1872
1967,1936,1894
1948,1949,1905
1965,1966,1887
1914,1947,1867
1968,1927,1881
1941,1910,1903
1968,1917,1897
1958,1925,1872
1927,1966,1877
2009,2002,1914
1961,1957,1916
1973,1914,1886
1968,1949,1904
1978,1940,1919
2016,2011,1904
1913,2019,1891
1931,1943,1897
1930,1943,1913
1968,1937,1909
1957,1939,1887
1998,1967,1913
1938,2019,1920
1935,1987,1893
1962,1966,1899
1981,2013,1913
1997,1995,1908
1923,1997,1867
1986,2016,1901
2023,2018,1929
1968,2011,1907
1936,2035,1895
1945,2001,1911
1918,2030,1930
1957,2025,1925
1937,2025,1905
1943,2010,1877
1962,2015,1904
1871,2033,1930
2015,2037,1904
1984,2016,1883
1946,2021,1887
1971,2038,1914
1981,2066,1919
1936,2010,1876
1931,2029,1873
1933,2034,1887
1918,2035,1878
1920,2009,1867
1937,2032,1895
1959,2041,1915
1951,2018,1910
1936,2027,1889
1895,2076,1872
1904,2077,1900
1914,2035,1903
1907,1999,1867
1907,2032,1876
1884,2031,1885
1986,2053,1893
2045,2113,1937
1967,2032,1867
1919,2026,1846
1934,2035,1869
1894,1998,1866
1965,2043,1900
1921,2000,1903
1898,2042,1856
1936,2053,1858
1966,2085,1904
1968,2086,1915
1968,2109,1896
1887,2033,1851
1931,2023,1877
1920,2055,1903
1999,2064,1901
1939,2062,1879
1934,2046,1891
1920,2069,1911
1949,2067,1906
1936,2055,1885
1931,2071,1893
1984,2113,1949
1926,2042,1877
1906,2035,1857
1935,2067,1885
1959,2074,1921
1968,2081,1927
1911,2045,1867
1941,2094,1901
1942,2075,1904
1922,2067,1877
1942,2087,1872
1915,2061,1877
1901,2075,1906
1892,2091,1904
1936,2097,1899
1937,2111,1918
1957,2120,1924
1924,2128,1910
1877,2032,1855
1933,2094,1903
2034,2144,1934
1945,2096,1877
1920,2094,1869
1990,2122,1909
1952,2151,1923
1934,2112,1900
1941,2128,1917
1981,2149,1930
1953,2115,1902
1966,2110,1866
1886,2114,1845
1927,2110,1875
1970,2125,1913
1948,2124,1899
1936,2141,1889
1957,2160,1907
1942,2121,1904
1938,2112,1893
1927,2151,1862
1927,2146,1873
1957,2159,1931
1958,2150,1918
1919,2126,1875
1910,2125,1868
1949,2138,1918
1936,2101,1899
1921,2082,1861
1943,2129,1901
1966,2167,1925
1968,2163,1919
1947,2126,1874
1970,2170,1915
1968,2190,1936
1911,2118,1869
1910,2112,1859
1999,2169,1937
1941,2123,1890
1899,2075,1843
1906,2099,1845
1951,2137,1893
1969,2145,1926
1943,2106,1891
1956,2109,1892
1925,2087,1878
1938,2117,1906
1940,2121,1902
1943,2110,1885
1975,2151,1922
1953,2151,1913
1937,2107,1887
1936,2096,1872
1950,2109,1891
1969,2131,1929
1969,2125,1926
1923,2077,1863
1936,2089,1875
1969,2153,1929
1971,2130,1923
1926,2066,1869
1939,2086,1890
1964,2100,1904
1943,2096,1905
1958,2036,1907
1995,2160,1943
1968,2112,1933
1927,2064,1885
1927,2066,1869
1968,2081,1904
1973,2077,1934
1985,2122,1938
1958,2087,1903
1938,2079,1893
1951,2094,1918
1970,2127,1932
1949,2014,1886
1943,2061,1895
1971,2091,1936
1994,2096,1942
1954,2064,1891
1968,2103,1907
1978,2118,1926
1968,2091,1907
1971,2069,1901
2005,2107,1935
1995,2102,1947
1967,2059,1915
1953,2044,1887
1979,2064,1910
2004,2099,1953
2015,2127,1965
1966,2082,1895
1936,2030,1871
1973,2044,1924
1985,2086,1933
1968,2017,1895
1985,2087,1915
2002,2125,1955
1967,2086,1917
1953,2032,1893
1983,2053,1921
2020,2095,1967
2011,2093,1942
1965,2046,1886
1974,2052,1907
2000,2066,1945
1993,2065,1927
1968,2064,1904
1984,2059,1919
2009,2065,1952
2005,2081,1935
1978,2064,1903
2000,2074,1938
1998,2074,1943
1977,2059,1914
1978,2032,1893
1998,2077,1929
2009,2087,1968
2002,2059,1941
1994,2047,1915
2030,2111,1953
2043,2131,1980
1955,2020,1894
1947,1991,1870
1995,2047,1926
2015,2078,1961
2001,2032,1936
1989,2011,1914
2019,2053,1949
2031,2078,1959
2015,2057,1958
1974,2017,1916
1990,2038,1932
2010,2067,1964
2001,2089,1945
2004,2053,1926
2027,2070,1961
2001,2026,1953
1991,2000,1929
1983,2021,1911
2019,2055,1947
2045,2077,1982
2032,2065,1967
2011,2035,1934
2010,2025,1943
2028,2061,1972
2011,2032,1939
2000,2029,1911
2058,2087,1977
2064,2075,1999
1985,1984,1925
1968,1991,1891
2023,2041,1951
2069,2073,2003
2033,2055,1973
1981,2004,1904
1995,2010,1921
2053,2067,1975
2037,2086,1973
1985,2000,1913
2010,2011,1936
2032,2045,1970
2021,2024,1956
2015,2006,1931
2027,2045,1935
2032,2016,1957
2020,2033,1951
2004,2037,1930
2034,2059,1965
2029,2031,1966
2020,2025,1942
2000,2014,1922
2031,2014,1946
2053,2033,1977
2030,2023,1964
2001,2003,1922
2018,2027,1929
2030,1998,1964
2033,2037,1964
2016,2035,1938
1999,2006,1914
2029,2033,1967
2011,2019,1950
2004,2026,1927
2043,2032,1955
2033,2059,1958
2019,1991,1951
1998,1979,1910
2007,2023,1923
2038,2026,1968
2031,2013,1967
2013,1995,1936
2022,1979,1947
2059,2052,1984
2045,2074,1967
2012,2047,1918
2031,2002,1949
2015,1985,1942
2003,2003,1930
2021,2031,1938
2035,2000,1968
2059,2032,1987
2025,1978,1947
2007,2038,1914
2023,2000,1924
2062,2079,1968
2060,2064,1978
2000,1941,1904
2014,1999,1911
2039,2027,1972
2023,1963,1946
2033,2013,1946
2032,2064,1950
2034,2017,1963
2023,2015,1933
2018,1976,1915
2059,2019,1939
2043,2002,1955
2032,1963,1947
2025,2016,1910
2045,2083,1943
2067,2100,1985
2059,2017,1967
2043,2000,1936
2032,2000,1930
2029,2004,1942
2007,1981,1921
2005,1987,1910
2046,2013,1943
2065,2000,1965
2034,1996,1929
2017,1995,1904
2041,2011,1933
2059,2017,1963
2053,2010,1949
2046,2041,1937
2021,1970,1926
2039,2032,1951
2058,2000,1950
1995,1979,1882
2015,1977,1905
2058,1977,1966
2047,2020,1943
2032,1997,1924
2063,2026,1952
2041,2011,1953
2039,1936,1927
2025,2021,1895
2031,1994,1907
2045,1971,1957
2039,1972,1949
2053,2029,1950
2065,2045,1937
2064,2042,1955
2006,1916,1906
1995,1949,1882
2032,2025,1933
2074,2037,1984
2036,2000,1909
2025,1949,1905
2064,1967,1974
2046,1984,1966
2015,1974,1919
2023,1968,1916
2064,1987,1953
2035,1964,1936
2021,2002,1919
2063,2000,1934
2064,2005,1946
2031,1923,1938
2031,1900,1955
2011,1921,1887
2042,1993,1921
2083,1993,1984
2077,1929,1985
2035,1970,1911
2026,1970,1897
2064,1936,1967
2055,1976,1953
2039,1990,1932
2066,1987,1958
2057,1938,1965
2031,1957,1936
2011,1904,1887
2042,1909,1933
2091,1933,1995
2092,2032,1983
2007,1906,1872
2034,1911,1914
2068,1872,1946
2019,1889,1919
2025,1913,1918
2036,1965,1915
2066,2005,1942
2067,2012,1958
2037,1942,1919
2045,2019,1923
2069,1978,1970
2081,1980,1983
2034,1993,1936
2023,1922,1915
2081,2006,1971
2039,1998,1937
2023,1967,1919
2064,2006,1952
2077,2032,1978
2047,1998,1935
2029,1964,1919
2059,2065,1946
2096,2113,2000
2045,2026,1959
2030,2055,1920
2032,2034,1915
2057,2033,1952
2064,1994,1965
2056,2058,1968
2074,2160,2070
2061,2021,2146
2022,1984,2173
2021,1998,2190
2045,2057,2245
2063,1938,2321
2047,2096,2344
2033,2100,2339
2042,2031,2361
2033,2018,2375
2029,2032,2384
2017,2021,2371
2018,2014,2384
2030,2090,2413
2022,2041,2407
2011,2015,2381
2023,2102,2400
2043,1973,2437
2025,2077,2419
2001,2032,2385
2007,2032,2400
2030,2019,2417
2006,2070,2411
1999,2080,2369
2003,2043,2365
2013,2041,2391
2000,2063,2389
1995,2033,2365
1997,2032,2359
1998,2035,2358
1998,2075,2356
2027,2078,2367
2037,2035,2367
2043,2087,2381
2028,2039,2346
2000,2018,2305
2005,2030,2307
2016,2039,2347
2014,1999,2331
2018,2107,2305
2015,2038,2288
2009,1994,2315
1990,2044,2295
2014,2023,2288
2030,1994,2293
2030,1967,2301
2012,2000,2270
1985,2030,2210
2007,1969,2243
2054,2005,2290
2032,2001,2268
1979,1963,2198
1991,1972,2207
2047,1987,2256
2046,1981,2241
2012,1968,2192
2006,1967,2186
2021,1970,2202
2000,1952,2186
1984,1888,2153
1991,1887,2153
2007,1904,2153
2003,1904,2147
1985,1861,2118
1990,1862,2118
2002,1883,2140
1993,1857,2115
1981,1830,2085
1982,1872,2091
1998,1900,2123
2000,1878,2128
1997,1840,2074
1994,1857,2062
2007,1874,2091
1991,1845,2118
1971,1831,2047
1979,1840,2008
1988,1817,2034
1969,1826,2002
1975,1815,1999
2010,1821,2017
2023,1843,2038
1993,1838,2022
1978,1813,2027
1990,1824,2018
2023,1836,2109
1997,1809,1951
1968,1823,1865
1975,1834,1898
1991,1837,1955
1987,1819,1964
1989,1808,1953
1984,1817,1917
1963,1811,1899
1984,1814,1921
2022,1808,1940
2029,1835,1946
2026,1851,1962
2005,1822,1937
2000,1790,1893
2000,1783,1888
2001,1879,1910
1998,1863,1913
1998,1779,1917
1997,1803,1872
2007,1838,1875
2014,1840,1882
2012,1830,1952
2035,1819,2031
2026,1802,1823
2014,1829,1762
1987,1807,1807
2003,1799,1817
2019,1801,1833
2022,1843,1858
2019,1872,1872
2017,1827,1853
2031,1779,1839
2031,1747,1815
2010,1771,1805
2027,1868,1873
2029,1856,1843
2016,1786,1771
2006,1789,1760
2017,1807,1795
2039,1859,1856
2032,1898,1825
2011,1777,1792
2023,1817,1817
2041,1797,1821
2047,1808,1815
2054,1747,1861
2037,1797,1808
2026,1914,1763
2023,1894,1755
2014,1835,1776
2027,1835,1783
2053,1844,1776
2059,1859,1792
2029,1847,1789
2026,1808,1793
2055,1823,1795
2054,1822,1833
2042,1834,1823
2053,1885,1792
2042,1822,1772
2043,1791,1765
2031,1866,1766
2043,1845,1821
2047,1870,1829
2043,1858,1751
2022,1836,1704
2034,1855,1767
2065,1852,1805
2064,1843,1807
2057,1856,1837
2062,1857,1823
2066,1872,1761
2043,1937,1801
2026,1862,1755
2033,1839,1739
2067,1869,1791
2080,1871,1813
2039,1862,1744
2039,1875,1744
2063,1904,1789
2064,1886,1802
2075,1851,1811
2070,1882,1827
2063,1920,1763
2054,1888,1770
2033,1829,1712
2037,1904,1719
2067,1934,1789
2075,1902,1829
2053,1884,1876
2038,1909,1738
2057,1927,1713
2047,1889,1748
2032,1872,1775
2041,1914,1775
2068,1933,1817
2054,1909,1775
2032,1883,1822
2032,1878,1746
2057,1901,1721
2042,1911,1751
2025,1912,1789
2034,1931,1771
2062,1937,1796
2059,1930,1775
2037,1915,1747
2038,1923,1783
2071,1936,1834
2059,1940,1808
2031,1937,1759
2026,1920,1731
2054,1935,1755
2057,1941,1764
2038,2000,1791
2034,1946,1817
2046,1915,1822
2047,1907,1774
2057,1906,1709
2032,1951,1754
2040,1980,1855
2042,1934,1855
2032,1922,1778
2033,1969,1763
2046,1963,1810
2055,2000,1821
2021,1954,1785
2039,1903,1803
2043,1941,1781
2032,1978,1796
2018,1968,1795
2047,2000,1875
2064,2023,1855
2023,1907,1785
2032,1904,1745
2035,1951,1744
2037,1950,1766
2060,1955,1780
2035,2007,1789
2017,2007,1853
2043,1969,1852
2041,1975,1824
2018,1991,1802
2025,1991,1787
2032,1984,1815
2043,1975,1857
2032,1966,1821
2023,1939,1791
2038,1966,1808
2021,1968,1789
2022,1968,1809
2032,1984,1826
2043,2010,1831
2019,1951,1870
1997,1939,1827
2005,1982,1815
2034,2010,1856
2031,2014,1836
2015,1968,1811
2014,1965,1811
2032,1990,1802
2031,2003,1873
2011,1988,1813
2015,1957,1827
2028,1986,1861
2025,1984,1860
2000,1967,1807
2010,1969,1867
2031,1999,1853
2023,2001,1862
2000,1975,1826
2006,1988,1819
2019,2006,1866
2013,1989,1831
1996,1970,1805
2001,1964,1836
2011,2003,1843
2003,2007,1840
1995,2019,1840
2000,1963,1833
2014,1965,1853
2015,1971,1868
2001,1968,1842
2004,1980,1847
2032,1998,1856
2023,1990,1871
2005,1984,1846
2014,1982,1850
2037,1990,1869
2042,2083,1912
2017,2034,1841
2005,1924,1879
2022,1925,1890
2034,1957,1905
2029,1961,1839
2031,1975,1847
2044,1979,1886
2038,1987,1893
2027,1991,1878
2026,2009,1860
2036,1983,1886
2032,1970,1929
2019,1982,1862
2023,1990,1857
2033,2000,1870
2037,1989,1945
2017,1971,1866
2022,1974,1905
2039,1989,1860
2043,1994,1913
2023,1984,1895
2032,1987,1885
2042,1989,1947
2035,1990,1913
2026,1979,1902
2030,2030,1874
2037,2009,1889
2035,1965,1898
2030,1947,1878
2037,2031,1879
2032,1984,1894
2026,1980,1911
2015,1961,1869
2017,2000,1879
2032,2017,1898
2039,1957,1924
2025,1954,1922
2022,1981,1901
2039,2000,1951
2035,2006,1922
2026,1986,1907
2036,1985,1941
2055,2032,1953
2039,2029,1899
2025,1967,1905
2030,1978,1891
2047,2015,1923
2058,1991,1932
2032,1970,1899
2038,1983,1904
2061,2014,1939
2053,2019,1953
2035,1999,1936
2043,1998,1933
2062,1987,1914
2047,2026,1939
2031,1994,1915
2032,1991,1922
2045,2005,1945
2055,2003,1947
2032,1989,1902
2034,2001,1936
2064,2030,1977
2043,2012,1958
2025,1987,1910
2028,2001,1923
2047,2005,1966
2043,2007,1957
2022,2007,1927
2031,2009,1921
2047,2017,1950
2047,2017,1951
2030,2017,1910
2037,2035,1947
2035,2029,2000
2032,2000,1936
2022,1989,1925
2027,2000,1926
2045,2015,1936
2040,2026,1954
2015,2001,1920
2015,2013,1922
2038,2033,1917
2043,2032,1948
2029,2007,1894
2031,2017,1934
2043,2029,1954
2053,2018,1968
2028,2004,1909
2031,2009,1936
2046,2033,2000
2038,2035,1968
2021,2013,1935
2025,2003,1909
2040,2023,1942
2032,2030,1936
2021,2015,1903
2027,2017,1922
2037,2025,1938
2042,2019,1941
2015,1993,1882
2022,2013,1911
2037,2031,1936
2039,2023,1950
2027,2002,1904
2018,2004,1910
2034,2062,1964
2033,2031,1962
2023,1984,1906
2014,1985,1903
2043,2005,1965
2043,2036,1961
2013,2022,1916
2019,2004,1894
2047,2004,1962
2058,2003,1931
2007,2022,1931
2017,2034,1959
2037,2007,1968
2046,1983,1970
1991,1965,1841
1996,1993,1887
2045,2027,2035
2047,2029,1967
2025,2015,1897
2016,2001,1919
2035,2014,1999
2028,2013,1951
1990,1998,1872
2026,2023,1958
2063,2060,1984
2035,2022,1935
2003,1989,1919
2015,1986,1902
2045,2007,1949
2061,2054,1984
2030,2032,1929
2011,1997,1919
2032,1999,1935
2039,2013,1933
2032,1995,1941
2035,2015,1933
2035,2002,1943
2030,2001,1943
2014,1995,1920
2022,2006,1910
2042,2022,1951
2047,2001,1958
2020,1987,1923
2019,2011,1920
2043,2057,1978
2033,2032,1941
2015,2005,1898
2015,2026,1911
2031,2018,1953
2031,2016,1951
2017,2002,1925
2023,1999,1919
2033,2011,1946
2033,2026,1949
2013,2001,1919
2023,2006,1925
2059,2065,1973
2028,2022,1953
2003,1984,1919
2001,1991,1904
2031,2005,1934
2023,2017,1963
2000,2002,1935
1990,1965,1931
2052,1998,1967
2073,2038,1952
1973,2015,1917
2000,1987,1905
2007,2007,1937
1990,2017,1953
2033,1983,1920
2005,1984,1915
2096,2007,1949
2047,2021,1966
2021,1967,1899
1954,1970,1890
1999,2000,1936
2061,2016,1968
2035,1958,1917
2014,1952,1901
2065,1977,1940
2041,1984,1939
2006,1963,1920
2019,2020,1926
2031,2006,1943
2022,1985,1927
2011,1970,1904
2032,2012,1933
2015,2005,1955
1968,1949,1907
1966,1927,1883
2032,1963,1897
2030,1991,1943
2029,1995,1938
2017,1975,1911
2014,1984,1907
2000,1997,1941
2031,1997,1954
2022,1996,1932
2021,1996,1914
2016,1974,1913
2015,1979,1936
2015,1972,1907
2013,1977,1905
2085,2012,1939
1999,2013,1942
2021,1983,1913
2000,1999,1920
2035,1984,1943
2081,1980,1946
1995,1999,1893
2009,2000,1898
1999,1994,1935
2004,1986,1946
2000,1987,1914
2005,1991,1910
2028,1999,1938
2029,1991,1947
1994,1979,1909
1990,1973,1901
1984,2019,1933
2027,2027,1940
2009,1975,1905
2010,1964,1913
2030,1991,1936
2047,1994,1929
1958,1985,1915
2026,1977,1919
1998,1973,1923
2000,1991,1920
1984,1970,1904
2009,1983,1904
2059,2006,1937
2011,1984,1954
1988,1992,1914
2003,1979,1899
2014,1999,1937
2021,2000,1947
2020,1991,1914
2031,1997,1908
2033,2003,1948
2037,1983,1940
2029,1955,1904
1983,1974,1902
1994,2006,1939
2035,2023,1954
1971,2000,1922
1984,1993,1904
1998,2027,1933
1986,1998,1954
1975,1965,1913
2002,1981,1904
2035,2001,1951
1999,2058,1951
1985,1975,1890
1966,1968,1890
2005,2023,1937
2029,1993,1954
2017,1993,1916
1997,2003,1904
1965,2021,1940
2019,2011,1946
2000,1998,1919
2001,2007,1920
1911,2018,1939
2000,2015,1947
1936,1998,1919
2000,2000,1910
2017,2027,1945
2017,2038,1957
1994,1989,1939
2000,1949,1918
2017,2003,1939
2032,2022,1953
2011,2019,1926
2011,1993,1931
2029,1994,1939
2030,1989,1950
2014,1983,1906
2000,1986,1909
2037,2038,1945
1962,2038,1959
1986,2010,1932
1994,1982,1915
2044,1986,1939
2036,2022,1957
2011,1999,1920
2069,1956,1919
2004,2035,1949
2047,2058,1943
1947,1983,1911
1983,1970,1907
2045,2005,1941
2084,2018,1955
1974,2000,1909
1998,2005,1905
2074,2017,1939
2012,2029,1952
2005,2000,1917
2003,1988,1918
2017,1995,1931
2093,2011,1939
2016,2005,1918
2017,2004,1922
2037,1999,1966
1973,1967,1933
2013,2021,1900
2019,1990,1892
2017,2015,1930
2000,2037,1943
2011,1985,1917
2064,1985,1903
2032,2015,1926
2034,2016,1950
2010,2016,1906
2010,1993,1904
2029,1983,1930
2031,2002,1936
2012,2006,1916
2001,2003,1907
2015,2006,1936
2032,2008,1936
2013,2000,1901
1965,1982,1893
2020,1995,1916
2031,2031,1949
2017,2006,1920
2002,2006,1903
1982,2015,1931
2032,2018,1939
1980,2002,1914
2036,2045,1920
2015,1999,1915
2014,1986,1930
1957,1989,1908
2012,1997,1903
2032,1995,1927
2037,2001,1938
2014,1989,1919
2019,1997,1904
2015,2013,1930
2042,2007,1946
2022,2000,1919
2021,2010,1915
2019,2043,1922
2026,2023,1937
2009,2001,1919
2006,1990,1904
2025,2018,1931
2037,2017,1951
2017,1981,1915
2005,2007,1888
2034,2032,1935
2038,2031,1961
2032,2032,1937
2009,2007,1904
2019,2006,1916
2028,2007,1935
2015,2007,1917
2013,2020,1912
2031,2060,1942
2044,2011,1971
2009,1995,1918
1995,2015,1892
2018,2033,1930
2038,2061,1968
2015,2005,1918
2010,1999,1908
2032,2021,1936
2043,2030,1962
2030,2019,1931
2029,2033,1918
2027,2055,1936
2029,2034,1939
2007,2023,1915
2009,2031,1906
2035,2044,1943
2053,2042,1968
2047,2032,1954
1993,1977,1891
1999,2011,1902
2011,2029,1927
2009,1990,1920
2010,2031,1903
2031,2059,1931
2032,2066,1943
2018,2032,1919
2012,2032,1911
2023,2041,1935
2032,2031,1941
2023,2031,1926
2010,2045,1905
2015,2032,1918
2018,2026,1936
2003,2011,1919
1998,2030,1904
2029,2063,1941
2065,2086,1979
2007,2007,1908
1979,2010,1878
2011,2061,1929
2025,2060,1947
2010,2038,1913
2002,2032,1903
2029,2054,1933
2038,2059,1954
2019,2054,1925
2001,2032,1910
2028,2022,1942
2031,2038,1947
2022,2039,1925
2011,2038,1909
2022,2032,1921
2031,2038,1950
2013,2032,1933
2019,2064,1933
2033,2021,1938
2001,2019,1925
2001,2027,1901
2003,2029,1898
2025,2053,1937
2035,2046,1953
2018,2042,1907
2011,2014,1903
2031,2041,1930
2039,2054,1941
2019,2027,1920
2023,2031,1904
2036,2057,1930
2037,2063,1939
2021,2059,1924
2019,2030,1903
2043,2054,1937
2033,2057,1945
1998,2005,1894
2001,2011,1898
2042,2078,1943
2024,2037,1927
2007,2026,1907
2005,2019,1917
2034,2032,1941
2022,2013,1922
2000,2015,1893
2000,2022,1895
2030,2065,1938
2021,2058,1936
2001,2043,1905
1994,2027,1895
2021,2027,1925
2030,2032,1951
2002,2031,1921
1997,2031,1895
2015,2018,1923
2025,2023,1939
2004,1999,1911
2000,2055,1904
2022,2064,1939
2039,2046,1967
1993,1987,1886
1990,1999,1872
2018,2022,1918
2032,2031,1948
2013,1999,1917
2013,2002,1904
2031,2027,1936
2045,2014,1961
2025,2000,1920
2015,2014,1903
2031,2005,1932
2034,2040,1942
2021,1997,1920
2021,1991,1917
2032,2009,1950
2038,2012,1954
2031,2017,1936
2045,2027,1933
2016,2003,1914
2021,1994,1923
2017,2017,1918
2017,2010,1903
2032,2025,1926
2045,2032,1957
2032,2041,1934
2019,2023,1904
2032,1977,1925
2045,1987,1942
2027,1995,1919
2025,1995,1899
2046,2007,1936
2053,2003,1947
2031,2000,1915
2020,2000,1908
2032,2019,1938
2039,2000,1949
2027,2000,1922
2023,2010,1901
2034,1987,1930
2053,2019,1936
2038,2019,1921
2019,1957,1907
2025,1970,1931
2035,1984,1946
2027,1966,1920
2019,1974,1920
2028,1997,1927
2032,2001,1934
2023,1983,1917
2010,1983,1909
2027,1982,1936
2033,1981,1958
2015,1968,1930
2010,1979,1907
2025,2007,1925
2032,1955,1943
2022,1953,1916
2013,1975,1907
2043,2012,1941
2077,2017,1970
2010,1874,1915
1995,1935,1893
2029,2019,1933
2059,2032,1973
2019,1947,1921
2004,1987,1904
2031,1975,1933
2046,1932,1958
2026,1936,1936
2017,1920,1919
2038,2029,1947
2037,2017,1947
2027,1926,1918
2019,1953,1910
2031,1956,1931
2040,2011,1951
2021,1957,1934
2007,1970,1907
2029,1968,1930
2032,1968,1951
2013,1949,1920
2016,1940,1899
2030,1965,1938
2032,1975,1964
2015,1920,1935
2015,1950,1921
2027,1991,1939
2039,1963,1954
2019,1971,1931
2006,1968,1904
2023,1968,1933
2032,1969,1952
2039,1938,1950
2003,1890,1903
2006,1933,1910
2022,1956,1935
2024,1910,1920
2017,1957,1914
2032,1985,1942
2042,1969,1956
2027,1967,1936
2009,1937,1913
2030,1943,1936
2032,1943,1955
2021,1997,1929
2011,1938,1906
2025,1944,1943
2039,1984,1955
2016,1957,1922
2014,1915,1904
2026,1957,1937
2041,1973,1955
2027,1960,1923
2021,1973,1909
2038,1964,1939
2054,1955,1956
2031,1951,1929
2013,1872,1904
2021,1924,1934
2037,1971,1953
2023,1922,1927
2021,1964,1915
2034,1974,1929
2043,1983,1952
2023,1903,1931
2014,1963,1914
2032,1930,1934
2034,1946,1945
2015,1931,1923
2012,1945,1907
2036,1984,1936
2046,2015,1951
2018,1957,1919
2006,1923,1897
2032,1945,1930
2041,1947,1948
2018,1968,1923
2009,2000,1910
2032,1984,1945
2027,1999,1945
2000,1939,1907
1997,1927,1891
2023,1958,1929
2046,1984,1951
2027,1949,1920
2017,1923,1904
2031,1931,1931
2043,1952,1946
2020,1961,1911
2007,1927,1903
2042,1923,1936
2066,1947,1966
2029,1967,1925
2013,1967,1898
2023,1936,1919
2036,1978,1936
2015,1975,1918
2016,1942,1903
2035,1987,1937
2047,1969,1950
2031,1978,1925
2021,1936,1904
2041,1979,1936
2045,1968,1963
2023,1936,1931
2006,1951,1900
2027,1898,1934
2037,1983,1955
2029,1951,1930
2015,1929,1915
2038,1967,1936
2042,2007,1950
2021,1967,1920
2025,1949,1910
2036,1971,1936
2017,1949,1940
2001,1968,1915
2011,1941,1891
2033,1956,1933
2044,2078,1958
2018,2002,1922
2010,1964,1898
2023,1984,1922
2039,1958,1962
2021,1949,1935
2007,1966,1904
2028,1953,1932
2038,1951,1947
2031,1991,1929
2013,1971,1904
2028,1985,1933
2052,1973,1951
2025,2000,1925
2007,1984,1902
2032,1953,1923
2041,1986,1932
2032,1994,1933
2018,1950,1925
2030,1962,1933
2018,1962,1934
2005,1956,1920
2011,1958,1903
2026,1991,1926
2053,1957,1955
2037,1930,1931
1999,1943,1894
2009,1954,1914
2027,1962,1936
2020,1956,1918
2019,2015,1914
2036,1934,1936
2038,1964,1943
1989,1965,1894
1986,1951,1878
2020,1983,1918
2041,1983,1960
2021,1905,1922
2009,1931,1903
2027,1972,1927
2045,1987,1959
2023,1953,1930
2002,1946,1889
2023,1972,1922
2032,1953,1955
2025,1976,1929
2019,1977,1911
2013,1978,1920
2027,1919,1937
2032,1936,1936
2000,1968,1901
2023,2014,1929
2055,2019,1974
2005,2001,1918
1993,1973,1903
2014,1977,1934
2027,1968,1943
2014,1973,1929
2001,1981,1920
1998,1968,1925
2009,1981,1936
2000,1971,1914
1995,1957,1904
2016,1977,1917
2029,1998,1943
2010,1984,1922
1991,1910,1899
1993,1927,1914
2031,2021,1950
2005,1989,1918
1995,1981,1907
2021,1947,1941
2032,1995,1955
1999,1968,1915
1991,1957,1899
2004,1979,1911
2027,2027,1941
2007,2002,1923
1988,1923,1882
2011,1947,1911
2035,1985,1956
2032,1985,1938
1990,1950,1885
2011,1946,1929
2042,2032,1968
2005,1983,1919
1974,1965,1883
1987,1979,1908
2015,1989,1938
2005,1981,1925
2006,1991,1918
2015,1999,1936
2019,1999,1943
1998,1970,1904
2000,1975,1897
2004,1988,1920
2019,1950,1938
2001,1963,1919
2011,1990,1911
2002,1982,1919
1984,1967,1920
1970,1935,1887
1980,1947,1893
2014,1991,1930
2019,1969,1952
2015,2009,1936
1977,1974,1891
1982,1994,1902
2004,1971,1926
1990,1947,1905
1979,1964,1884
1994,1974,1904
2015,1984,1939
2003,1997,1920
1990,1974,1897
1999,1973,1917
2019,1984,1939
2005,1982,1919
1994,1968,1898
2011,1998,1921
2053,2044,1966
2007,1983,1919
1968,1933,1877
1993,1995,1903
2003,2000,1921
2005,1983,1920
2011,1999,1918
2005,2008,1920
2015,1983,1930
2005,1974,1907
2001,1981,1894
2025,2000,1922
2031,2032,1949
2000,1971,1917
2000,1984,1909
2010,2011,1925
2032,2027,1939
2027,2007,1936
1987,1936,1898
2011,1990,1922
2018,2032,1936
2018,2023,1932
2001,2011,1910
2003,2009,1925
2023,2032,1947
2019,1998,1937
2011,1981,1911
2017,2000,1918
2032,2016,1945
2010,1997,1923
2000,1990,1901
2015,2009,1926
2055,2057,1963
2025,2006,1931
1998,1977,1906
2017,1997,1932
2055,2021,1973
2007,1981,1927
1998,2000,1904
2004,1997,1919
2018,2009,1949
2007,2032,1939
2018,2027,1935
2015,1999,1939
2016,1999,1943
2000,1986,1921
1994,1983,1895
2007,2032,1920
2034,1998,1949
2012,1979,1921
2002,1981,1903
2018,2003,1927
2029,2013,1936
2003,1984,1920
1996,1973,1901
2013,2010,1930
2054,2032,1967
2031,1997,1939
1987,1955,1878
2018,1962,1921
2033,1987,1951
2009,2021,1922
1985,1975,1904
2015,2003,1927
2035,2020,1957
2019,2000,1937
2001,1987,1902
2020,2005,1925
2032,2028,1962
2017,1991,1937
1997,1968,1913
2003,1997,1936
2025,2007,1955
2013,2000,1936
2000,1996,1915
2026,1998,1937
2037,2029,1959
2029,1982,1930
2003,1997,1904
2013,1995,1934
2026,2012,1957
2014,1991,1936
2000,2011,1909
2027,2031,1931
2029,2045,1948
2025,1999,1937
2009,1983,1919
2007,1985,1917
2028,2000,1941
2022,1995,1933
1997,1969,1907
2018,1997,1935
2035,2026,1955
2019,2018,1936
2000,1968,1906
2011,1969,1930
2028,2023,1958
2018,1991,1936
2000,2007,1907
2027,2006,1941
2035,1989,1963
2029,1989,1943
2031,1993,1929
2003,1969,1907
2021,1993,1939
2014,1983,1920
2001,1949,1917
