1920,1915,1863
1937,1931,1874
1954,1964,1901
1942,1943,1891
1917,1904,1859
1924,1923,1872
1946,1897,1906
1936,1914,1889
1919,1898,1845
1935,1885,1862
1951,1907,1904
1942,1931,1899
1915,1903,1862
1927,1901,1872
1957,1904,1904
1942,1914,1895
1911,1802,1867
1924,1937,1887
1942,1952,1915
1931,1930,1902
1904,1917,1854
1920,1920,1872
1942,1919,1907
1934,1921,1899
1903,1913,1869
1919,1903,1872
1939,1929,1906
1933,1928,1892
1907,1917,1857
1919,1923,1870
1949,1926,1899
1936,1919,1888
1906,1914,1856
1916,1922,1872
1945,1931,1899
1931,1927,1877
1905,1919,1851
1921,1919,1872
1939,1926,1903
1934,1913,1883
1904,1912,1855
1917,1915,1873
1945,1921,1902
1936,1913,1879
1904,1904,1841
1907,1911,1865
1927,1919,1897
1921,1905,1879
1904,1901,1843
1917,1911,1853
1932,1919,1889
1917,1909,1873
1899,1904,1837
1905,1913,1845
1932,1920,1888
1915,1907,1872
1886,1900,1840
1904,1904,1845
1922,1908,1878
1913,1904,1883
1894,1895,1849
1903,1904,1858
1931,1904,1890
1915,1898,1887
1890,1901,1849
1904,1905,1862
1927,1907,1897
1924,1904,1881
1901,1899,1840
1917,1905,1856
1937,1911,1886
1925,1911,1870
1904,1903,1841
1906,1911,1860
1935,1927,1891
1923,1906,1877
1902,1903,1840
1909,1915,1861
1933,1918,1892
1924,1909,1874
1905,1904,1855
1917,1908,1871
1936,1918,1895
1926,1909,1873
1899,1899,1840
1907,1904,1866
1929,1911,1898
1916,1918,1882
1897,1907,1843
1904,1915,1860
1926,1926,1903
1914,1917,1885
1889,1905,1851
1903,1919,1856
1930,1919,1893
1919,1917,1883
1905,1904,1853
1917,1919,1873
1936,1921,1906
1925,1917,1891
1901,1907,1855
1910,1910,1877
1936,1917,1907
1925,1919,1887
1904,1908,1851
1920,1920,1872
1938,1933,1911
1935,1926,1901
1904,1917,1862
1917,1920,1878
1936,1936,1902
1926,1931,1883
1895,1920,1852
1904,1925,1879
1929,1927,1906
1914,1930,1895
1898,1918,1863
1904,1918,1874
1929,1924,1913
1921,1917,1891
1894,1905,1859
1906,1915,1872
1929,1927,1902
1926,1919,1891
1905,1911,1857
1920,1923,1875
1936,1923,1908
1927,1917,1897
1898,1907,1863
1911,1915,1874
1942,1925,1906
1936,1920,1897
1913,1906,1860
1923,1920,1872
1946,1935,1906
1937,1923,1898
1919,1917,1863
1930,1929,1882
1963,1936,1913
1946,1927,1901
1913,1917,1861
1922,1921,1875
1947,1936,1910
1934,1931,1904
1910,1919,1860
1926,1925,1879
1945,1931,1910
1936,1930,1904
1915,1923,1859
1931,1936,1873
1952,1941,1904
1942,1933,1889
1920,1922,1856
1931,1936,1875
1955,1939,1905
1950,1938,1893
1926,1931,1863
1936,1936,1879
1953,1939,1911
1942,1936,1898
1923,1931,1872
1933,1937,1891
1947,1943,1916
1945,1935,1903
1921,1924,1871
1934,1934,1882
1952,1943,1904
1938,1935,1900
1918,1924,1868
1934,1935,1887
1958,1938,1913
1943,1933,1904
1919,1930,1870
1933,1934,1878
1951,1927,1908
1942,1926,1897
1915,1922,1871
1930,1929,1887
1963,1936,1914
1941,1926,1905
1920,1918,1872
1929,1923,1891
1955,1936,1918
1949,1927,1909
1924,1921,1871
1939,1936,1887
1951,1935,1920
1948,1927,1905
1922,1922,1887
1934,1929,1856
1954,1932,1940
1951,1927,1887
1918,1920,1858
1929,1929,1842
1963,1935,1927
1953,1935,1911
1922,1925,1863
1942,1931,1887
1963,1941,1935
1949,1932,1914
1921,1921,1876
1936,1930,1904
1963,1939,1911
1953,1939,1893
1921,1934,1886
1929,1933,1883
1946,1936,1920
1939,1928,1879
1915,1917,1859
1931,1929,1874
1959,1935,1911
1949,1929,1904
1921,1925,1854
1930,1932,1871
1950,1937,1923
1936,1931,1874
1919,1918,1856
1929,1921,1869
1951,1929,1904
1936,1937,1902
1919,1928,1868
1924,1936,1874
1945,1935,1904
1936,1919,1892
1910,1919,1853
1921,1926,1858
1940,1933,1894
1931,1921,1885
1907,1915,1849
1920,1927,1871
1952,1930,1914
1942,1917,1920
1910,1914,1856
1921,1921,1903
1946,1932,1914
1941,1917,1903
1917,1907,1862
1922,1910,1877
1954,1920,1895
1937,1913,1887
1918,1907,1906
1935,1917,1877
1952,1914,1890
1946,1921,1899
1920,1917,1840
1924,1924,1897
1942,1918,1868
1939,1910,1882
1909,1904,1841
1925,1907,1835
1947,1914,1909
1936,1915,1931
1909,1902,1831
1923,1905,1845
1949,1920,1856
1933,1904,1883
1914,1897,1850
1924,1907,1899
1945,1914,1877
1929,1904,1867
1904,1899,1841
1917,1903,1878
1942,1907,1876
1935,1913,1853
1905,1904,1825
1911,1919,1882
1935,1920,1904
1936,1909,1898
1905,1899,1860
1921,1906,1869
1941,1915,1888
1939,1913,1890
1910,1903,1823
1921,1909,1861
1958,1921,1894
1938,1914,1921
1910,1901,1821
1926,1906,1892
1950,1922,1900
1931,1918,1869
1908,1904,1836
1920,1907,1887
1943,1910,1893
1936,1914,1883
1915,1901,1862
1921,1904,1855
1951,1914,1893
1936,1918,1854
1910,1911,1840
1919,1914,1866
1938,1914,1893
1936,1906,1874
1904,1904,1842
1918,1908,1862
1945,1915,1886
1936,1908,1872
1909,1893,1843
1921,1909,1867
1951,1917,1919
1943,1906,1870
1917,1899,1807
1929,1910,1887
1952,1915,1911
1936,1906,1887
1911,1902,1851
1919,1906,1874
1951,1911,1934
1943,1908,1877
1907,1911,1850
1917,1909,1871
1941,1910,1870
1936,1899,1945
1907,1895,1838
1922,1907,1892
1939,1918,1905
1926,1908,1860
1906,1898,1837
1914,1903,1856
1934,1911,1903
1925,1903,1872
1895,1895,1853
1911,1907,1781
1936,1904,1930
1927,1901,1942
1904,1890,1851
1914,1904,1904
1933,1917,1900
1922,1909,1889
1898,1903,1851
1906,1905,1901
1941,1906,1871
1934,1911,1872
1904,1907,1854
1907,1915,1862
1937,1917,1895
1931,1916,1890
1904,1907,1903
1914,1911,1869
1936,1915,1899
1927,1911,1888
1899,1906,1841
1911,1920,1881
1937,1929,1869
1933,1922,1878
1910,1918,1853
1921,1920,1863
1936,1925,1911
1927,1921,1897
1902,1916,1893
1906,1919,1857
1935,1920,1923
1933,1915,1907
1923,1904,1898
1918,1926,1872
1936,1938,1893
1923,1922,1895
1904,1915,1872
1919,1919,1872
1936,1934,1904
1938,1929,1895
1907,1917,1861
1904,1914,1860
1936,1919,1903
1927,1911,1891
1909,1904,1856
1922,1923,1869
1945,1929,1905
1936,1923,1904
1914,1914,1863
1919,1921,1856
1942,1936,1916
1938,1936,1919
1926,1936,1887
1928,1920,1879
1946,1929,1909
1929,1925,1904
1902,1897,1856
1919,1917,1872
1961,1939,1916
1931,1905,1891
1902,1899,1854
1904,1907,1863
1939,1918,1898
1937,1920,1903
1920,1913,1870
1943,1915,1869
1935,1910,1894
1949,1909,1889
1936,1911,1862
1903,1918,1868
1930,1920,1899
1921,1913,1893
1968,1911,1866
1943,1920,1875
1963,1921,1909
1965,1920,1895
1915,1904,1858
1950,1907,1866
1964,1922,1902
1954,1925,1902
1902,1918,1871
1911,1920,1877
1920,1913,1891
1927,1916,1888
1919,1925,1871
1927,1905,1859
1893,1907,1883
1921,1906,1879
1904,1904,1856
1910,1919,1863
1936,1919,1901
1925,1904,1879
1901,1904,1853
1890,1913,1862
1936,1919,1900
1952,1914,1879
1891,1895,1855
1915,1904,1856
1948,1920,1904
1948,1910,1889
1919,1899,1853
1902,1907,1871
1921,1915,1903
1949,1917,1895
1913,1905,1866
1920,1910,1872
1943,1922,1903
1936,1915,1890
1915,1906,1856
1931,1913,1871
1951,1922,1904
1935,1917,1899
1957,1906,1862
1883,1917,1872
1972,1919,1913
1893,1920,1903
1947,1911,1866
1919,1916,1869
1938,1922,1904
1926,1912,1890
1904,1904,1846
1936,1907,1861
1952,1926,1904
1970,1922,1906
1887,1893,1855
1936,1902,1857
1943,1904,1898
1907,1904,1901
1899,1905,1860
1935,1919,1869
1917,1920,1904
1934,1918,1894
1906,1905,1858
1895,1914,1866
1982,1917,1891
1904,1904,1886
1946,1901,1858
1921,1917,1866
1904,1919,1899
1941,1915,1886
1915,1904,1855
1887,1904,1859
1947,1909,1898
1951,1913,1901
1890,1904,1858
1930,1906,1861
1953,1913,1901
1937,1919,1895
1935,1903,1845
1957,2002,1869
1965,2217,1938
1925,1913,1897
1904,1707,1826
1952,1872,1843
1973,1963,1913
1904,1840,1897
1873,1797,1840
1911,1838,1851
1942,1875,1872
1891,1881,1878
1902,1874,1859
1883,1884,1830
1931,1886,1887
1926,1878,1890
1906,1872,1845
1914,1872,1851
1993,1879,1890
1928,1883,1861
1894,1867,1851
1917,1872,1875
1939,1887,1894
1936,1884,1895
1900,1871,1858
1905,1874,1862
1937,1885,1895
1935,1883,1876
1902,1869,1850
1917,1871,1856
1978,1881,1892
1931,1878,1903
1904,1870,1866
1918,1888,1878
1937,1887,1897
1932,1871,1878
1904,1865,1845
1904,1878,1857
1955,1907,1904
1925,1915,1882
1902,1866,1843
1904,1869,1860
1999,1879,1897
1975,1889,1889
1935,1897,1863
1920,1934,1869
1933,1909,1893
1915,1923,1894
1903,1872,1850
1919,1858,1862
1951,1873,1902
1933,1867,1899
1935,1908,1872
1925,2075,1909
1968,1993,1917
1895,1773,1870
1862,1765,1831
1921,1835,1862
1949,1877,1920
1905,1888,1904
1971,1888,1869
1939,1911,1893
1963,1916,1915
1926,1872,1873
1897,1866,1841
1911,1884,1862
1943,1906,1906
1942,1901,1904
1856,1882,1869
1968,1889,1863
1950,1903,1903
1909,1901,1903
1918,1895,1870
1900,1904,1862
1971,1904,1896
1919,1902,1898
1984,1890,1862
1921,1910,1871
1964,1933,1907
1936,1900,1889
1904,1884,1841
1921,1904,1867
1922,1959,1921
1901,1903,1887
1827,1855,1813
1930,1873,1829
1921,1901,1878
1931,1903,1884
1904,1894,1851
1911,1900,1855
1941,1904,1887
1938,1915,1891
1918,1904,1851
1925,1904,1857
1947,1919,1891
1936,1926,1892
1910,1909,1855
1920,1931,1865
1947,1917,1901
1934,1905,1897
1904,1892,1856
1911,1904,1862
1951,1927,1904
1936,1915,1889
1894,1896,1824
1904,1908,1852
1931,1921,1900
1934,1918,1896
1905,1904,1858
1905,1909,1858
1931,1919,1888
1929,1911,1883
1901,1903,1855
1913,1922,1862
1936,1935,1890
1936,1923,1890
1909,1922,1850
1914,1920,1856
1940,1927,1889
1939,1935,1887
1906,1935,1849
1916,1919,1856
1945,1926,1901
1937,1919,1890
1905,1904,1845
1920,1911,1857
1945,1933,1889
1936,1965,1905
1916,1946,1866
1917,1889,1861
1941,1893,1903
1941,1905,1894
1920,1909,1857
1925,1918,1858
1946,1925,1892
1938,1927,1899
1915,1939,1868
1920,1953,1871
1938,1934,1893
1934,1895,1893
1914,1893,1857
1929,1907,1858
1951,1929,1897
1947,1919,1904
1925,1981,1860
1936,2095,1901
1968,2128,1949
1924,1855,1881
1893,1761,1829
1908,1843,1850
1947,1882,1893
1947,1900,1890
1914,1907,1869
1925,1918,1868
1947,1943,1899
1937,1927,1901
1915,1941,1870
1922,1985,1872
1939,1904,1890
1932,1856,1875
1910,1964,1872
1919,2053,1882
1930,1869,1897
1926,1851,1884
1907,1871,1851
1917,1927,1860
1936,1899,1885
1925,1927,1882
1936,2177,1892
1936,2079,1867
1925,1817,1853
1907,1760,1872
1895,1809,1863
1911,1891,1878
1935,1905,1910
1917,1924,1872
1879,1918,1845
1919,1922,1877
1962,1995,1926
1962,2085,1937
2010,2384,1875
1983,2384,1776
1839,1751,1872
1828,1734,1923
1850,1958,1881
1872,2126,1853
1877,2196,1854
1856,2225,1854
1872,2258,1872
1886,2308,1867
1898,2320,1902
1858,2320,1867
1808,2271,1794
1834,2277,1801
1877,2261,1834
1862,2320,1863
1821,2307,1831
1822,2256,1822
1850,2254,1842
1845,2258,1839
1808,2262,1805
1811,2245,1808
1840,2247,1835
1840,2226,1843
1810,2180,1799
1808,2178,1793
1837,2192,1825
1852,2252,1850
1823,2186,1808
1822,2143,1808
1854,2128,1833
1842,2121,1823
1818,2102,1782
1831,2114,1819
1872,2159,1882
1863,2110,1842
1839,2089,1821
1856,2093,1857
1868,2083,1838
1858,2057,1812
1856,2037,1809
1878,2042,1838
1904,2035,1861
1892,2021,1840
1869,1997,1805
1863,1983,1811
1895,2000,1865
1895,1987,1853
1887,1959,1843
1917,1974,1890
1922,1951,1874
1915,1919,1844
1889,1894,1820
1903,1882,1840
1941,1894,1879
1936,1879,1871
1918,1855,1849
1931,1857,1857
1936,1851,1865
1927,1808,1853
1923,1787,1861
1911,1778,1853
1935,1730,1855
1940,1690,1863
1927,1701,1863
1942,1728,1859
1955,1691,1874
1942,1627,1863
1918,1583,1829
1929,1616,1867
1954,1685,1904
1952,1682,1887
1920,1616,1810
1936,1603,1890
1966,1629,1917
1955,1601,1826
1910,1518,1863
1931,1552,1918
1985,1563,1968
1950,1578,1861
1904,1515,1824
1922,1483,1903
1958,1562,1930
1961,1488,1897
1936,1504,1879
1933,1535,1887
1959,1520,1915
1955,1500,1924
1927,1524,1878
1940,1525,1886
1968,1563,1919
1958,1535,1907
1936,1505,1898
1930,1532,1852
1963,1523,1917
1968,1505,1937
1953,1535,1907
1951,1535,1905
1966,1563,1929
1963,1535,1927
1956,1535,1901
1965,1584,1905
1981,1564,1936
1983,1579,1941
1968,1584,1921
1957,1583,1901
1981,1596,1915
1985,1577,1927
1973,1577,1920
1986,1619,1927
2003,1616,1941
2005,1600,1940
1987,1583,1917
1989,1667,1926
2003,1652,1943
2010,1645,1947
1991,1668,1923
1988,1671,1921
2013,1711,1943
2062,1662,1979
1983,1727,1898
1948,1731,1878
1999,1741,1932
2005,1701,1929
1989,1703,1904
1989,1743,1903
2010,1798,1922
2010,1789,1919
1989,1760,1887
1994,1808,1888
2006,1839,1906
2000,1808,1904
1977,1823,1876
1985,1871,1881
1998,1808,1897
1987,1834,1889
1968,1859,1874
1962,1838,1871
1989,1879,1891
1984,1865,1895
1978,1906,1905
1983,1936,1894
1989,1884,1890
1984,1931,1894
1968,1978,1870
1982,1983,1872
1999,1983,1904
1977,1988,1881
1962,1936,1846
1974,1980,1864
1994,1981,1901
1993,1945,1899
1970,2027,1866
1975,1934,1859
1995,2000,1887
1975,1926,1879
1959,1975,1857
1966,1995,1858
1985,2061,1887
1983,2000,1881
1968,1974,1858
1968,2010,1853
1988,1997,1873
1991,1990,1871
1954,1968,1829
1965,1995,1837
1987,2000,1869
1987,1979,1877
1949,1983,1825
1956,1998,1829
1973,1981,1857
1981,1973,1870
1950,1993,1823
1952,2047,1834
1981,2011,1873
1965,1947,1853
1950,1952,1819
1963,1968,1847
1975,2021,1873
1974,2011,1872
1948,1919,1826
1947,1942,1823
1970,1934,1871
1966,1961,1875
1950,1925,1850
1956,2005,1851
1974,1979,1873
1971,2006,1867
1953,1999,1840
1955,2044,1843
1970,2001,1870
1968,1963,1872
1943,1963,1845
1957,1910,1850
1979,1985,1878
1973,2010,1887
1939,1951,1849
1936,2002,1847
1957,1980,1882
1958,2003,1879
1932,1983,1850
1941,1985,1856
1968,2005,1894
1965,2029,1888
1921,1984,1834
1925,1997,1833
1954,1995,1867
1962,1987,1866
1945,1985,1842
1942,1986,1843
1963,2047,1871
1959,2003,1868
1930,1985,1827
1936,1988,1825
1966,1997,1865
1959,1988,1863
1934,1978,1834
1934,1993,1838
1969,2019,1870
1948,2003,1851
1929,1979,1808
1938,2032,1827
1961,1997,1865
1957,1949,1861
1932,1932,1825
1935,1984,1837
1962,1939,1861
1953,1963,1858
1931,1963,1825
1935,1945,1835
1953,1977,1867
1953,1980,1862
1924,1997,1833
1916,2005,1826
1946,2047,1858
1941,1955,1861
1919,1958,1834
1923,1969,1839
1941,1890,1866
1936,1955,1863
1916,1946,1823
1911,1957,1835
1936,1964,1863
1920,1959,1863
1919,1959,1835
1905,1968,1828
1925,1971,1853
1931,1961,1857
1906,1945,1830
1913,1947,1838
1931,1952,1863
1932,1947,1860
1905,1937,1830
1901,1950,1829
1923,1957,1851
1919,1952,1854
1893,1943,1826
1898,1949,1840
1923,1957,1867
1917,1951,1862
1892,1935,1827
1904,1936,1831
1923,1951,1863
1916,1951,1866
1902,1948,1839
1904,1950,1835
1917,1947,1856
1910,1938,1855
1892,1935,1829
1901,1936,1837
1916,1949,1863
1904,1943,1859
1882,1932,1833
1888,1936,1840
1910,1943,1872
1909,1939,1868
1879,1936,1831
1890,1938,1840
1915,1936,1873
1915,1949,1876
1893,1938,1831
1901,1938,1842
1917,1943,1873
1909,1938,1872
1889,1936,1854
1887,1945,1843
1906,1945,1869
1903,1938,1862
1887,1932,1834
1883,1936,1839
1904,1939,1870
1902,1943,1871
1872,1935,1844
1886,1939,1840
1902,1951,1873
1892,1936,1867
1872,1922,1835
1872,1935,1840
1899,1939,1866
1895,1949,1868
1865,1936,1829
1864,1933,1828
1889,1931,1861
1885,1925,1851
1859,1917,1826
1872,1925,1835
1893,1933,1863
1891,1927,1862
1868,1919,1833
1869,1922,1829
1892,1927,1857
1877,1919,1856
1855,1914,1825
1861,1915,1828
1886,1931,1863
1882,1927,1857
1856,1914,1814
1869,1917,1824
1885,1925,1860
1878,1929,1858
1854,1923,1829
1859,1923,1833
1885,1921,1863
1872,1925,1856
1857,1925,1838
1857,1931,1840
1883,1933,1867
1889,1936,1885
1856,1932,1831
1858,1926,1835
1884,1929,1867
1886,1929,1872
1857,1930,1839
1863,1930,1840
1877,1935,1867
1877,1930,1865
1847,1925,1837
1858,1928,1843
1881,1933,1873
1872,1922,1866
1855,1915,1826
1855,1922,1834
1875,1929,1872
1872,1927,1869
1853,1921,1840
1859,1923,1841
1884,1921,1863
1883,1923,1868
1853,1911,1839
1872,1927,1841
1893,1939,1872
1888,1926,1872
1856,1909,1843
1861,1921,1850
1876,1931,1883
1879,1926,1879
1856,1920,1840
1861,1921,1850
1875,1920,1877
1879,1920,1879
1856,1904,1840
1857,1913,1842
1883,1916,1881
1878,1908,1883
1855,1905,1846
1854,1920,1849
1872,1931,1872
1872,1919,1876
1856,1905,1845
1857,1913,1846
1876,1917,1872
1870,1913,1872
1855,1911,1843
1856,1905,1846
1876,1913,1873
1872,1911,1874
1853,1904,1840
1870,1904,1840
1890,1911,1877
1880,1903,1875
1851,1901,1842
1863,1903,1846
1889,1917,1888
1883,1909,1873
1853,1898,1833
1863,1900,1842
1890,1903,1875
1883,1895,1879
1856,1886,1840
1862,1892,1853
1881,1899,1875
1872,1891,1877
1853,1884,1856
1856,1895,1841
1875,1906,1870
1877,1895,1874
1861,1887,1851
1870,1890,1856
1889,1904,1883
1883,1902,1877
1856,1890,1854
1858,1897,1856
1887,1906,1872
1879,1902,1936
1851,1893,1878
1851,1887,1838
1885,1899,1869
1886,1904,1853
1857,1893,1850
1858,1898,1849
1887,1904,1891
1879,1894,1923
1856,1891,1882
1869,1898,1899
1887,1905,1915
1875,1896,1891
1856,1891,1877
1867,1893,1860
1889,1895,1887
1891,1890,1881
1872,1887,1875
1872,1895,1847
1893,1904,1881
1887,1898,1881
1868,1883,1843
1871,1882,1861
1895,1903,1915
1894,1900,1905
1872,1883,1855
1871,1885,1886
1897,1896,1856
1895,1890,1883
1874,1885,1857
1874,1888,1850
1901,1891,1893
1903,1887,1893
1872,1872,1856
1872,1884,1851
1893,1889,1890
1896,1890,1927
1866,1879,1863
1873,1883,1837
1895,1888,1883
1897,1881,1901
1873,1875,1862
1879,1874,1855
1903,1879,1886
1904,1885,1904
1881,1875,1877
1881,1872,1875
1904,1885,1895
1900,1882,1922
1873,1873,1872
1885,1880,1887
1906,1899,1887
1904,1893,1904
1883,1886,1841
1882,1894,1858
1911,1889,1916
1904,1891,1875
1877,1871,1856
1879,1887,1836
1903,1889,1910
1899,1883,1898
1878,1863,1857
1879,1875,1852
1904,1883,1854
1904,1875,1882
1876,1877,1859
1879,1885,1893
1899,1879,1923
1898,1872,1891
1880,1866,1844
1882,1875,1842
1904,1878,1919
1904,1870,1920
1883,1856,1882
1883,1875,1872
1907,1879,1872
1904,1877,1881
1887,1864,1873
1891,1872,1819
1917,1873,1904
1904,1871,1898
1878,1858,1837
1882,1871,1856
1905,1885,1904
1902,1879,1914
1879,1867,1854
1883,1872,1891
1904,1877,1939
1903,1872,1907
1876,1872,1846
1875,1875,1863
1909,1882,1899
1909,1887,1875
1881,1873,1863
1874,1879,1859
1904,1884,1890
1906,1886,1903
1874,1873,1863
1878,1875,1859
1902,1883,1896
1904,1873,1902
1882,1868,1866
1884,1872,1861
1902,1873,1885
1904,1873,1890
1872,1865,1857
1878,1872,1928
1907,1879,1904
1904,1878,1901
1882,1877,1904
1881,1872,1860
1904,1887,1887
1904,1874,1890
1879,1871,1885
1886,1885,1839
1901,1889,1921
1901,1878,1903
1876,1863,1801
1885,1871,1918
1905,1882,1904
1904,1872,1873
1872,1866,1855
1875,1871,1884
1906,1875,1865
1906,1871,1897
1887,1868,1840
1883,1872,1858
1904,1883,1931
1904,1876,1886
1882,1867,1818
1887,1872,1857
1910,1882,1870
1911,1879,1815
1887,1870,1867
1889,1882,1870
1911,1884,1894
1920,1885,1904
1889,1879,1861
1884,1873,1835
1907,1899,1886
1904,1895,1899
1886,1893,1855
1886,1891,1871
1916,1892,1904
1913,1887,1894
1888,1877,1865
1894,1878,1840
1913,1889,1892
1907,1888,1918
1887,1882,1857
1895,1893,1875
1915,1895,1917
1904,1894,1895
1894,1887,1870
1898,1887,1866
1921,1903,1899
1914,1895,1936
1891,1886,1856
1889,1885,1860
1911,1887,1892
1914,1897,1883
1885,1891,1834
1890,1899,1856
1907,1904,1901
1905,1889,1923
1877,1874,1872
1879,1879,1872
1909,1890,1903
1917,1879,1902
1892,1872,1867
1895,1878,1870
1911,1876,1902
1917,1891,1899
1893,1893,1869
1895,1890,1870
1917,1902,1903
1919,1891,1904
1892,1889,1872
1899,1887,1872
1919,1893,1891
1926,1887,1899
1902,1885,1872
1891,1891,1860
1920,1891,1888
1923,1899,1890
1910,1890,1862
1904,1903,1862
1919,1878,1887
1918,1886,1888
1891,1891,1859
1892,1890,1859
1920,1890,1893
1917,1888,1891
1895,1891,1858
1902,1900,1863
1922,1899,1888
1921,1889,1888
1907,1881,1872
1923,1890,1866
1895,1893,1883
1970,1887,1887
1879,1879,1866
1919,1873,1865
1978,1889,1889
1955,1891,1889
1915,1879,1855
1911,1883,1860
1951,1889,1884
1927,1891,1888
1921,1879,1863
1912,1889,1867
1906,1890,1886
1910,1882,1889
1886,1882,1862
1953,1888,1857
1926,1886,1886
1937,1903,1904
1905,1898,1865
1909,1898,1851
1936,1895,1875
1938,1894,1897
1912,1888,1861
1915,1898,1863
1891,1899,1901
1925,1893,1891
1919,1887,1856
1937,1885,1860
1954,1882,1885
1931,1875,1895
1919,1893,1867
1904,1898,1861
1934,1899,1899
1931,1901,1904
1939,1883,1863
1917,1887,1853
1939,1898,1895
1936,1889,1903
1919,1876,1868
1919,1886,1859
1975,1895,1889
1936,1887,1884
1909,1873,1856
1915,1885,1863
1970,1902,1889
1967,1897,1895
1936,1892,1872
1895,1889,1868
1934,1893,1890
1950,1898,1886
1923,1894,1863
1919,1893,1870
1933,1891,1891
1904,1875,1885
1907,1873,1867
1923,1874,1872
1897,1886,1895
1914,1891,1887
1911,1891,1875
1930,1901,1879
1953,1893,1902
1945,1889,1893
1954,1884,1872
1951,1892,1873
1982,1904,1901
1947,1891,1900
1919,1890,1872
1913,1895,1865
1925,1888,1882
1938,1881,1888
1903,1883,1869
1919,1875,1871
1933,1898,1894
1940,1894,1897
1925,1891,1865
1921,1887,1867
1947,1895,1894
1954,1898,1897
1886,1899,1863
1984,1895,1861
1955,1902,1889
1917,1899,1893
1895,1895,1857
1936,1894,1859
1922,1891,1886
1933,1888,1890
1965,1898,1870
1940,1904,1862
2000,1909,1877
1991,1881,1886
1942,1872,1872
1939,1885,1880
1970,1888,1904
1951,1888,1897
1921,1887,1866
1839,1896,1870
1973,1901,1902
1950,1900,1890
1930,1899,1862
1925,1889,1869
1939,1903,1897
1941,1899,1899
1934,1896,1865
1930,1881,1859
1946,1890,1889
1947,1890,1891
1932,1876,1856
1930,1878,1855
1983,1889,1881
1941,1879,1887
1936,1886,1857
1907,1883,1853
1957,1876,1874
1921,1878,1872
1952,1871,1847
1897,1878,1853
1918,1872,1872
1942,1875,1874
1904,1871,1855
1920,1875,1852
1961,1873,1873
1913,1869,1872
1968,1856,1843
1939,1869,1846
1958,1872,1881
1925,1872,1875
1883,1867,1843
1895,1874,1853
1945,1877,1868
1928,1892,1877
1903,1856,1852
1907,1840,1851
1911,1850,1872
1971,1853,1872
1941,1850,1850
1910,1857,1850
1935,1858,1874
1932,1872,1872
1893,1856,1843
1888,1851,1847
1895,1841,1869
1921,1850,1874
1909,1850,1843
1904,1861,1852
1918,1857,1872
1922,1856,1871
1941,1849,1839
1907,1859,1840
1920,1849,1863
1923,1824,1870
1904,1818,1843
1904,1840,1843
1888,1843,1872
1889,1840,1875
1886,1831,1843
1899,1841,1842
1963,1853,1871
1926,1841,1872
1905,1840,1842
1910,1841,1842
1849,1854,1872
1854,1838,1871
1967,1826,1843
1875,1827,1842
1953,1844,1867
1931,1845,1869
1904,1834,1840
1903,1833,1854
1915,1867,1871
1913,1862,1869
1901,1831,1843
1899,1824,1847
1923,1843,1862
1923,1827,1865
1903,1837,1840
1899,1857,1839
1913,1846,1862
1925,1839,1870
1907,1841,1842
1905,1851,1840
1927,1856,1865
1930,1855,1871
1907,1854,1840
1905,1857,1846
1921,1861,1863
1925,1872,1863
1908,1871,1843
1903,1858,1843
1922,1879,1862
1927,1894,1870
1908,1885,1840
1904,1846,1831
1926,1860,1858
1924,1877,1867
1903,1872,1840
1906,1891,1841
1924,1892,1862
1918,1877,1869
1901,1849,1837
1918,1869,1840
1921,1904,1861
1926,1891,1862
1909,1893,1840
1907,1908,1841
1927,1909,1865
1929,1904,1869
1909,1908,1843
1911,1918,1845
1930,1921,1867
1930,1919,1869
1919,1922,1844
1909,1925,1841
1923,1920,1862
1926,1936,1869
1920,1911,1841
1915,1904,1841
1935,1917,1871
1927,1924,1875
1910,1922,1853
1905,1926,1843
1923,1925,1868
1926,1923,1872
1908,1921,1847
1909,1922,1839
1914,1917,1859
1923,1916,1867
1903,1921,1846
1900,1923,1840
1912,1922,1862
1922,1921,1868
1905,1917,1841
1904,1914,1840
1920,1923,1869
1917,1920,1862
1904,1925,1840
1904,1932,1841
1921,1931,1868
1923,1920,1861
1907,1911,1838
1909,1933,1840
1925,1926,1867
1920,1914,1870
1904,1925,1843
1904,1914,1842
1925,1914,1865
1921,1911,1865
1905,1915,1840
1911,1921,1847
1934,1917,1866
1936,1922,1872
1911,1931,1844
1913,1931,1843
1921,1925,1872
1920,1923,1872
1903,1907,1841
1906,1927,1850
1921,1941,1874
1920,1925,1874
1899,1935,1852
1895,1938,1843
1909,1904,1867
1920,1904,1879
1904,1919,1855
1904,1921,1843
1921,1928,1870
1921,1929,1874
1906,1930,1855
1907,1923,1862
1921,1919,1875
1927,1925,1886
1909,1919,1855
1925,1917,1859
1929,1919,1886
1933,1914,1887
1918,1923,1867
1920,1919,1868
1931,1921,1881
1927,1918,1887
1911,1913,1863
1910,1921,1859
1936,1922,1883
1932,1930,1879
1904,1921,1861
1906,1920,1856
1925,1915,1874
1937,1920,1889
1922,1920,1867
1914,1923,1861
1927,1925,1887
1936,1920,1877
1917,1928,1856
1915,1919,1856
1934,1918,1872
1935,1917,1873
1919,1908,1857
1916,1915,1857
1923,1915,1878
1933,1909,1883
1907,1915,1853
1905,1911,1854
1922,1908,1879
1931,1920,1887
1913,1905,1858
1911,1918,1855
1936,1927,1886
1933,1904,1890
1920,1901,1858
1917,1929,1855
1933,1905,1877
1936,1899,1879
1918,1901,1855
1918,1903,1853
1934,1899,1874
1939,1894,1879
1920,1905,1847
1917,1907,1847
1935,1902,1873
1935,1904,1877
1918,1901,1853
1917,1891,1850
1936,1899,1873
1938,1893,1882
1920,1897,1859
1919,1887,1855
1941,1890,1879
1935,1906,1878
1911,1902,1854
1911,1889,1850
1933,1875,1872
1936,1899,1877
1923,1917,1865
1922,1925,1862
1937,1889,1886
1936,1923,1892
1925,1891,1870
1925,1934,1858
1936,1909,1872
1931,1927,1877
1918,1888,1859
1925,1876,1853
1940,1931,1879
1936,1919,1874
1930,1885,1850
1923,1903,1838
1945,1892,1863
1946,1902,1881
1928,1907,1851
1921,1887,1840
1949,1877,1867
1939,1884,1871
1925,1878,1849
