1871,1905,1881
1876,1851,1872
1874,1893,1843
1836,1851,1841
1867,1872,1853
1904,1932,1859
1888,1867,1844
1840,1853,1834
1863,1899,1831
1857,1887,1846
1847,1871,1846
1841,1833,1823
1879,1872,1844
1871,1856,1801
1875,1841,1790
1846,1814,1798
1840,1967,1872
1874,1905,1879
1840,1852,1786
1879,1836,1789
1919,1866,1863
1867,1854,1877
1842,1890,1866
1856,1838,1840
1878,1839,1808
1875,1885,1845
1869,1887,1870
1861,1849,1843
1879,1829,1843
1887,1877,1868
1834,1840,1791
1840,1846,1799
1910,1893,1887
1920,1882,1875
1837,1802,1793
1889,1907,1764
1881,1904,1780
1834,1836,1882
1813,1895,1865
1840,1799,1849
1866,1865,1821
1891,1876,1826
1902,1884,1834
1914,1791,1875
1889,1862,1889
1873,1890,1843
1872,1849,1838
1821,1817,1786
1852,1840,1827
1889,1879,1841
1929,1905,1857
1867,1887,1797
1845,1845,1814
1865,1840,1863
1841,1872,1836
1843,1843,1840
1872,1858,1826
1910,1893,1810
1923,1878,1858
1889,1836,1891
1814,1844,1865
1835,1859,1843
1891,1787,1840
1921,1872,1842
1882,1781,1849
1856,1872,1850
1840,1845,1810
1846,1841,1795
1870,1842,1810
1861,1879,1873
1847,1884,1855
1845,1835,1808
1873,1839,1834
1888,1857,1811
1890,1887,1866
1899,1889,1890
1872,1883,1840
1898,1924,1847
1845,1809,1825
1826,1799,1805
1856,1851,1823
1867,1894,1851
1855,1892,1848
1874,1878,1835
1892,1870,1841
1875,1860,1819
1857,1872,1793
1837,1853,1823
1887,1865,1862
1904,1872,1857
1858,1851,1837
1850,1847,1822
1883,1872,1868
1918,1921,1910
1882,1908,1856
1825,1835,1777
1873,1847,1833
1897,1876,1837
1839,1872,1822
1858,1854,1802
1893,1871,1840
1878,1865,1871
1826,1851,1843
1809,1852,1822
1878,1884,1834
1904,1872,1829
1839,1894,1839
1841,1871,1838
1871,1869,1843
1872,1858,1852
1835,1857,1819
1840,1841,1793
1887,1892,1859
1947,1904,1851
1892,1855,1794
1840,1811,1805
1819,1815,1807
1831,1855,1841
1837,1855,1843
1863,1872,1840
1895,1873,1872
1886,1881,1866
1866,1875,1830
1835,1874,1823
1828,1874,1851
1851,1873,1841
1862,1872,1809
1847,1853,1800
1888,1888,1840
1862,1878,1840
1856,1879,1858
1895,1891,1860
1937,1904,1885
1859,1856,1839
1770,1818,1799
1790,1818,1775
1855,1861,1837
1879,1878,1854
1885,1913,1867
1865,1879,1814
1872,1856,1861
1883,1855,1858
1850,1870,1858
1853,1872,1840
1875,1895,1856
1893,1879,1849
1883,1882,1832
1857,1870,1841
1906,1907,1843
1915,1877,1851
1825,1808,1808
1789,1827,1834
1823,1873,1847
1869,1907,1866
1879,1899,1817
1853,1863,1823
1853,1875,1851
1887,1904,1869
1872,1895,1862
1861,1876,1831
1870,1878,1856
1962,1959,1911
1915,1893,1855
1806,1826,1777
1839,1841,1855
1872,1890,1891
1913,1885,1843
1908,1878,1810
1838,1861,1813
1853,1903,1871
1865,1889,1873
1842,1857,1847
1863,1872,1856
1899,1904,1873
1872,1881,1820
1856,1869,1811
1869,1877,1851
1885,1904,1872
1901,1877,1819
1889,1877,1839
1929,1858,1854
1902,1851,1851
1815,1879,1856
1798,1854,1808
1836,1843,1823
1872,1872,1858
1853,1872,1859
1849,1855,1837
1897,1877,1853
1873,1890,1878
1840,1872,1853
1831,1854,1835
1870,1872,1844
1886,1904,1871
1878,1894,1857
1865,1874,1833
1904,1896,1862
1890,1889,1871
1856,1868,1842
1856,1843,1822
1881,1872,1843
1891,1892,1861
1872,1886,1847
1865,1872,1840
1887,1885,1858
1899,1904,1856
1872,1885,1837
1861,1863,1813
1879,1877,1847
1897,1894,1862
1875,1893,1846
1872,1883,1831
1899,1900,1860
1904,1893,1870
1878,1895,1851
1877,1895,1838
1904,1925,1847
1920,1968,1870
1890,1859,1838
1878,1808,1829
1906,1843,1862
1922,1872,1895
1909,1873,1889
1891,1856,1846
1909,1868,1855
1920,1875,1873
1911,1869,1858
1895,1843,1840
1921,1856,1882
1947,1879,1923
1937,1856,1914
1924,1827,1967
1937,1828,1943
1954,1844,1856
1951,1840,1988
1955,1825,2075
1955,1819,2039
1955,1835,1868
1945,1825,1819
1943,1806,1747
1968,1813,1830
1984,1817,1882
1958,1799,1911
1950,1777,1862
1971,1777,1943
1984,1802,1905
1976,1791,1869
1971,1776,1904
1998,1775,1905
2005,1789,1929
1997,1783,1917
1984,1779,1865
2005,1753,1845
2031,1753,1895
2019,1759,1900
2011,1759,1882
2039,1787,1909
2064,1758,1984
2032,1686,1899
2011,1667,1803
2041,1690,1833
2053,1711,1892
2028,1711,1869
2022,1693,1885
2058,1712,1954
2077,1717,1888
2043,1681,1818
2032,1648,1851
2069,1680,1871
2094,1730,1907
2076,1708,1879
2066,1651,1853
2096,1671,1871
2115,1725,1921
2096,1625,1880
2082,1602,1824
2096,1651,1886
2114,1690,1941
2096,1658,1849
2084,1681,1821
2094,1604,1902
2109,1573,1872
2103,1695,1928
2096,1673,1875
2096,1591,1905
2114,1594,1945
2109,1605,1885
2096,1595,1921
2128,1695,1982
2127,1681,1943
2096,1522,1907
2109,1535,1907
2113,1535,1936
2111,1584,2030
2095,1616,1968
2093,1609,1977
2109,1535,1966
2119,1584,2015
2115,1651,2032
2091,1570,1982
2101,1517,2011
2112,1555,2043
2107,1600,2064
2112,1572,2043
2115,1552,2064
2111,1573,2032
2095,1633,2076
2098,1520,2085
2136,1515,2128
2147,1680,2179
2112,1665,2132
2102,1489,2160
2112,1461,2160
2135,1535,2202
2098,1520,2224
2109,1590,2225
2131,1601,2250
2128,1481,2249
2105,1516,2310
2096,1495,2310
2128,1522,2373
2145,1596,2490
2103,1525,2439
2084,1425,2347
2112,1459,2453
2143,1526,2453
2098,1511,2417
2079,1496,2384
2118,1520,2447
2160,1643,2528
2128,1515,2478
2103,1395,2416
2129,1360,2480
2125,1509,2503
2091,1461,2451
2096,1487,2448
2113,1535,2475
2128,1639,2496
2094,1402,2447
2073,1251,2383
2115,1365,2434
2101,1485,2480
2065,1422,2465
2064,1345,2382
2095,1431,2438
2112,1493,2420
2097,1521,2441
2071,1485,2353
2085,1459,2399
2099,1452,2400
2083,1419,2387
2077,1443,2373
2103,1499,2413
2115,1524,2395
2054,1466,2315
2031,1377,2294
2055,1424,2367
2074,1456,2367
2053,1440,2329
2039,1441,2345
2065,1561,2330
2063,1469,2339
2032,1368,2279
2021,1394,2275
2042,1458,2304
2064,1492,2334
2031,1479,2317
2013,1469,2300
2021,1487,2305
2043,1493,2209
2043,1562,2288
2003,1517,2251
2003,1486,2235
2021,1442,2256
2002,1431,2192
2000,1446,2191
2007,1488,2249
2033,1516,2247
2014,1507,2205
1986,1495,2243
2018,1520,2255
2057,1560,2241
1998,1521,2183
1946,1472,2122
1970,1511,2210
2000,1535,2162
1988,1521,2192
1963,1487,2095
1987,1518,2081
2002,1535,2073
1977,1527,2135
1978,1524,2177
1965,1532,2169
1931,1520,2130
1883,1486,2053
1904,1483,2032
1942,1509,2073
1953,1526,2101
1925,1518,2061
1910,1512,2031
1930,1521,2043
1925,1529,2054
1908,1527,2023
1898,1518,1996
1902,1526,2008
1909,1535,2027
1888,1524,1984
1872,1507,1977
1903,1519,2014
1904,1535,2032
1888,1525,2007
1877,1511,1990
1886,1527,1999
1892,1535,2000
1851,1514,1956
1840,1503,1927
1856,1529,1946
1874,1565,1983
1856,1535,1949
1841,1535,1919
1866,1573,1945
1889,1587,1963
1839,1565,1903
1771,1535,1867
1861,1535,1899
1836,1575,1909
1833,1582,1889
1819,1584,1881
1818,1605,1904
1873,1600,1905
1797,1590,1860
1758,1584,1821
1744,1601,1839
1797,1616,1865
1794,1616,1847
1760,1615,1824
1781,1640,1839
1825,1659,1851
1805,1642,1833
1779,1607,1813
1776,1651,1833
1808,1724,1858
1808,1715,1890
1749,1655,1754
1741,1648,1719
1774,1685,1767
1785,1702,1777
1731,1698,1764
1751,1711,1760
1750,1722,1763
1712,1707,1748
1742,1715,1728
1763,1744,1749
1793,1755,1762
1702,1756,1753
1742,1757,1735
1741,1770,1740
1769,1781,1751
1743,1766,1724
1722,1771,1687
1744,1793,1730
1761,1822,1767
1742,1817,1744
1740,1777,1680
1693,1783,1690
1719,1819,1715
1744,1813,1690
1715,1802,1648
1745,1824,1687
1726,1838,1719
1687,1830,1674
1696,1831,1648
1744,1847,1664
1714,1861,1689
1680,1857,1670
1689,1846,1653
1725,1872,1681
1766,1904,1699
1711,1886,1664
1728,1872,1647
1715,1877,1648
1683,1899,1661
1680,1888,1636
1681,1891,1622
1700,1910,1653
1712,1922,1666
1706,1904,1629
1713,1903,1617
1680,1936,1666
1761,1959,1682
1742,1936,1644
1705,1919,1614
1681,1934,1631
1724,1958,1665
1743,1950,1648
1706,1936,1625
1740,1946,1632
1733,1975,1667
1714,1967,1644
1675,1951,1615
1724,1965,1633
1707,1975,1650
1734,1963,1623
1722,1957,1600
1683,1984,1628
1702,2000,1669
1655,1989,1648
1723,1973,1627
1705,1981,1630
1706,1998,1643
1680,1979,1599
1646,1974,1595
1722,2006,1648
1777,2032,1680
1773,1981,1629
1697,1982,1602
1718,2015,1617
1707,2032,1638
1684,2015,1627
1686,1997,1605
1712,2011,1625
1739,2034,1648
1722,2032,1634
1683,2010,1603
1751,2011,1609
1711,2032,1630
1711,2024,1623
1696,2033,1618
1791,2053,1617
1694,2038,1616
1622,2017,1632
1623,1999,1600
1664,2014,1616
1751,2054,1643
1655,2044,1616
1655,2019,1584
1648,2028,1593
1727,2073,1617
1667,2034,1602
1686,2013,1591
1665,2032,1613
1769,2059,1635
1667,2062,1624
1680,2038,1616
1723,2064,1643
1729,2077,1659
1703,2096,1616
1730,2046,1594
1721,2053,1614
1717,2079,1627
1648,2065,1582
1644,2059,1579
1682,2079,1616
1744,2094,1641
1713,2095,1620
1683,2091,1605
1702,2089,1617
1717,2113,1639
1689,2117,1625
1715,2105,1627
1713,2112,1648
1735,2121,1653
1678,2097,1584
1653,2091,1571
1681,2094,1612
1716,2099,1648
1728,2108,1630
1757,2094,1589
1735,2090,1601
1706,2120,1655
1657,2111,1615
1676,2096,1587
1694,2098,1621
1709,2124,1650
1708,2115,1626
1667,2101,1614
1712,2106,1626
1706,2133,1655
1710,2122,1631
1688,2110,1626
1703,2126,1637
1721,2142,1648
1744,2149,1649
1712,2129,1634
1690,2126,1650
1706,2129,1664
1697,2129,1629
1742,2157,1648
1781,2173,1708
1727,2141,1680
1680,2122,1648
1701,2126,1639
1728,2137,1656
1743,2160,1701
1723,2143,1685
1714,2139,1660
1745,2129,1693
1766,2141,1683
1733,2139,1681
1719,2134,1680
1753,2147,1703
1776,2156,1706
1733,2123,1668
1718,2103,1650
1776,2128,1693
1783,2154,1712
1754,2128,1693
1721,2096,1659
1730,2103,1693
1760,2128,1718
1763,2128,1699
1749,2106,1683
1773,2114,1717
1779,2139,1718
1757,2101,1682
1756,2083,1711
1767,2092,1736
1782,2097,1738
1764,2093,1711
1759,2071,1700
1792,2094,1737
1807,2105,1767
1775,2077,1728
1766,2064,1710
1801,2081,1755
1809,2096,1769
1775,2064,1712
1769,2043,1691
1784,2041,1733
1796,2064,1766
1776,2064,1714
1776,2054,1712
1799,2063,1746
1799,2062,1769
1781,2034,1754
1787,2026,1740
1804,2032,1753
1808,2047,1785
1794,2037,1783
1781,2019,1725
1809,2036,1747
1840,2057,1799
1799,2027,1776
1823,2011,1729
1836,2023,1763
1818,2043,1818
1794,2021,1798
1783,1989,1749
1792,1980,1776
1813,2010,1802
1797,1999,1776
1808,1986,1774
1822,2000,1787
1830,2000,1808
1811,1990,1791
1804,1975,1761
1821,1985,1792
1823,1995,1821
1808,1985,1823
1806,1975,1797
1817,1978,1815
1811,1983,1823
1803,1982,1791
1807,1968,1794
1859,1990,1845
1851,2000,1856
1818,1979,1808
1801,1951,1777
1831,1958,1797
1831,1967,1821
1808,1948,1810
1814,1941,1796
1853,1958,1838
1855,1990,1873
1833,1977,1840
1857,1988,1837
1881,1995,1864
1862,2015,1851
1793,1936,1764
1807,1940,1792
1823,2029,1831
1847,2015,1862
1859,1885,1845
1854,1873,1811
1835,1882,1797
1847,1894,1809
1840,1905,1808
1874,1953,1861
1874,1959,1852
1873,1959,1840
1871,1878,1825
1863,1855,1806
1851,1869,1822
1823,1922,1849
1824,1927,1865
1872,1908,1821
1872,1898,1808
1840,1891,1821
1835,1889,1806
1839,1868,1794
1840,1872,1791
1878,1892,1774
1970,1946,1895
1840,1919,1869
1869,1907,1773
1923,1949,1804
1795,1861,1735
1891,1894,1874
2015,1973,1817
1904,1941,1835
1836,2015,1838
1859,1999,1714
1825,2017,1786
1823,2026,1920
1829,2031,1806
1893,2032,1793
1903,2075,1795
1851,2103,1860
1934,2181,1894
1904,2124,1831
1769,2063,1761
1763,2064,1730
1855,2064,1722
1917,2089,1740
1819,2130,1891
1796,2188,1876
1872,2151,1808
1865,2157,1797
1863,2176,1774
1946,2353,1858
1819,2182,1776
1779,2187,1793
1802,2211,1798
1805,2230,1748
1867,2267,1734
1918,2298,1862
1847,2234,1859
1825,2326,1899
1857,2353,1822
1905,2320,1725
1883,2365,1844
1823,2419,1850
1776,2302,1817
1831,2394,1859
1838,2341,1769
1866,2423,1823
1874,2412,1828
1852,2407,1877
1905,2416,1917
1864,2470,1870
1763,2432,1771
1789,2395,1838
1821,2369,1899
1872,2420,1859
1869,2384,1744
1824,2381,1835
1799,2372,1881
1815,2466,1871
1808,2429,1790
1866,2411,1824
1907,2428,1855
1872,2437,1827
1837,2406,1674
1802,2369,1597
1781,2416,1555
1776,2400,1727
1803,2368,1766
1847,2329,1678
1872,2416,1664
1840,2357,1579
1814,2337,1645
1824,2382,1665
1823,2337,1679
1819,2340,1646
1894,2395,1690
1865,2339,1623
1853,2372,1628
1826,2341,1535
1813,2266,1675
1829,2288,1698
1855,2301,1632
1866,2318,1653
1807,2304,1638
1786,2294,1578
1867,2252,1659
1886,2289,1687
1835,2206,1587
1831,2236,1526
1839,2256,1508
1865,2275,1535
1834,2246,1486
1845,2193,1438
1859,2279,1445
1904,2183,1506
1871,2202,1527
1839,2178,1474
1841,2184,1423
1872,2221,1437
1936,2239,1433
1874,2162,1463
1819,2097,1469
1823,2128,1455
1825,2207,1392
1841,2144,1406
1919,2133,1467
1923,2156,1457
1819,2080,1456
1853,2112,1449
1871,2081,1408
1902,2110,1429
1863,2096,1446
1840,2044,1377
1879,2058,1456
1931,2125,1488
1873,2064,1459
1857,2123,1515
1887,2035,1532
1909,2094,1493
1822,1992,1451
1813,1990,1438
1856,1936,1463
1893,2033,1484
1923,2034,1535
1873,1980,1558
1809,1965,1501
1855,1996,1472
1894,2029,1505
1966,2019,1586
1966,1973,1601
1829,1951,1517
1819,1903,1449
1835,1933,1479
1869,1936,1554
1895,1910,1578
1872,1915,1523
1911,1963,1499
1924,1977,1657
1886,1870,1662
1875,1943,1597
1904,1987,1584
1947,1904,1633
1974,1951,1655
1894,1849,1594
1786,1821,1587
1828,1917,1607
1889,1898,1577
1965,1891,1626
1927,1892,1724
1872,1877,1711
1895,1892,1651
1911,1874,1676
1899,1905,1669
1957,1919,1659
1952,1842,1727
1898,1828,1735
1829,1802,1662
1831,1827,1664
1888,1849,1730
1889,1856,1703
1938,1875,1681
1968,1840,1702
1889,1890,1738
1873,1856,1761
1903,1799,1769
1890,1810,1766
1903,1855,1799
1923,1856,1735
1903,1808,1731
1906,1793,1769
1879,1775,1723
1891,1824,1741
1910,1738,1766
1920,1785,1827
1866,1808,1774
1849,1743,1733
1853,1747,1757
1927,1776,1881
1982,1805,1899
1872,1745,1760
1811,1839,1727
1856,1734,1779
1919,1701,1826
1887,1694,1830
1881,1760,1802
1903,1751,1805
1902,1808,1746
1953,1779,1856
1923,1699,1874
1865,1707,1872
1898,1789,1875
1850,1751,1813
1846,1743,1813
1893,1782,1853
1938,1794,1840
1954,1763,1781
1835,1714,1845
1818,1765,1863
1869,1773,1846
1893,1741,1879
1890,1713,1840
1952,1762,1913
1897,1745,1902
1843,1707,1793
1890,1728,1852
1937,1801,1897
1891,1774,1919
1860,1738,1914
1871,1749,1877
1874,1714,1829
1891,1747,1861
1854,1743,1857
1887,1755,1877
1892,1713,1886
1904,1742,1961
1873,1747,1911
1857,1750,1883
1883,1767,1892
1904,1775,1919
1903,1789,1904
1923,1773,1909
1907,1767,1875
1889,1783,1872
1854,1762,1897
1846,1719,1916
1868,1738,1925
1925,1799,1968
1906,1773,1901
1875,1761,1901
1901,1807,1923
1906,1799,1906
1933,1793,2002
1900,1757,1936
1850,1758,1923
1870,1792,1936
1878,1770,1915
1873,1776,1921
1863,1764,1901
1891,1776,1958
1909,1758,1928
1903,1758,1904
1868,1765,1929
1886,1787,1917
1917,1792,1915
1901,1808,1990
1885,1789,1985
1898,1791,1988
1906,1787,1900
1884,1783,1920
1895,1794,1990
1904,1807,1986
1896,1791,1910
1885,1805,1931
1903,1804,1970
1927,1825,2003
1936,1823,1995
1930,1815,1984
1882,1791,1951
1904,1837,1963
1888,1809,1909
1871,1803,1941
1874,1807,1975
1936,1851,2001
1987,1865,1997
1917,1819,1915
1853,1805,1901
1880,1828,1987
1894,1799,1958
1949,1811,2001
1939,1836,2021
1949,1863,2045
1871,1788,1927
1887,1772,1878
1882,1792,1937
1925,1810,1962
1904,1806,1941
1903,1783,1908
1910,1815,1924
1871,1817,1983
1859,1809,2007
1892,1789,1968
1943,1811,2000
1928,1817,2019
1886,1808,1994
1906,1810,1983
1874,1808,1936
1912,1821,1946
1874,1798,1907
1839,1761,1910
1867,1778,1968
1911,1814,1981
1934,1840,1959
1936,1808,1920
1901,1791,1931
1869,1792,1949
1847,1805,1967
1877,1799,1991
1943,1830,1973
1925,1785,1919
1893,1799,1936
1903,1809,1973
1888,1754,1949
1850,1782,1910
1842,1805,1912
1865,1805,1943
1921,1814,1967
1919,1843,1967
1934,1833,1951
1911,1783,1934
1871,1821,1953
1864,1821,1955
1837,1782,1933
1865,1789,1949
1949,1808,1955
1927,1809,1930
1866,1798,1954
1834,1769,1923
1897,1807,1927
1884,1834,1968
1877,1827,1950
1885,1786,1916
1897,1818,1945
1889,1835,1963
1917,1809,1939
1899,1811,1884
1853,1795,1895
1881,1822,1982
1906,1822,2015
1860,1791,1952
1895,1822,1964
1914,1839,1947
1891,1831,1917
1857,1808,1925
1875,1818,1962
1900,1811,1925
1907,1834,1911
1904,1847,1915
1905,1829,2014
1888,1819,1987
1863,1790,1935
1867,1797,1872
1883,1824,1898
1905,1857,1925
1893,1824,1904
1883,1821,1932
1865,1805,1887
1872,1838,1925
1865,1836,1883
1854,1806,1846
1904,1828,1931
1901,1827,1907
1885,1833,1923
1853,1819,1866
1881,1809,1872
1937,1857,1968
1905,1845,1934
1907,1817,1936
1856,1831,1951
1833,1812,1887
1836,1794,1857
1857,1817,1941
1889,1857,1925
1910,1877,1908
1870,1818,1869
1877,1806,1892
1872,1823,1915
1890,1861,1965
1907,1872,1925
1841,1808,1840
1851,1813,1824
1895,1854,1941
1870,1838,1917
1898,1860,1923
1878,1834,1904
1840,1814,1882
1861,1830,1833
1877,1830,1916
1879,1822,1873
1904,1846,1882
1863,1840,1902
1851,1840,1857
1855,1826,1925
1911,1843,1879
1910,1839,1861
1865,1847,1878
1808,1808,1889
1875,1804,1851
1872,1813,1891
1858,1841,1925
1871,1845,1878
1898,1853,1822
1890,1834,1911
1913,1829,1956
1891,1840,1901
1891,1856,1910
1904,1875,1869
1819,1808,1838
1869,1831,1849
1983,1921,1949
1871,1838,1841
1809,1759,1831
1847,1789,1851
1882,1847,1904
1872,1856,1872
1874,1833,1905
1898,1847,1919
1897,1855,1909
1879,1826,1870
1887,1859,1865
1875,1866,1831
1904,1888,1914
1903,1872,1830
1861,1824,1855
1899,1834,1899
1878,1835,1886
1878,1814,1856
1854,1813,1834
1886,1844,1871
1872,1861,1882
1840,1826,1904
1845,1841,1830
1892,1876,1918
1941,1898,1946
1833,1827,1792
1803,1808,1776
1888,1856,1859
1895,1841,1901
1860,1830,1881
1835,1818,1856
1882,1840,1821
1872,1857,1824
1862,1859,1837
1888,1829,1845
1860,1808,1888
1805,1801,1869
1785,1792,1821
1831,1815,1824
1898,1845,1837
1902,1850,1840
1853,1837,1831
1822,1807,1834
1850,1850,1859
1841,1846,1827
1849,1823,1819
1866,1819,1821
1905,1863,1840
1926,1894,1938
1840,1819,1862
1815,1808,1840
1842,1804,1855
1908,1846,1883
1861,1853,1904
1835,1841,1841
1840,1852,1857
1849,1863,1847
1870,1850,1823
1854,1821,1807
1876,1819,1822
1869,1856,1907
1842,1883,1920
1837,1851,1896
1901,1866,1866
1904,1840,1854
1855,1819,1841
1808,1808,1797
1813,1850,1872
1901,1897,1897
1871,1846,1850
1872,1872,1883
1847,1834,1875
1857,1847,1875
1851,1855,1883
1879,1874,1872
1887,1872,1812
1879,1857,1861
1869,1872,1888
1837,1862,1868
1862,1878,1869
1897,1875,1862
1872,1855,1852
1867,1873,1917
1889,1883,1882
1862,1879,1829
1858,1867,1871
1845,1842,1907
1856,1855,1847
1874,1866,1839
1863,1840,1869
1863,1853,1872
1934,1897,1911
1899,1893,1875
1829,1868,1843
1839,1849,1840
1825,1847,1792
1867,1869,1850
1867,1869,1871
1872,1845,1877
1914,1846,1872
1889,1866,1853
1839,1878,1866
1851,1877,1914
1874,1863,1915
1863,1856,1883
1870,1846,1837
1855,1824,1794
1862,1840,1853
1873,1870,1918
1888,1872,1885
1906,1851,1846
1873,1856,1847
1811,1825,1833
1790,1803,1801
1840,1810,1827
1893,1866,1873
1917,1886,1891
1904,1873,1889
1843,1818,1800
1854,1840,1794
1805,1847,1843
1808,1851,1863
1889,1855,1859
1870,1830,1821
1818,1820,1822
1823,1810,1783
1771,1827,1821
1914,1860,1868
1827,1867,1867
1855,1857,1839
1897,1870,1822
1887,1837,1838
1856,1843,1857
1840,1857,1836
1893,1859,1851
1849,1810,1803
1840,1824,1833
1834,1839,1841
1788,1808,1775
1889,1857,1828
1867,1858,1859
1825,1806,1813
1819,1791,1789
1819,1824,1784
1873,1871,1846
1867,1859,1877
1831,1849,1858
1835,1815,1823
1831,1813,1779
1892,1840,1811
1869,1867,1847
1854,1872,1862
1840,1873,1847
1815,1846,1808
1870,1856,1776
1888,1855,1856
1850,1856,1877
1849,1846,1844
1856,1861,1840
1904,1869,1858
1893,1883,1859
1831,1858,1829
1827,1866,1794
1871,1887,1872
1878,1909,1903
1857,1881,1831
1829,1837,1797
1831,1854,1819
1817,1855,1815
1867,1857,1835
1901,1835,1871
1961,1887,1882
1951,1903,1893
1872,1840,1834
1856,1846,1817
1890,1865,1799
1849,1892,1813
1830,1888,1882
1904,1885,1901
1829,1867,1857
1853,1867,1847
1799,1837,1806
1823,1837,1776
1890,1889,1840
1899,1901,1878
1835,1888,1870
1862,1900,1904
1851,1878,1813
1841,1890,1865
1839,1863,1824
1849,1838,1801
1965,1872,1840
1969,1902,1879
1809,1873,1861
1821,1840,1837
1893,1871,1865
1868,1905,1883
1851,1870,1819
1831,1839,1786
1892,1876,1809
1936,1903,1888
1839,1849,1862
1780,1819,1814
1878,1856,1831
1856,1896,1872
1872,1895,1857
1870,1862,1831
1862,1840,1830
1854,1887,1879
1830,1877,1876
1808,1856,1840
1876,1837,1808
1872,1872,1853
1862,1856,1863
1846,1858,1851
1899,1909,1890
1857,1875,1831
1808,1856,1792
1803,1851,1846
1857,1872,1860
1887,1881,1884
1913,1859,1841
1875,1872,1847
1878,1879,1856
1862,1887,1824
1856,1872,1837
1847,1859,1834
1856,1875,1845
1873,1855,1843
1891,1871,1841
1893,1906,1830
1865,1949,1893
1829,1910,1872
1809,1843,1837
1921,1857,1842
1904,1854,1869
1900,1867,1867
1840,1883,1829
1855,1872,1825
1850,1898,1855
1935,1873,1866
1868,1851,1807
1856,1857,1809
1941,1887,1867
1819,1862,1867
1829,1834,1819
1795,1822,1820
1830,1878,1853
1903,1901,1839
1830,1857,1840
1841,1850,1822
1953,1872,1815
1890,1877,1856
1696,1842,1812
1822,1832,1788
1856,1840,1776
1871,1858,1822
1856,1846,1845
1840,1899,1891
1851,1896,1897
1889,1869,1815
1797,1834,1779
1839,1834,1779
1888,1871,1856
1952,1911,1904
1910,1854,1840
1809,1834,1803
1773,1858,1809
1851,1871,1855
1859,1842,1790
1861,1863,1819
1881,1882,1876
1913,1901,1907
1900,1883,1865
1826,1851,1822
1866,1902,1855
1883,1914,1871
1872,1866,1830
1897,1865,1808
1885,1856,1856
1872,1847,1831
1881,1851,1801
1840,1837,1826
1856,1862,1861
1879,1908,1914
1821,1874,1835
1833,1842,1799
1861,1869,1873
1884,1885,1859
1902,1872,1810
1869,1863,1793
1831,1842,1798
1867,1872,1895
1831,1851,1840
1793,1813,1776
1857,1857,1859
1875,1888,1890
1843,1872,1882
1877,1854,1823
1891,1851,1840
1850,1873,1855
1842,1878,1814
1840,1851,1814
1847,1867,1830
1886,1851,1819
1890,1855,1838
1868,1841,1821
1862,1867,1823
1840,1872,1855
1831,1865,1879
1855,1850,1854
1882,1877,1854
1891,1883,1855
1854,1858,1840
1838,1861,1839
1863,1867,1810
1870,1878,1814
1831,1845,1820
1840,1831,1811
1869,1873,1827
1854,1863,1840
1831,1841,1837
1859,1843,1815
1901,1873,1840
1936,1904,1904
1825,1874,1852
1811,1849,1805
1847,1855,1791
1871,1872,1803
1867,1881,1836
1834,1835,1788
1829,1863,1845
1851,1856,1868
1847,1838,1820
1856,1849,1787
1881,1877,1826
1878,1877,1874
1873,1869,1837
1858,1872,1839
1855,1873,1863
1866,1894,1887
1849,1855,1835
1845,1862,1840
1867,1904,1782
1906,1902,1862
1839,1856,1855
1827,1834,1823
1860,1871,1840
1840,1851,1801
1871,1848,1790
1866,1857,1824
1877,1913,1858
1915,1907,1879
1850,1849,1795
1810,1851,1799
1879,1894,1875
1893,1916,1842
1904,1889,1856
1895,1872,1844
1867,1853,1842
1834,1851,1833
1824,1855,1818
1855,1847,1809
1850,1861,1808
1871,1866,1814
1863,1867,1815
1872,1869,1841
1892,1894,1905
1879,1902,1853
1863,1851,1777
1882,1855,1837
1906,1918,1923
1856,1897,1893
1813,1838,1798
1866,1840,1773
1889,1870,1826
1872,1881,1845
1841,1878,1826
1837,1871,1859
1861,1861,1847
1903,1872,1839
1859,1856,1796
1851,1872,1833
1893,1895,1851
1909,1876,1841
1883,1886,1865
1858,1875,1846
1871,1900,1868
1903,1905,1902
1886,1875,1811
1943,1872,1794
1964,1861,1840
1851,1860,1879
1819,1859,1866
1813,1853,1823
1871,1855,1823
1903,1889,1856
1883,1878,1856
1879,1872,1831
1903,1873,1865
1913,1871,1857
1902,1871,1850
1870,1856,1835
1879,1872,1840
1940,1915,1875
1895,1878,1813
1857,1829,1803
1840,1840,1851
1838,1854,1833
1857,1853,1795
1874,1839,1792
1904,1899,1871
1889,1865,1841
1840,1845,1808
1856,1845,1799
1903,1866,1837
1915,1899,1867
1873,1840,1835
1846,1840,1834
1914,1858,1853
1886,1881,1862
1825,1837,1805
1823,1843,1825
1872,1858,1834
1884,1875,1840
1877,1872,1797
1819,1855,1821
1840,1871,1873
1879,1887,1847
1884,1869,1786
1885,1851,1815
1888,1851,1826
1891,1863,1860
1862,1872,1855
1843,1833,1839
1869,1886,1841
1855,1808,1773
1887,1790,1775
1889,1846,1840
1889,1927,1866
1827,1830,1845
1839,1904,1846
1872,1856,1834
1893,1812,1808
1901,1862,1839
1865,1858,1838
1857,1840,1854
1842,1825,1856
1854,1873,1846
1879,1887,1810
1854,1825,1773
1850,1845,1856
1857,1892,1892
1871,1872,1817
1868,1866,1820
1873,1873,1856
1888,1895,1865
1862,1882,1791
1855,1823,1779
1871,1878,1863
1895,1904,1878
1861,1877,1854
1854,1808,1808
1899,1818,1808
1844,1873,1847
1808,1842,1830
1829,1846,1824
1867,1917,1845
1925,1901,1854
1922,1951,1863
1879,1901,1834
1820,1823,1789
1821,1833,1808
1792,1822,1824
1892,1887,1872
1910,1847,1809
1872,1845,1782
1805,1840,1792
1857,1854,1887
1883,1858,1911
1845,1898,1859
1811,1871,1825
1879,1898,1843
1957,1941,1863
1877,1855,1822
1791,1780,1808
1818,1839,1819
1856,1827,1843
1883,1887,1861
1849,1837,1840
1851,1820,1841
1866,1904,1849
1903,1856,1841
1875,1920,1840
1854,1881,1840
1834,1885,1861
1859,1872,1840
1875,1886,1841
1911,1916,1825
1901,1914,1882
1851,1943,1886
1834,1862,1819
1856,1879,1767
1856,1871,1791
