1841,1841,1813
1872,1872,1833
1914,1872,1856
1857,1854,1845
1842,1850,1827
1853,1868,1863
1905,1904,1868
1861,1875,1808
1865,1872,1832
1866,1877,1839
1856,1875,1870
1825,1840,1831
1873,1848,1819
1920,1873,1831
1859,1885,1879
1835,1872,1843
1866,1869,1814
1887,1866,1804
1899,1889,1846
1898,1900,1875
1859,1873,1856
1846,1869,1831
1901,1904,1872
1889,1901,1871
1897,1882,1854
1853,1876,1826
1821,1861,1839
1811,1841,1811
1840,1856,1811
1927,1894,1856
1867,1871,1837
1836,1855,1817
1856,1863,1849
1872,1874,1872
1883,1892,1851
1873,1857,1796
1874,1871,1838
1895,1887,1867
1866,1886,1891
1844,1883,1853
1840,1871,1809
1853,1857,1853
1886,1871,1803
1872,1882,1860
1843,1858,1817
1861,1874,1894
1881,1884,1881
1855,1854,1771
1847,1840,1783
1921,1888,1830
1888,1883,1840
1843,1883,1865
1872,1869,1829
1901,1869,1818
1897,1885,1843
1807,1838,1833
1809,1854,1831
1847,1869,1802
1876,1904,1871
1900,1905,1882
1915,1901,1857
1891,1872,1843
1843,1872,1871
1846,1866,1835
1872,1856,1803
1923,1901,1878
1885,1887,1813
1819,1856,1820
1840,1845,1817
1911,1872,1836
1890,1855,1872
1867,1856,1842
1811,1829,1763
1835,1843,1850
1874,1886,1883
1871,1883,1833
1875,1879,1857
1887,1872,1872
1872,1872,1845
1870,1856,1818
1891,1878,1830
1907,1879,1873
1894,1863,1872
1877,1862,1857
1851,1851,1841
1878,1875,1884
1882,1876,1858
1870,1877,1856
1850,1835,1845
1868,1863,1791
1891,1897,1808
1872,1872,1828
1871,1872,1876
1873,1872,1853
1859,1888,1846
1871,1907,1907
1851,1855,1841
1878,1867,1804
1895,1883,1817
1883,1886,1893
1853,1851,1776
1853,1872,1826
1898,1885,1795
1915,1892,1855
1910,1893,1889
1885,1862,1815
1846,1862,1810
1791,1854,1840
1808,1862,1841
1861,1887,1867
1918,1898,1906
1901,1849,1805
1904,1856,1814
1857,1872,1856
1829,1873,1897
1840,1875,1829
1845,1854,1792
1920,1867,1838
1911,1884,1897
1855,1886,1882
1823,1845,1840
1846,1872,1830
1869,1863,1857
1859,1851,1817
1898,1847,1762
1936,1881,1869
1872,1882,1888
1840,1863,1906
1845,1840,1811
1875,1877,1847
1898,1872,1851
1853,1858,1811
1861,1872,1836
1891,1879,1806
1897,1875,1814
1846,1857,1813
1856,1872,1853
1890,1893,1877
1915,1904,1957
1881,1861,1799
1899,1863,1823
1862,1869,1863
1865,1862,1824
1883,1847,1796
1852,1850,1821
1878,1858,1826
1885,1901,1840
1840,1903,1870
1841,1858,1838
1849,1841,1829
1893,1867,1849
1893,1873,1820
1886,1857,1793
1869,1865,1837
1898,1920,1904
1855,1883,1863
1855,1825,1792
1931,1858,1834
1867,1871,1806
1818,1871,1825
1859,1878,1762
1891,1890,1846
1888,1859,1874
1858,1852,1793
1853,1850,1823
1872,1879,1844
1877,1866,1870
1885,1851,1794
1895,1861,1871
1941,1879,1837
1851,1852,1787
1808,1838,1808
1819,1825,1789
1885,1853,1847
1936,1888,1841
1913,1865,1763
1870,1877,1846
1872,1866,1873
1831,1846,1859
1823,1817,1808
1872,1830,1803
1927,1869,1808
1904,1875,1840
1856,1881,1895
1871,1858,1882
1856,1834,1840
1863,1874,1805
1863,1843,1820
1851,1818,1783
1881,1862,1862
1893,1898,1872
1871,1862,1830
1858,1806,1753
1902,1840,1808
1871,1863,1858
1840,1857,1875
1856,1840,1808
1902,1872,1836
1894,1903,1904
1846,1854,1847
1878,1856,1809
1871,1867,1789
1854,1846,1838
1873,1867,1859
1831,1844,1831
1857,1855,1843
1903,1873,1859
1856,1830,1856
1848,1819,1811
1870,1853,1845
1906,1872,1863
1868,1854,1845
1870,1863,1867
1886,1891,1858
1854,1871,1831
1811,1840,1801
1866,1840,1807
1884,1858,1902
1895,1904,1915
1883,1886,1873
1839,1842,1835
1847,1858,1854
1871,1865,1883
1851,1840,1836
1835,1829,1826
1900,1869,1830
1962,1907,1871
1863,1872,1867
1841,1840,1811
1876,1864,1872
1883,1874,1871
1841,1860,1840
1823,1840,1845
1846,1857,1857
1930,1861,1851
1889,1847,1830
1837,1858,1840
1870,1860,1867
1894,1879,1883
1799,1840,1834
1803,1823,1795
1908,1867,1849
1919,1881,1822
1823,1859,1822
1858,1855,1862
1925,1870,1905
1902,1866,1870
1800,1852,1857
1776,1857,1859
1886,1872,1835
1876,1865,1839
1859,1857,1839
1850,1858,1844
1891,1866,1859
1897,1883,1877
1829,1850,1830
1796,1839,1817
1841,1858,1817
1867,1882,1872
1887,1874,1861
1831,1838,1839
1870,1865,1847
1889,1877,1850
1883,1846,1840
1808,1839,1836
1856,1859,1845
1872,1887,1861
1888,1845,1795
1819,1851,1815
1829,1875,1866
1895,1892,1891
1869,1863,1823
1862,1853,1786
1827,1840,1821
1885,1866,1857
1881,1852,1839
1877,1856,1831
1849,1862,1863
1808,1842,1851
1835,1845,1815
1891,1872,1845
1889,1863,1840
1870,1856,1861
1847,1863,1900
1891,1869,1850
1872,1859,1856
1885,1866,1885
1826,1862,1821
1886,1850,1840
1890,1827,1855
1863,1851,1872
1855,1843,1847
1806,1883,1861
1902,1898,1893
1877,1904,1883
1889,1872,1811
1856,1878,1861
1854,1853,1879
1817,1848,1863
1834,1850,1824
1869,1856,1857
1936,1868,1887
1965,1913,1914
1883,1855,1830
1779,1826,1830
1856,1877,1854
1883,1881,1904
1866,1840,1888
1895,1870,1861
1936,1875,1875
1859,1873,1900
1871,1875,1856
1843,1866,1818
1821,1862,1840
1856,1857,1876
1868,1846,1817
1859,1841,1812
1846,1861,1869
1782,1865,1904
1856,1856,1842
1854,1854,1845
1858,1893,1885
1848,1863,1807
1821,1830,1779
1837,1845,1840
1890,1881,1893
1922,1911,1888
1908,1887,1839
1862,1859,1869
1884,1861,1859
1854,1842,1840
1855,1856,1831
1839,1840,1842
1867,1864,1857
1906,1895,1842
1874,1885,1846
1845,1873,1840
1818,1842,1844
1795,1831,1808
1821,1869,1819
1951,1898,1859
1888,1885,1899
1823,1851,1855
1808,1849,1833
1834,1875,1872
1904,1873,1858
1846,1874,1839
1854,1840,1831
1830,1833,1859
1889,1879,1871
1874,1895,1854
1775,1864,1856
1783,1838,1824
1849,1860,1851
1901,1919,1913
1882,1882,1875
1893,1870,1854
1889,1840,1776
1840,1879,1853
1857,1894,1887
1862,1855,1839
1850,1834,1804
1898,1876,1872
1874,1872,1845
1839,1856,1832
1904,1869,1866
1895,1872,1859
1861,1889,1898
1866,1883,1873
1871,1843,1856
1899,1854,1856
1885,1878,1863
1914,1863,1853
1907,1887,1872
1801,1874,1825
1857,1872,1869
1811,1840,1842
1824,1840,1817
1921,1870,1868
1825,1841,1850
1825,1863,1857
1885,1883,1859
1904,1904,1871
1872,1886,1855
1859,1859,1850
1922,1867,1840
1957,1872,1871
1865,1887,1904
1790,1875,1857
1886,1865,1844
1868,1870,1839
1851,1856,1833
1861,1867,1841
1904,1895,1841
1904,1921,1902
1836,1843,1828
1822,1822,1807
1883,1875,1888
1891,1885,1865
1840,1862,1824
1856,1874,1849
1865,1882,1847
1935,1889,1867
1953,1877,1840
1851,1857,1804
1787,1851,1808
1840,1889,1879
1861,1879,1897
1858,1856,1841
1887,1902,1843
1866,1888,1840
1827,1866,1776
1881,1872,1843
1870,1871,1911
1855,1872,1915
1857,1890,1875
1861,1878,1805
1902,1909,1811
1936,1871,1838
1911,1857,1855
1812,1863,1853
1839,1891,1875
1890,1934,1892
1895,1887,1838
1903,1865,1849
1871,1873,1856
1835,1854,1847
1805,1833,1793
1856,1857,1843
1903,1886,1856
1895,1891,1872
1851,1869,1841
1872,1872,1862
1860,1855,1821
1896,1885,1825
1897,1885,1817
1871,1881,1853
1907,1900,1898
1920,1907,1878
1845,1861,1831
1843,1856,1811
1835,1866,1808
1850,1869,1822
1899,1864,1845
1892,1862,1851
1856,1870,1841
1840,1907,1878
1840,1854,1811
1872,1845,1851
1914,1889,1899
1870,1879,1835
1842,1881,1827
1855,1890,1873
1903,1902,1903
1901,1883,1872
1887,1835,1796
1851,1847,1775
1856,1876,1852
1857,1899,1911
1847,1873,1851
1860,1872,1843
1856,1863,1819
1894,1890,1832
1892,1858,1808
1867,1874,1841
1869,1904,1854
1872,1871,1824
1849,1859,1849
1880,1879,1882
1883,1888,1855
1882,1882,1855
1838,1872,1815
1856,1847,1801
1892,1873,1871
1911,1889,1867
1858,1856,1786
1856,1877,1814
1863,1898,1872
1887,1886,1870
1840,1850,1805
1871,1862,1791
1907,1872,1808
1895,1878,1895
1852,1879,1901
1859,1872,1860
1858,1854,1831
1850,1868,1824
1862,1859,1824
1909,1890,1847
1910,1901,1838
1871,1883,1835
1840,1840,1869
1842,1837,1823
1870,1869,1841
1877,1897,1870
1831,1846,1842
1885,1871,1840
1936,1878,1851
1893,1899,1885
1835,1869,1840
1831,1867,1793
1887,1889,1847
1905,1882,1849
1849,1840,1792
1846,1835,1808
1840,1869,1855
1856,1873,1869
1851,1853,1845
1855,1856,1830
1904,1892,1872
1918,1873,1872
1871,1865,1783
1843,1856,1798
1893,1872,1840
1872,1875,1863
1825,1839,1811
1847,1836,1819
1923,1883,1874
1911,1904,1874
1840,1838,1808
1833,1855,1826
1849,1862,1834
1858,1876,1821
1860,1860,1840
1902,1840,1850
1914,1865,1865
1947,1895,1819
1870,1868,1808
1827,1847,1829
1865,1865,1853
1875,1870,1862
1869,1866,1839
1877,1853,1838
1872,1874,1822
1872,1880,1808
1829,1851,1811
1867,1872,1871
1902,1893,1890
1879,1866,1830
1847,1853,1827
1870,1878,1838
1885,1819,1841
1909,1913,1837
1845,1893,1808
1850,1843,1808
1906,1878,1858
1973,1883,1895
1914,1844,1839
1789,1826,1814
1817,1885,1872
1867,1830,1844
1869,1835,1794
1853,1875,1819
1893,1925,1899
1895,1838,1905
1840,1837,1827
1831,1801,1783
1887,1863,1822
1878,1894,1825
1887,1840,1847
1901,1851,1819
1968,1908,1887
1970,1884,1838
1792,1835,1793
1799,1819,1835
1840,1846,1857
1908,1837,1874
1842,1844,1826
1825,1826,1803
1878,1871,1873
1889,1899,1866
1865,1845,1837
1872,1882,1835
1851,1852,1822
1875,1866,1824
1910,1905,1795
2031,1938,1849
1881,1858,1903
1738,1825,1862
1763,1817,1811
1827,1828,1793
1894,1919,1862
1883,1936,1876
1872,1874,1791
1852,1852,1818
1889,1895,1858
1886,1861,1840
1840,1874,1826
1898,1808,1847
1909,1862,1828
1904,1878,1856
1903,1900,1874
1810,1858,1828
1808,1810,1811
1853,1897,1858
1863,1877,1808
1885,1881,1811
1856,1824,1840
1877,1866,1847
1872,1825,1806
1926,1830,1857
1886,1872,1884
1873,1837,1875
1872,1904,1819
1873,1859,1815
1850,1840,1833
1840,1853,1840
1882,1887,1824
1904,1837,1798
1861,1835,1850
1840,1847,1874
1821,1896,1819
1865,1877,1814
1901,1883,1824
1883,1883,1818
1885,1897,1803
1842,1873,1810
1895,1930,1895
1899,1873,1882
1854,1872,1823
1842,1839,1799
1873,1801,1808
1887,1853,1823
1865,1897,1827
1895,1933,1873
1882,1881,1858
1837,1857,1792
1823,1814,1799
1887,1843,1851
1883,1839,1855
1872,1871,1833
1893,1883,1819
1878,1890,1821
1872,1872,1840
1889,1910,1862
1889,1901,1852
1858,1857,1840
1835,1847,1840
1841,1852,1815
1867,1865,1808
1868,1859,1792
1886,1877,1836
1872,1878,1871
1883,1815,1808
1863,1931,1835
1852,1873,1851
1858,1854,1822
1842,1898,1840
1894,1874,1855
1918,1837,1851
1914,1913,1857
1886,1894,1812
1840,1867,1835
1815,1850,1831
1837,1825,1827
1834,1853,1793
1846,1847,1815
1887,1872,1839
1899,1856,1849
1855,1852,1826
1861,1775,1834
1877,1859,1843
1867,1826,1826
1850,1873,1840
1856,1871,1846
1882,1903,1839
1880,1882,1862
1850,1898,1837
1858,1863,1823
1936,1882,1836
1886,1931,1857
1829,1827,1837
1873,1808,1777
1872,1849,1801
1818,1857,1852
1807,1819,1817
1849,1835,1811
1870,1884,1840
1895,1891,1871
1863,1889,1855
1904,1851,1803
1891,1884,1893
1845,1876,1860
1833,1814,1808
1886,1803,1808
1889,1872,1827
1841,1877,1846
1847,1829,1851
1894,1884,1866
1872,1857,1827
1840,1867,1849
1815,1867,1850
1866,1954,1856
1859,1879,1843
1869,1869,1854
1868,1930,1828
1853,1839,1807
1834,1756,1791
1839,1847,1825
1901,1904,1878
1909,1872,1855
1872,1851,1829
1821,1842,1834
1799,1840,1814
1856,1853,1827
1899,1887,1870
1904,1938,1903
1889,1871,1818
1853,1840,1807
1792,1833,1826
1812,1856,1868
1831,1874,1811
1861,1840,1861
1927,1872,1872
1887,1866,1831
1867,1848,1837
1830,1866,1856
1863,1872,1834
1860,1866,1867
1849,1827,1856
1873,1876,1911
1883,1917,1886
1903,1891,1867
1833,1836,1808
1805,1819,1811
1858,1863,1845
1887,1891,1873
1861,1871,1858
1891,1857,1843
1887,1840,1866
1840,1876,1860
1837,1867,1872
1843,1845,1879
1849,1855,1856
1888,1870,1836
1865,1857,1812
1888,1906,1906
1890,1890,1945
1872,1856,1847
1825,1803,1798
1821,1826,1819
1854,1883,1893
1885,1895,1871
1890,1886,1838
1855,1815,1815
1862,1821,1849
1863,1856,1913
1847,1879,1874
1839,1872,1834
1843,1889,1862
1877,1902,1870
1868,1859,1867
1851,1839,1815
1856,1870,1833
1893,1889,1856
1898,1854,1829
1811,1840,1811
1844,1887,1867
1895,1874,1874
1890,1855,1872
1839,1833,1819
1849,1865,1840
1865,1889,1889
1842,1893,1856
1879,1879,1859
1883,1859,1860
1840,1838,1858
1847,1833,1863
1906,1871,1821
1917,1878,1851
1863,1850,1828
1849,1857,1853
1857,1876,1883
1913,1881,1894
1915,1859,1845
1840,1839,1803
1818,1840,1793
1839,1872,1856
1878,1904,1906
1856,1862,1838
1852,1854,1822
1872,1870,1872
1878,1869,1858
1846,1850,1813
1845,1852,1818
1879,1890,1905
1904,1904,1913
1904,1883,1859
1883,1872,1847
1856,1864,1858
1861,1865,1849
1855,1824,1807
1904,1877,1863
1872,1895,1893
1810,1869,1850
1827,1843,1815
1904,1853,1843
1895,1901,1881
1835,1865,1851
1809,1847,1808
1873,1887,1872
1920,1903,1895
1909,1877,1872
1858,1853,1847
1867,1824,1824
1850,1853,1850
1873,1902,1884
1927,1903,1818
1869,1837,1776
1849,1853,1869
1861,1865,1889
1889,1856,1811
1860,1872,1854
1840,1870,1856
1857,1849,1827
1882,1859,1840
1887,1872,1877
1920,1904,1936
1850,1838,1846
1822,1831,1751
1870,1861,1826
1915,1896,1910
1859,1866,1883
1825,1842,1808
1872,1859,1827
1917,1866,1872
1874,1883,1873
1840,1858,1802
1853,1853,1822
1882,1866,1898
1855,1872,1881
1850,1856,1808
1901,1872,1783
1923,1877,1851
1894,1872,1891
1805,1831,1835
1778,1827,1808
1846,1872,1817
1899,1895,1841
1899,1867,1846
1847,1827,1813
1839,1843,1814
1846,1898,1883
1871,1879,1844
1856,1873,1814
1851,1889,1863
1897,1899,1889
1854,1815,1814
1849,1826,1804
1871,1874,1837
1859,1875,1797
1849,1858,1815
1840,1856,1812
1849,1859,1853
1877,1877,1891
1890,1877,1851
1851,1856,1810
1852,1869,1829
1858,1870,1895
1887,1949,1878
1895,1878,1815
1837,1828,1809
1834,1854,1796
1810,1851,1841
1872,1845,1835
1906,1855,1817
1860,1883,1792
1849,1877,1785
1894,1850,1886
1920,1878,1974
1856,1871,1850
1826,1850,1842
1933,1872,1875
1894,1856,1865
1815,1840,1776
1834,1857,1787
1865,1826,1776
1861,1847,1866
1843,1885,1888
1854,1904,1837
1884,1872,1824
1939,1863,1843
1860,1857,1833
1797,1838,1815
1858,1856,1866
1998,1885,1915
1905,1845,1855
1765,1829,1779
1778,1850,1781
1872,1895,1825
1876,1850,1813
1844,1805,1858
1861,1857,1842
1823,1875,1819
1872,1875,1920
1904,1854,1902
1899,1869,1893
1853,1847,1835
1842,1874,1827
1858,1861,1833
1877,1850,1847
1842,1842,1847
1810,1835,1785
1862,1865,1818
1898,1871,1890
1897,1882,1872
1851,1878,1845
1854,1838,1808
1853,1823,1813
1872,1840,1863
1857,1858,1873
1926,1889,1891
1872,1835,1838
1792,1807,1777
1808,1846,1840
1804,1837,1836
1853,1858,1885
1901,1874,1850
1890,1865,1862
1846,1856,1823
1855,1850,1840
1874,1902,1872
1887,1891,1872
1849,1826,1858
1837,1831,1840
1925,1870,1883
1909,1872,1826
1859,1845,1843
1846,1843,1875
1847,1863,1887
1838,1902,1831
1839,1847,1762
1826,1808,1820
1833,1841,1899
1872,1872,1835
1911,1871,1825
1874,1840,1862
1841,1849,1906
1859,1875,1850
1870,1858,1785
1893,1855,1838
1839,1846,1866
1846,1907,1872
1837,1835,1794
1858,1831,1835
1889,1875,1804
1827,1865,1843
1834,1842,1920
1866,1837,1890
1937,1907,1857
1936,1949,1765
1798,1830,1859
1787,1789,1888
1864,1834,1842
1868,1883,1776
1904,1858,1825
1840,1805,1886
1855,1872,1889
1824,1915,1777
1835,1858,1815
1853,1797,1933
1884,1857,1959
1872,1869,1840
1893,1872,1845
1840,1869,1795
1857,1885,1809
1892,1881,1909
1856,1811,1872
1830,1818,1826
1863,1857,1811
1872,1894,1840
1893,1900,1861
1878,1840,1840
1872,1858,1797
1943,1883,1850
1869,1886,1820
1826,1865,1885
1828,1826,1958
1843,1827,1878
1833,1860,1872
1813,1837,1791
1895,1853,1824
1908,1861,1891
1837,1872,1846
1840,1879,1818
1885,1878,1904
1861,1842,1856
1872,1842,1801
1849,1859,1819
1858,1904,1830
1874,1904,1889
1901,1827,1917
1856,1815,1843
1821,1882,1850
1839,1872,1834
1867,1882,1857
1862,1822,1841
1897,1863,1862
1872,1869,1790
1795,1808,1837
1857,1840,1931
1875,1851,1872
1863,1855,1837
1826,1808,1817
1870,1847,1808
1869,1867,1856
1853,1835,1828
1839,1858,1796
1855,1861,1874
1877,1858,1913
1853,1848,1850
1812,1830,1776
1856,1859,1756
1957,1837,1952
1879,1810,1936
1824,1806,1833
1835,1859,1765
1851,1874,1751
1836,1854,1850
1854,1794,1883
1891,1811,1863
1882,1834,1791
1856,1831,1788
1808,1823,1817
1830,1825,1878
1878,1865,1888
1900,1862,1899
1872,1855,1898
1863,1815,1821
1889,1840,1790
1843,1856,1841
1860,1819,1831
1857,1837,1850
1869,1872,1792
1883,1874,1840
1870,1834,1872
1889,1839,1820
1936,1847,1873
1902,1840,1873
1802,1836,1869
1830,1839,1824
1841,1865,1792
1956,1925,1867
1947,1857,1872
1814,1807,1873
1762,1831,1861
1905,1850,1838
1858,1840,1851
1808,1849,1823
1907,1840,1814
1955,1834,1893
1834,1813,1875
1859,1854,1855
1897,1911,1840
1872,1907,1845
1853,1821,1872
1841,1782,1846
1897,1855,1917
1874,1882,1856
1858,1856,1648
1952,1849,1826
1881,1831,1983
1773,1824,1931
1787,1841,1840
1851,1900,1763
1938,1920,1840
1904,1817,1903
1835,1785,1893
1805,1826,1824
1904,1881,1859
1904,1878,1839
1883,1843,1822
1855,1825,1869
1835,1856,1891
1906,1890,1860
1859,1865,1729
1971,1846,1843
1906,1845,1917
1839,1817,1888
1813,1844,1851
1827,1849,1840
1871,1886,1833
1937,1901,1803
1927,1869,1855
1863,1835,1875
1835,1839,1817
1831,1871,1849
1858,1860,1856
1895,1851,1846
1887,1875,1858
1913,1887,1839
1899,1860,1835
1861,1875,1894
1867,1867,1846
1812,1867,1806
1808,1840,1813
1843,1853,1827
1926,1881,1895
1968,1900,1963
1935,1872,1885
1808,1817,1732
1840,1845,1774
1863,1885,1840
1872,1841,1843
1870,1875,1867
1846,1891,1845
1931,1906,1875
1845,1877,1811
1929,1856,1904
1911,1863,1917
1911,1879,1875
1776,1867,1744
1885,1869,1819
1922,1901,1931
1834,1872,1845
1792,1847,1824
1863,1853,1840
1921,1875,1857
1872,1876,1805
1894,1904,1775
1883,1872,1885
1863,1867,1922
1890,1887,1867
1894,1882,1808
1883,1859,1821
1942,1915,1866
1881,1893,1887
1904,1871,1899
1841,1834,1879
1873,1855,1840
1919,1898,1772
1891,1871,1802
1850,1846,1853
1872,1903,1891
1849,1903,1872
1873,1856,1869
1901,1857,1843
1914,1904,1883
1875,1920,1872
1835,1838,1846
1872,1838,1791
1887,1872,1834
1963,1885,1875
1886,1937,1859
1857,1857,1871
1881,1855,1866
1926,1875,1886
1874,1891,1835
1851,1882,1798
1865,1917,1922
1859,1872,1904
1883,1878,1799
1861,1883,1802
1863,1930,1915
1878,1813,1837
1854,1840,1779
1870,1902,1825
1958,1920,1945
1914,1891,1937
1871,1854,1808
1886,1872,1803
1897,1903,1813
1849,1873,1872
1838,1841,1875
1872,1857,1745
1975,1921,1839
1895,1920,1951
1837,1849,1938
1825,1834,1909
1845,1873,1841
1861,1886,1772
1879,1885,1751
1924,1884,1861
1910,1902,1924
1887,1870,1866
1789,1823,1792
1859,1845,1713
1900,1886,1837
1921,1908,1936
1888,1855,1877
1834,1873,1781
1879,1872,1849
1866,1867,1870
1845,1882,1875
1871,1877,1840
1910,1946,1831
1856,1892,1830
1877,1837,1815
1856,1857,1845
1968,1895,1808
1904,1894,1744
1867,1872,1794
1871,1849,1904
1887,1866,1894
1863,1902,1827
1873,1892,1820
1904,1906,1841
1898,1893,1857
1874,1872,1798
1866,1854,1827
1885,1878,1914
1887,1869,1920
1873,1872,1826
1838,1862,1801
1863,1923,1837
1900,1923,1850
1918,1844,1856
1871,1819,1819
1856,1884,1806
1862,1904,1764
1872,1892,1878
1879,1879,1927
1876,1907,1861
1906,1931,1861
1927,1903,1888
1907,1859,1854
1865,1851,1819
1856,1872,1791
1866,1897,1823
1886,1878,1842
1899,1843,1851
1891,1827,1827
1866,1869,1792
1851,1897,1727
1927,1925,1877
1949,1887,1923
1840,1857,1894
1799,1837,1783
1845,1841,1745
1911,1872,1897
1921,1919,1936
1910,1870,1815
1895,1827,1809
1867,1872,1869
1843,1882,1851
1859,1895,1808
1917,1916,1835
1943,1913,1843
1878,1879,1792
1840,1857,1707
1858,1851,1803
1880,1876,1922
1856,1895,1824
1895,1872,1872
1913,1846,1903
1923,1878,1878
1911,1909,1849
1915,1915,1839
1872,1859,1795
1892,1904,1822
1903,1919,1833
1847,1829,1858
1829,1828,1847
1858,1862,1838
1871,1870,1759
1867,1872,1755
1893,1872,1917
1904,1890,1929
1906,1911,1877
1855,1884,1818
1867,1872,1822
1920,1918,1847
1860,1911,1787
1890,1872,1857
1897,1875,1834
1921,1890,1845
1904,1881,1840
1862,1847,1823
1925,1887,1808
1890,1905,1887
1831,1872,1829
1831,1818,1792
1885,1862,1861
1914,1867,1889
1883,1904,1826
1874,1914,1803
1969,1951,1935
1917,1882,1887
1831,1840,1807
1813,1863,1741
1858,1875,1808
1929,1898,1883
1938,1902,1857
1897,1872,1741
1862,1870,1798
1857,1894,1896
1885,1894,1898
1822,1842,1762
1878,1854,1872
1927,1915,1913
1886,1888,1823
1935,1872,1829
1918,1867,1798
1823,1859,1835
1807,1902,1867
1840,1894,1813
1883,1829,1776
1894,1881,1867
1922,1921,1872
1885,1872,1797
1816,1864,1786
1859,1872,1888
1870,1873,1893
1886,1889,1826
1889,1879,1822
1893,1871,1830
1955,1879,1862
1874,1847,1805
1838,1857,1782
1858,1902,1872
1872,1889,1861
1814,1830,1755
1873,1859,1798
1891,1887,1875
1883,1891,1808
1876,1872,1779
1866,1872,1863
1852,1867,1810
1839,1840,1835
1819,1838,1805
1877,1898,1818
1893,1872,1826
1918,1874,1879
1841,1861,1809
1824,1878,1829
1870,1885,1832
1942,1904,1815
1883,1840,1789
1847,1873,1849
1792,1881,1869
1808,1867,1845
1874,1867,1882
1904,1859,1822
1919,1910,1897
1863,1872,1823
1835,1854,1742
1841,1869,1810
1899,1936,1904
1907,1886,1834
1936,1826,1760
1911,1871,1892
1866,1947,1923
1857,1895,1814
1857,1847,1776
1802,1815,1730
1841,1869,1801
1888,1863,1841
1881,1858,1846
1936,1874,1898
1874,1846,1895
1823,1842,1793
1827,1842,1821
1936,1905,1872
1936,1927,1936
1843,1892,1884
1843,1891,1814
1874,1889,1819
1889,1871,1870
1869,1872,1786
1872,1931,1747
1858,1879,1799
1893,1825,1903
1872,1846,1883
1850,1840,1815
1823,1887,1797
1901,1939,1865
1938,1889,1898
1812,1815,1771
1795,1851,1790
1845,1907,1826
1856,1867,1811
1854,1814,1774
1877,1821,1840
1851,1888,1881
1799,1827,1834
1840,1840,1759
1915,1851,1771
1875,1863,1866
1791,1879,1815
1835,1875,1819
1867,1856,1840
1863,1808,1851
1859,1850,1818
1835,1877,1773
1859,1831,1850
1907,1814,1937
1887,1873,1909
1828,1881,1792
1869,1904,1818
1872,1881,1840
1910,1926,1804
1919,1905,1791
1881,1894,1850
1899,1932,1914
1836,1854,1866
1852,1859,1771
1905,1834,1823
1872,1876,1904
1874,1887,1893
1871,1897,1866
1892,1918,1804
1902,1936,1811
1979,1954,1951
1905,1856,1885
1871,1899,1808
1831,1875,1830
1846,1834,1883
1859,1840,1786
1946,1857,1843
1968,1922,1893
1872,1936,1887
1854,1905,1874
1857,1872,1872
1894,1871,1847
1901,1914,1856
1866,1872,1807
1873,1887,1859
1921,1872,1881
1919,1870,1840
1859,1788,1797
1840,1802,1830
1873,1901,1822
1917,1941,1824
1850,1851,1894
1840,1802,1909
1904,1827,1854
1963,1927,1783
1835,1850,1753
1799,1874,1837
1814,1906,1823
1854,1865,1906
1881,1855,1851
1907,1898,1827
1935,1925,1860
1927,1873,1877
1799,1821,1781
1763,1808,1754
1827,1863,1831
1959,1882,1776
1915,1854,1870
1814,1823,1895
1826,1889,1852
1844,1873,1802
1873,1863,1828
1962,1890,1856
1999,1839,1870
1898,1810,1840
1794,1861,1866
1808,1776,1893
1882,1903,1935
1922,1845,1861
1907,1853,1854
1872,1867,1872
1863,1889,1828
1895,1896,1846
1878,1845,1837
1892,1876,1901
1937,1868,1950
1946,1869,1825
1840,1853,1849
1887,1890,1833
1951,1889,1888
1909,1894,1967
1856,1930,1903
1828,1873,1821
1859,1899,1872
1909,1888,1890
1915,1933,1808
1933,1955,1842
1904,1924,1978
1840,1917,1921
1840,1842,1785
1895,1803,1907
1897,1856,1881
1863,1854,1812
1851,1815,1779
1923,1872,1902
1901,1891,1949
1877,1872,1833
1895,1854,1819
1834,1793,1822
1826,1909,1865
1904,1883,1814
1902,1834,1829
1781,1849,1815
1785,1810,1819
1843,1815,1877
1871,1847,1885
1915,1870,1861
1936,1877,1869
1858,1824,1840
1824,1885,1777
1909,1933,1874
1904,1872,1891
1859,1818,1836
1840,1841,1806
1840,1796,1851
1889,1781,1939
1874,1843,1858
1931,1804,1824
1966,1921,1887
1855,1854,1885
1828,1875,1799
1888,1837,1805
1881,1837,1902
1871,1857,1898
1870,1872,1849
1856,1844,1872
1886,1872,1896
1927,1891,1861
1845,1850,1814
1835,1842,1826
1889,1903,1936
1910,1870,1883
1873,1872,1817
1904,1893,1805
1897,1865,1856
1927,1855,1939
1872,1823,1887
1831,1846,1791
1884,1866,1840
1907,1881,1878
1866,1892,1867
1856,1851,1787
1850,1866,1846
1866,1872,1851
1881,1870,1892
1869,1883,1875
1874,1906,1824
1891,1856,1859
1915,1839,1911
1906,1855,1872
1917,1901,1886
1862,1898,1853
1821,1872,1822
1819,1853,1795
1866,1840,1830
1857,1839,1895
1837,1842,1845
1869,1869,1773
1914,1883,1791
1865,1874,1879
1852,1911,1869
1888,1872,1821
1904,1855,1879
1856,1861,1855
1904,1889,1789
1891,1875,1755
1901,1857,1871
1958,1872,1947
1885,1845,1846
1819,1866,1792
1819,1866,1815
1915,1898,1805
1904,1851,1871
1847,1815,1887
1856,1850,1879
1885,1867,1855
1863,1863,1809
1842,1838,1818
1887,1866,1824
1932,1889,1839
1955,1898,1856
1926,1918,1894
1831,1837,1861
1815,1831,1857
1874,1841,1830
1895,1846,1808
1926,1871,1815
1934,1898,1895
1862,1875,1891
1839,1831,1802
1860,1877,1789
1872,1872,1830
1907,1890,1872
1902,1899,1872
1995,1943,1947
1978,1897,1919
1904,1852,1855
1819,1808,1824
1841,1840,1855
1886,1872,1839
1901,1890,1825
1937,1879,1821
1918,1860,1897
1866,1854,1911
1841,1866,1861
1831,1882,1811
1872,1872,1849
1925,1871,1870
1909,1849,1887
1904,1867,1908
1923,1892,1868
1911,1851,1856
1950,1865,1887
1902,1856,1890
1882,1875,1856
1920,1904,1904
1882,1872,1931
1870,1857,1889
1925,1907,1899
