1885,1520,1909
1897,1576,1948
1911,1647,1945
1899,1605,1922
1889,1558,1857
1882,1574,1889
1897,1616,1959
1889,1633,1936
1872,1611,1923
1883,1619,1939
1910,1648,1968
1898,1652,1953
1871,1635,1920
1870,1642,1920
1891,1642,1938
1900,1647,1931
1867,1623,1905
1872,1636,1911
1884,1648,1946
1921,1663,1966
1945,1651,1921
1906,1663,1926
1840,1648,1969
1769,1648,1954
1872,1648,1907
1894,1664,1936
1867,1677,1987
1874,1689,1982
1799,1662,1924
1838,1666,1920
1899,1681,1952
1843,1667,1933
1800,1650,1899
1803,1665,1919
1842,1694,1953
1836,1695,1938
1873,1675,1892
1817,1679,1887
1806,1707,1920
1804,1706,1917
1838,1665,1872
1849,1667,1872
1873,1707,1903
1858,1721,1907
1839,1708,1854
1840,1697,1847
1840,1717,1872
1863,1716,1871
1874,1685,1835
1889,1711,1827
1904,1728,1868
1853,1725,1852
1835,1691,1809
1856,1713,1815
1894,1741,1837
1852,1717,1840
1826,1722,1810
1856,1744,1799
1843,1746,1805
1829,1725,1780
1815,1725,1779
1819,1739,1807
1840,1748,1820
1840,1765,1803
1806,1749,1762
1802,1753,1758
1803,1774,1792
1853,1777,1779
1808,1773,1734
1790,1762,1735
1811,1779,1765
1795,1835,1776
1786,1813,1749
1809,1731,1733
1797,1763,1746
1808,1781,1744
1762,1823,1739
1776,1871,1728
1808,1820,1740
1766,1802,1757
1770,1847,1742
1813,1887,1728
1822,1744,1735
1816,1776,1700
1775,1776,1680
1809,1830,1774
1821,1840,1759
1747,1719,1674
1757,1805,1706
1771,1779,1712
1845,1879,1759
1751,1744,1699
1682,1650,1649
1773,1747,1728
1758,1815,1767
1819,1830,1743
1743,1808,1699
1744,1823,1698
1812,1854,1718
1771,1772,1712
1777,1723,1679
1789,1729,1710
1789,1821,1741
1783,1862,1761
1764,1846,1716
1789,1864,1689
1808,1840,1723
1758,1762,1715
1764,1712,1695
1721,1766,1719
1789,1872,1746
1793,1839,1728
1775,1845,1679
1662,1779,1677
1788,1772,1726
1808,1773,1729
1713,1775,1681
1796,1792,1703
1829,1856,1742
1815,1885,1746
1765,1840,1673
1776,1793,1680
1806,1771,1721
1807,1801,1733
1782,1810,1695
1802,1875,1712
1827,1953,1712
1778,1825,1711
1731,1794,1681
1744,1807,1694
1829,1821,1719
1779,1818,1722
1744,1857,1711
1808,1872,1725
1778,1871,1730
1845,1875,1715
1794,1856,1670
1799,1842,1699
1867,1854,1738
1767,1851,1735
1744,1849,1706
1774,1865,1692
1738,1872,1739
1875,1874,1726
1786,1859,1687
1777,1895,1691
1819,1906,1748
1812,1882,1733
1841,1837,1680
1789,1871,1706
1803,1907,1742
1809,1886,1727
1791,1870,1699
1776,1883,1723
1877,1919,1754
1904,1941,1759
1839,1936,1749
1813,1914,1723
1788,1897,1717
1808,1904,1712
1779,1904,1690
1802,1895,1710
1852,1952,1803
1941,1979,1823
1793,1899,1713
1717,1830,1642
1737,1866,1664
1801,1921,1716
1849,1954,1724
1760,1872,1693
1740,1872,1694
1755,1885,1701
1798,1893,1686
1763,1884,1689
1690,1891,1713
1793,1915,1714
1778,1891,1680
1774,1872,1666
1809,1898,1710
1781,1893,1712
1744,1874,1690
1755,1893,1669
1763,1907,1696
1756,1886,1662
1758,1870,1645
1795,1883,1706
1799,1923,1722
1767,1891,1687
1771,1888,1671
1792,1904,1687
1783,1925,1692
1764,1907,1682
1747,1882,1649
1775,1899,1671
1776,1889,1682
1758,1874,1661
1754,1885,1649
1781,1936,1665
1782,1913,1680
1751,1889,1664
1739,1878,1645
1758,1890,1674
1791,1908,1700
1798,1929,1695
1780,1919,1670
1758,1887,1643
1779,1921,1685
1790,1955,1711
1727,1886,1622
1716,1872,1611
1760,1903,1658
1776,1905,1671
1776,1905,1653
1760,1904,1650
1776,1924,1691
1797,1946,1699
1779,1919,1641
1787,1925,1653
1785,1934,1677
1741,1917,1639
1711,1901,1595
1731,1909,1600
1759,1915,1650
1741,1893,1648
1729,1898,1616
1744,1913,1629
1787,1951,1680
1777,1947,1679
1734,1906,1619
1738,1905,1620
1765,1941,1659
1766,1954,1680
1776,1935,1653
1770,1925,1653
1771,1966,1682
1771,1984,1695
1755,1951,1653
1765,1936,1639
1771,1949,1674
1740,1943,1677
1710,1920,1639
1730,1952,1645
1774,1987,1681
1763,1987,1687
1737,1953,1664
1743,1967,1682
1757,2015,1673
1749,2018,1664
1744,2003,1663
1771,2033,1684
1779,2042,1671
1760,2035,1650
1739,2017,1636
1756,2030,1661
1776,2077,1712
1776,2096,1717
1751,2081,1666
1756,2084,1679
1776,2087,1712
1765,2086,1698
1759,2087,1682
1759,2080,1697
1769,2084,1716
1765,2093,1719
1744,2065,1666
1755,2073,1669
1789,2092,1727
1776,2098,1709
1747,2083,1675
1766,2087,1691
1834,2130,1758
1835,2128,1761
1733,2046,1682
1719,2041,1653
1778,2071,1709
1798,2080,1713
1767,2079,1689
1792,2091,1710
1851,2090,1726
1801,2079,1726
1741,2067,1698
1762,2074,1723
1787,2079,1746
1790,2093,1729
1776,2080,1702
1788,2080,1715
1811,2102,1753
1799,2101,1747
1787,2080,1714
1797,2083,1741
1814,2095,1743
1815,2095,1728
1809,2091,1727
1823,2103,1748
1821,2102,1761
1793,2097,1751
1770,2081,1713
1782,2085,1727
1808,2109,1776
1827,2127,1779
1798,2109,1729
1790,2093,1705
1802,2099,1735
1808,2124,1771
1777,2093,1724
1781,2085,1726
1819,2109,1765
1808,2127,1763
1783,2098,1734
1803,2096,1745
1833,2112,1776
1828,2127,1778
1818,2125,1759
1817,2103,1750
1833,2116,1768
1830,2109,1771
1802,2092,1744
1807,2098,1758
1815,2109,1776
1814,2113,1765
1803,2112,1724
1823,2108,1759
1856,2127,1818
1840,2113,1809
1815,2097,1780
1829,2106,1776
1842,2100,1777
1834,2150,1792
1826,2096,1776
1875,2096,1787
1843,2045,1767
1808,2075,1798
1799,2046,1796
1830,2047,1810
1869,2085,1834
1867,2071,1829
1840,2055,1794
1834,2055,1805
1853,2040,1829
1858,2097,1811
1840,2063,1779
1871,2064,1818
1877,2091,1843
1840,2064,1815
1819,2059,1792
1844,2031,1808
1873,2105,1840
1910,2119,1870
1859,2078,1808
1835,2011,1776
1861,2063,1802
1853,2065,1818
1838,2045,1820
1858,2061,1835
1873,2032,1858
1872,2087,1845
1850,2035,1809
1844,2029,1828
1881,2045,1861
1886,2070,1859
1872,2064,1826
1893,2055,1831
1908,2083,1879
1871,2053,1861
1851,2007,1823
1862,2043,1840
1885,2032,1871
1871,2033,1858
1856,2027,1828
1871,2043,1834
1904,2063,1870
1889,2045,1858
1871,2015,1832
1866,1984,1833
1889,2055,1855
1886,2008,1858
1868,1965,1842
1867,1998,1844
1902,2047,1869
1898,2002,1855
1869,1968,1840
1889,2016,1858
1897,2000,1895
1887,2015,1889
1865,2031,1840
1875,1987,1845
1904,1990,1872
1895,1973,1874
1872,1966,1840
1882,1970,1842
1905,2029,1872
1910,2005,1888
1897,1991,1854
1883,1975,1849
1895,1989,1865
1895,1990,1870
1878,1967,1858
1898,1981,1872
1909,1953,1889
1903,1994,1872
1879,1920,1840
1887,1910,1847
1904,2006,1871
1886,1936,1875
1871,1941,1842
1888,1970,1851
1907,1921,1877
1911,1959,1888
1895,1975,1852
1882,1946,1845
1891,1914,1883
1890,1964,1886
1893,1985,1848
1904,1935,1856
1922,1936,1902
1904,1926,1897
1886,1904,1862
1890,1933,1855
1904,1956,1874
1890,1987,1881
1882,1908,1859
1902,1919,1872
1925,1946,1905
1897,1911,1872
1863,1901,1841
1873,1903,1858
1917,1931,1909
1915,1921,1904
1881,1899,1861
1897,1899,1866
1920,1914,1920
1904,1917,1901
1874,1891,1858
1884,1857,1863
1909,1903,1887
1914,1872,1895
1894,1918,1869
1889,1862,1869
1905,1930,1889
1907,1913,1886
1887,1939,1861
1899,1849,1873
1918,1842,1908
1917,1872,1914
1899,1937,1865
1920,1865,1861
1939,1934,1907
1887,1873,1893
1858,1856,1874
1881,1839,1895
1919,1897,1904
1908,1888,1893
1890,1835,1860
1907,1854,1882
1933,1893,1909
1911,1887,1904
1881,1867,1867
1895,1872,1875
1911,1882,1903
1908,1893,1895
1889,1854,1867
1899,1847,1872
1920,1849,1906
1905,1873,1906
1886,1857,1866
1889,1894,1862
1913,1872,1903
1906,1870,1897
1882,1849,1867
1901,1858,1872
1922,1862,1895
1901,1849,1882
1885,1856,1861
1891,1857,1893
1904,1861,1926
1894,1839,1909
1869,1869,1871
1872,1814,1863
1901,1831,1883
1895,1744,1878
1877,1825,1851
1898,1793,1869
1902,1827,1894
1894,1856,1896
1877,1842,1873
1879,1871,1863
1907,1863,1886
1904,1863,1889
1887,1840,1861
1892,1840,1872
1906,1854,1901
1898,1853,1893
1875,1825,1857
1903,1821,1871
1915,1840,1897
1898,1843,1885
1888,1831,1861
1900,1840,1875
1919,1848,1889
1904,1845,1877
1875,1831,1845
1889,1826,1859
1918,1847,1902
1923,1858,1902
1904,1846,1882
1910,1828,1871
1907,1839,1886
1897,1839,1872
1874,1817,1847
1897,1803,1849
1911,1819,1871
1907,1840,1893
1879,1815,1853
1887,1835,1840
1920,1871,1884
1904,1824,1895
1872,1789,1856
1889,1808,1857
1920,1822,1886
1915,1837,1876
1884,1806,1841
1910,1830,1872
1956,1854,1899
1905,1810,1869
1849,1790,1839
1872,1793,1835
1905,1817,1851
1918,1863,1886
1921,1907,1889
1881,1808,1845
1877,1753,1845
1887,1808,1841
1872,1803,1829
1907,1747,1831
1905,1850,1873
1906,1981,1898
1894,1829,1861
1847,1659,1792
1922,1757,1872
1952,1878,1899
1879,1879,1834
1851,1764,1825
1898,1792,1787
1863,1779,1820
1858,1805,1847
1872,1927,1862
1895,1991,1843
1859,1761,1815
1877,1831,1803
1921,1846,1817
1909,1828,1843
1775,1793,1801
1802,1889,1792
1886,1969,1799
1863,1901,1826
1834,1877,1830
1808,1875,1792
1795,1930,1775
1825,2017,1792
1837,2082,1825
1845,2173,1781
1881,2224,1776
1861,2272,1835
1774,2243,1811
1798,2288,1792
1868,2256,1817
1839,2284,1766
1811,2324,1697
1861,2389,1824
1923,2403,1877
1819,2400,1827
1745,2448,1748
1807,2491,1740
1856,2479,1786
1811,2464,1718
1787,2467,1695
1745,2433,1686
1821,2522,1808
1898,2637,1885
1846,2604,1777
1755,2532,1693
1723,2559,1708
1719,2661,1777
1697,2687,1745
1764,2704,1765
1803,2731,1803
1740,2703,1793
1742,2681,1739
1731,2661,1703
1707,2663,1759
1734,2672,1759
1724,2677,1738
1677,2629,1731
1669,2624,1703
1744,2653,1755
1713,2611,1785
1678,2581,1751
1694,2579,1747
1776,2627,1830
1729,2548,1767
1674,2462,1739
1741,2519,1805
1738,2546,1773
1712,2506,1732
1712,2499,1763
1725,2461,1789
1782,2480,1835
1791,2496,1793
1771,2422,1767
1767,2416,1886
1700,2427,1863
1717,2418,1801
1703,2362,1712
1809,2442,1839
1808,2387,1849
1810,2371,1838
1765,2352,1744
1773,2343,1889
1783,2330,1952
1757,2335,1834
1744,2321,1731
1808,2308,1808
1840,2277,1844
1792,2284,1835
1771,2289,1833
1856,2306,1840
1833,2287,1791
1775,2283,1749
1733,2224,1647
1776,2233,1618
1874,2290,1648
1869,2263,1630
1805,2256,1527
1814,2269,1505
1831,2262,1584
1852,2256,1586
1776,2215,1472
1830,2277,1406
1872,2256,1584
1845,2211,1567
1821,2197,1529
1856,2241,1535
1835,2209,1475
1842,2176,1467
1823,2141,1441
1851,2148,1520
1913,2177,1567
1885,2161,1506
1837,2133,1458
1872,2144,1489
1862,2115,1495
1867,2116,1488
1874,2090,1492
1885,2046,1535
1863,2034,1530
1858,2034,1455
1874,2024,1472
1884,2015,1585
1914,2032,1590
1906,2025,1635
1867,1981,1555
1909,2007,1617
1924,1997,1646
1873,1969,1582
1869,1898,1571
1878,1869,1530
1901,1904,1571
1862,1869,1535
1858,1872,1506
1913,1912,1614
1935,1884,1602
1879,1853,1669
1875,1873,1652
1913,1881,1522
1934,1842,1575
1919,1821,1735
1895,1819,1658
1919,1854,1584
1950,1846,1694
1890,1770,1678
1819,1744,1580
1889,1771,1600
1935,1787,1673
1897,1776,1664
1904,1792,1669
1936,1789,1674
1941,1797,1708
1895,1731,1614
1891,1677,1597
1925,1727,1622
1930,1751,1658
1947,1723,1776
1885,1645,1684
1898,1673,1648
1872,1711,1639
1905,1690,1667
1885,1663,1703
1857,1658,1680
1900,1710,1744
1899,1690,1660
1911,1662,1722
1983,1715,1858
1995,1690,1794
1903,1599,1744
1843,1617,1651
1904,1666,1742
1874,1600,1764
1843,1584,1716
1903,1664,1709
1902,1641,1610
1923,1631,1808
1905,1614,1814
1890,1643,1759
1920,1657,1725
1923,1605,1847
1927,1619,1737
1939,1690,1736
1920,1649,1735
1867,1565,1793
1867,1587,1795
1863,1584,1756
1887,1611,1712
1892,1642,1768
1884,1599,1839
1872,1587,1811
1919,1603,1835
1915,1626,1783
1904,1616,1773
1901,1616,1808
1925,1638,1821
1933,1619,1798
1903,1581,1742
1862,1607,1751
1892,1616,1808
1889,1595,1840
1871,1600,1837
1866,1594,1789
1872,1603,1834
1922,1663,1851
1930,1622,1822
1883,1556,1798
1863,1600,1815
1919,1659,1847
1874,1599,1818
1856,1587,1858
1899,1602,1822
1914,1657,1790
1919,1637,1847
1866,1607,1792
1847,1587,1795
1891,1617,1840
1894,1625,1901
1846,1628,1804
1891,1647,1809
1948,1664,1833
1871,1623,1728
1852,1587,1713
1854,1591,1731
1899,1632,1724
1885,1615,1675
1885,1613,1702
1878,1616,1647
1893,1659,1648
1917,1663,1702
1931,1651,1756
1840,1614,1648
1871,1673,1630
1869,1659,1679
1900,1674,1633
1860,1595,1600
1856,1635,1623
1867,1685,1666
1876,1620,1648
1887,1617,1728
1900,1680,1744
1865,1645,1675
1887,1664,1695
1911,1690,1633
1921,1675,1709
1841,1623,1675
1817,1627,1615
1872,1677,1669
1921,1702,1733
1885,1647,1737
1837,1643,1630
1856,1687,1666
1890,1709,1730
1891,1709,1712
1875,1689,1679
1878,1677,1651
1904,1703,1757
1903,1698,1726
1870,1669,1686
1878,1659,1690
1904,1715,1774
1894,1730,1776
1856,1680,1721
1856,1680,1712
1872,1712,1734
1872,1713,1742
1850,1691,1727
1881,1703,1747
1888,1758,1791
1909,1756,1794
1907,1727,1746
1909,1707,1761
1915,1738,1791
1874,1723,1777
1827,1707,1735
1891,1738,1779
1905,1765,1808
1857,1743,1802
1856,1744,1811
1887,1763,1837
1923,1803,1847
1873,1763,1787
1904,1763,1838
1847,1728,1847
1857,1771,1872
1874,1791,1813
1907,1774,1818
1887,1745,1829
1904,1776,1852
1926,1794,1841
1903,1799,1783
1889,1766,1781
1921,1797,1853
1840,1786,1877
1793,1766,1847
1845,1759,1863
1904,1785,1879
1915,1807,1878
1933,1793,1871
1926,1901,1871
1942,1838,1848
1855,1686,1860
1801,1723,1853
1834,1791,1857
1931,1813,1899
1875,1834,1891
1905,1799,1871
1853,1797,1883
1866,1807,1875
1856,1808,1857
1883,1833,1815
1911,1845,1907
1965,1856,1979
1898,1801,1925
1887,1763,1870
1847,1806,1884
1854,1840,1937
1884,1835,1934
1833,1791,1872
1870,1793,1871
1905,1835,1894
1902,1851,1919
1867,1830,1882
1872,1819,1889
1904,1825,1931
1885,1823,1911
1887,1826,1870
1894,1835,1904
1892,1811,1937
1856,1813,1926
1857,1825,1918
1855,1819,1898
1835,1840,1910
1903,1853,1893
1890,1842,1920
1868,1809,1905
1839,1840,1931
1862,1843,1949
1879,1825,1932
1894,1836,1937
1872,1849,1933
1904,1840,1923
1851,1827,1919
1888,1790,1877
1858,1829,1893
1883,1890,1951
1923,1840,1965
1920,1809,1944
1898,1840,1947
1842,1831,1862
1890,1824,1897
1903,1863,1957
1919,1861,2003
1840,1808,1936
1865,1843,1906
1835,1835,1932
1909,1871,1965
1946,1871,1934
1830,1834,1857
1795,1844,1903
1874,1854,1953
1873,1856,2005
1847,1808,1937
1898,1856,1914
1882,1877,1908
1919,1865,1958
1830,1835,1934
1841,1842,1941
1872,1863,1949
1907,1868,1936
1850,1871,1931
1862,1858,1887
1835,1868,1942
1843,1861,1979
1840,1853,1943
1882,1872,1968
1892,1908,1927
1817,1837,1894
1841,1841,1914
1904,1892,1943
1936,1903,1978
1886,1878,1936
1790,1894,1952
1874,1859,1952
1872,1873,1963
1889,1866,1891
1870,1846,1929
1851,1861,1956
1904,1900,1974
1903,1917,1946
1872,1887,1951
1855,1858,1915
1882,1872,1957
1887,1890,1987
1898,1884,1936
1936,1918,1976
1867,1904,1964
1887,1872,1936
1955,1857,1920
1904,1862,1937
1866,1904,1946
1855,1904,1954
1883,1874,1933
1920,1894,1969
1935,1911,1990
1893,1919,1982
1840,1897,1921
1863,1891,1967
1937,1879,1934
1872,1886,1929
1842,1873,1942
1838,1852,1939
1862,1906,1959
1927,1913,1950
1888,1904,1964
1895,1875,1921
1856,1877,1904
1878,1904,1936
1911,1931,1922
1886,1872,1938
1899,1902,1997
1889,1879,1930
1837,1894,1860
1873,1910,1936
1875,1911,1970
1870,1909,1941
1902,1936,1843
1916,1891,1938
1847,1859,1987
1847,1885,1961
1865,1916,1926
1934,1904,1911
1853,1899,1907
1837,1897,1929
1803,1872,1906
1837,1901,1874
1873,1905,1904
1891,1878,1957
1854,1875,1966
1874,1894,1936
1887,1919,1948
1765,1875,1887
1898,1854,1841
1946,1893,1951
1871,1873,1923
1875,1862,1907
1877,1918,1918
1933,1950,1905
1933,1929,1967
1831,1871,1906
1794,1861,1847
1808,1808,1858
1875,1869,1909
1874,1877,1927
1835,1840,1867
1860,1856,1889
1921,1911,1981
1923,1919,1943
1850,1853,1853
1843,1919,1891
1875,1898,1933
1846,1851,1911
1859,1835,1891
1919,1856,1872
1889,1882,1914
1857,1904,1936
1862,1906,1907
1877,1854,1886
1868,1839,1887
1852,1890,1899
1810,1843,1813
1874,1857,1873
1884,1891,1948
1919,1920,1949
1859,1858,1884
1846,1861,1885
1917,1907,1903
1882,1904,1936
1808,1877,1898
1836,1889,1878
1874,1908,1888
1887,1905,1904
1850,1867,1881
1860,1857,1893
1904,1915,1951
1860,1901,1915
1856,1870,1869
1903,1896,1881
1895,1917,1917
1862,1890,1904
1870,1872,1877
1881,1888,1889
1903,1910,1931
1878,1886,1881
1855,1858,1859
1862,1875,1913
1901,1909,1952
1869,1913,1898
1909,1939,1939
1904,1907,1951
1886,1872,1905
1843,1861,1872
1847,1877,1867
1897,1914,1915
1876,1895,1897
1876,1874,1854
1855,1861,1861
1857,1873,1860
1898,1920,1920
1855,1902,1902
1831,1882,1833
1904,1904,1904
1931,1925,1981
1849,1868,1920
1822,1823,1840
1863,1889,1878
1875,1911,1877
1913,1899,1862
1877,1856,1847
1878,1899,1840
1875,1889,1874
1825,1846,1885
1803,1847,1855
1831,1872,1860
1863,1904,1928
1866,1872,1919
1845,1870,1862
1893,1892,1891
1904,1897,1893
1842,1872,1870
1834,1855,1825
1869,1875,1827
1931,1933,1891
1857,1869,1804
1834,1835,1845
1809,1840,1904
1835,1863,1870
1840,1894,1882
1821,1869,1861
1878,1861,1869
1915,1903,1931
1887,1894,1887
1824,1853,1851
1850,1859,1843
1872,1860,1852
1840,1872,1865
1872,1871,1861
1895,1915,1931
1840,1871,1870
1824,1825,1809
1846,1821,1809
1857,1846,1851
1872,1903,1887
1873,1890,1889
1849,1843,1873
1878,1872,1859
1893,1893,1904
1840,1871,1873
1835,1838,1821
1843,1851,1854
1885,1904,1900
1891,1893,1899
1854,1872,1845
1856,1841,1805
1862,1848,1847
1843,1877,1887
1809,1856,1826
1847,1862,1857
1893,1875,1889
1913,1872,1871
1863,1872,1829
1860,1891,1855
1891,1907,1917
1872,1873,1868
1811,1839,1770
1846,1877,1893
1877,1857,1899
1878,1861,1853
1840,1847,1826
1865,1840,1838
1872,1883,1870
1866,1901,1861
1820,1838,1812
1837,1840,1829
1856,1850,1835
1851,1853,1843
1839,1859,1851
1870,1863,1830
1903,1891,1873
1845,1895,1875
1856,1855,1856
1849,1839,1850
1883,1867,1849
1879,1866,1822
1840,1845,1872
1829,1829,1872
1857,1856,1819
1868,1904,1861
1845,1808,1846
1853,1819,1810
1872,1923,1835
1906,1891,1861
1859,1791,1815
1807,1869,1831
1849,1905,1883
1853,1861,1875
1894,1842,1862
1889,1907,1866
1882,1836,1872
1845,1819,1813
1867,1837,1803
1897,1893,1865
1871,1903,1853
1823,1846,1844
1857,1837,1861
1890,1874,1853
1922,1894,1858
1902,1958,1919
1824,1856,1847
1827,1858,1840
1884,1883,1872
1835,1818,1835
1821,1838,1792
1847,1873,1831
1914,1924,1887
1881,1872,1893
1816,1798,1822
1867,1890,1813
1895,1877,1851
1931,1899,1851
1879,1869,1840
1815,1856,1873
1840,1858,1902
1852,1882,1861
1840,1863,1815
1856,1859,1808
1873,1907,1853
1932,1922,1861
1872,1869,1862
1833,1901,1866
1853,1883,1840
1864,1889,1781
1887,1854,1835
1914,1831,1891
1904,1927,1935
1902,1959,1898
1904,1903,1866
1840,1865,1843
1856,1926,1872
1872,1899,1858
1855,1852,1814
1865,1868,1826
1893,1879,1895
1872,1891,1877
1818,1849,1818
1872,1869,1831
1938,1900,1833
1915,1911,1833
1910,1898,1887
1863,1898,1869
1840,1846,1886
1826,1919,1862
1890,1933,1872
1915,1906,1842
1883,1851,1840
1866,1834,1860
1861,1850,1786
1895,1847,1837
1845,1938,1896
1818,1872,1841
1838,1857,1819
1893,1884,1821
1872,1888,1893
1890,1884,1895
1904,1872,1850
1917,1872,1848
1883,1942,1862
1808,1914,1818
1815,1820,1810
1870,1840,1846
1891,1895,1853
1891,1850,1866
1872,1871,1825
1847,1872,1861
1883,1873,1873
1890,1808,1847
1860,1877,1812
1828,1841,1838
1846,1862,1860
1875,1875,1846
1879,1894,1873
1904,1914,1885
1856,1875,1827
1841,1866,1847
1899,1891,1879
1927,1875,1856
1869,1904,1795
1808,1782,1763
1808,1840,1852
1824,1856,1878
1852,1814,1859
1883,1852,1833
1870,1851,1807
1827,1883,1840
1874,1923,1869
1876,1901,1885
1840,1843,1791
1818,1872,1813
1815,1878,1838
1839,1891,1850
1899,1914,1930
1855,1872,1839
1825,1865,1835
1809,1873,1815
1819,1798,1790
1859,1918,1861
1835,1866,1872
1818,1879,1806
1860,1866,1810
1904,1856,1852
1852,1881,1872
1837,1870,1847
1796,1890,1819
1855,1855,1830
1882,1886,1844
1846,1875,1863
1808,1847,1808
1843,1870,1846
1870,1827,1852
1829,1820,1815
1798,1811,1786
1852,1855,1808
1905,1953,1848
1867,1936,1858
1767,1831,1840
1817,1858,1836
1927,1873,1858
1911,1872,1819
1802,1872,1792
1791,1922,1841
1835,1877,1858
1871,1865,1840
1843,1872,1791
1872,1904,1837
1871,1879,1881
1825,1851,1830
1783,1887,1801
1840,1850,1833
1868,1907,1857
1811,1842,1833
1799,1819,1799
1859,1861,1840
1892,1881,1830
1818,1847,1799
1810,1822,1877
1808,1835,1840
1835,1826,1808
1804,1829,1821
1823,1872,1856
1846,1844,1826
1900,1861,1856
1824,1835,1829
1808,1854,1815
1809,1851,1808
1826,1856,1799
1826,1827,1808
1823,1830,1801
1868,1841,1840
1875,1904,1923
1871,1881,1866
1842,1840,1802
1857,1826,1813
1838,1861,1872
1828,1863,1838
1817,1855,1804
1821,1834,1840
1842,1856,1872
1860,1878,1878
1838,1845,1802
1846,1866,1841
1897,1904,1891
1874,1865,1856
1831,1846,1825
1842,1885,1903
1901,1891,1871
1862,1838,1825
1841,1840,1818
1879,1879,1862
1872,1898,1857
1857,1877,1814
1825,1855,1856
1837,1870,1869
1901,1894,1897
1881,1905,1891
1856,1879,1858
1914,1899,1861
1877,1879,1842
1861,1856,1839
1840,1853,1835
1895,1889,1875
1920,1922,1917
1844,1850,1877
1838,1861,1828
1875,1846,1811
1870,1888,1854
1863,1897,1855
1866,1870,1841
1890,1868,1867
1911,1911,1905
1889,1920,1872
1869,1887,1855
1921,1883,1847
1935,1891,1880
1855,1878,1872
1856,1893,1893
1877,1905,1874
1904,1911,1893
1918,1874,1881
1863,1843,1801
1842,1852,1849
1898,1913,1919
1878,1899,1855
1862,1870,1843
1887,1882,1855
1900,1907,1858
1875,1892,1875
1840,1855,1839
1893,1857,1843
1911,1895,1863
1879,1891,1874
1861,1870,1893
1872,1883,1915
1874,1904,1850
1865,1879,1825
1882,1855,1830
1882,1862,1841
1872,1893,1877
1836,1873,1834
1840,1861,1817
1882,1860,1834
1968,1905,1885
1863,1882,1867
1825,1857,1872
1857,1885,1847
1898,1904,1856
1884,1904,1887
1833,1857,1893
1841,1877,1871
1910,1904,1877
1851,1861,1815
1867,1857,1808
1885,1843,1815
1883,1879,1845
1885,1904,1895
1881,1888,1904
1868,1904,1879
1883,1902,1853
1889,1883,1857
1872,1869,1863
1889,1915,1895
1878,1922,1872
1877,1886,1841
1868,1840,1820
1893,1859,1859
1895,1909,1881
1875,1872,1826
1878,1825,1830
1915,1878,1872
1933,1903,1917
1861,1904,1888
1840,1885,1819
1887,1882,1819
1857,1875,1856
1869,1867,1872
1866,1858,1824
1925,1885,1852
1926,1921,1895
1869,1879,1872
1872,1851,1854
1875,1866,1827
1906,1898,1872
1886,1873,1865
1849,1872,1861
1900,1907,1869
1914,1891,1872
1847,1882,1857
1869,1873,1867
1933,1886,1875
1888,1903,1877
1845,1857,1814
1831,1843,1819
1864,1840,1869
1898,1873,1904
1915,1918,1895
1885,1853,1806
1859,1852,1849
1882,1890,1898
1882,1889,1880
1885,1902,1872
1891,1899,1905
1919,1903,1906
1908,1847,1835
1872,1855,1837
1857,1881,1858
1887,1872,1910
1904,1854,1873
1866,1847,1831
1871,1858,1838
1887,1863,1859
1895,1872,1858
1941,1904,1851
1895,1895,1874
1899,1873,1877
1846,1858,1903
1827,1856,1815
1883,1894,1872
1931,1930,1890
1905,1897,1859
1847,1841,1825
1890,1852,1894
1876,1876,1904
1840,1857,1866
1851,1849,1863
1965,1928,1921
1937,1918,1924
1853,1863,1831
1830,1839,1853
1895,1857,1871
1921,1885,1903
1884,1904,1869
1911,1895,1873
1916,1859,1897
1882,1882,1923
1838,1862,1899
1851,1851,1858
1926,1902,1892
1919,1904,1936
1900,1875,1875
1887,1867,1922
1905,1897,1917
1898,1915,1875
1862,1865,1838
1877,1889,1822
1927,1910,1919
1916,1885,1931
1902,1877,1903
1868,1841,1887
1862,1884,1874
1866,1889,1897
1872,1892,1863
1919,1850,1857
1914,1883,1903
1897,1919,1969
1915,1903,1901
1901,1878,1903
1877,1866,1863
1881,1898,1922
1878,1895,1919
1898,1870,1872
1888,1855,1900
1930,1932,1931
1943,1867,1893
1846,1853,1877
1872,1874,1892
1917,1906,1903
1863,1859,1880
1845,1841,1847
1872,1856,1834
1927,1899,1870
1890,1894,1933
1865,1863,1941
1894,1872,1892
1919,1898,1900
1897,1904,1833
1906,1888,1841
1935,1885,1946
1890,1865,1931
1871,1878,1841
1859,1840,1776
1875,1872,1853
1867,1873,1936
1874,1855,1869
1890,1851,1876
1917,1879,1902
1937,1918,1936
1879,1903,1908
1861,1845,1872
1904,1885,1902
1930,1915,1922
1929,1862,1911
1857,1826,1840
1868,1893,1914
1905,1917,1873
1922,1897,1892
1910,1893,1920
1875,1867,1841
1869,1869,1868
1871,1869,1856
1903,1866,1866
1901,1863,1883
1895,1885,1884
1867,1898,1858
1872,1879,1874
1919,1881,1949
1927,1904,1949
1887,1904,1919
1887,1899,1844
1919,1903,1858
1915,1889,1953
1862,1898,1934
1856,1875,1793
1881,1884,1881
1919,1903,1857
1934,1893,1872
1869,1850,1761
1885,1887,1915
1890,1904,1906
1862,1856,1900
1871,1869,1846
1920,1883,1783
1964,1908,1925
1883,1891,1850
1901,1866,1817
1879,1885,1855
1898,1905,1935
1858,1870,1856
1891,1886,1869
1890,1904,1869
1920,1906,1910
1883,1893,1896
1849,1872,1841
1898,1884,1855
1887,1873,1871
1881,1889,1851
1887,1862,1840
1873,1854,1833
1917,1915,1872
1904,1887,1871
1875,1878,1904
1872,1862,1845
1874,1898,1872
1882,1890,1785
1897,1867,1850
1890,1881,1879
1889,1881,1874
1865,1875,1898
1862,1867,1870
1872,1872,1829
1903,1890,1889
1907,1889,1868
1901,1863,1830
1861,1861,1892
1913,1920,1904
1872,1870,1805
1843,1811,1804
1901,1847,1927
1893,1904,1901
1874,1903,1856
1866,1891,1810
1872,1881,1871
1911,1902,1874
1871,1850,1848
1858,1844,1818
1887,1875,1854
1902,1878,1878
1904,1856,1843
1856,1845,1819
