1853,1870,1830
1875,1890,1846
1855,1856,1787
1872,1861,1802
1903,1859,1846
1902,1905,1900
1901,1905,1866
1861,1877,1861
1852,1869,1798
1865,1853,1810
1892,1859,1856
1841,1857,1843
1855,1867,1826
1883,1874,1852
1904,1903,1852
1897,1889,1819
1856,1869,1857
1858,1887,1865
1895,1904,1821
1927,1887,1855
1897,1863,1856
1933,1899,1875
1886,1881,1861
1867,1872,1844
1814,1829,1798
1847,1857,1849
1872,1887,1869
1894,1862,1841
1894,1847,1840
1882,1863,1871
1956,1906,1899
1882,1866,1816
1887,1868,1823
1871,1898,1863
1875,1897,1906
1886,1874,1849
1878,1867,1799
1899,1904,1872
1935,1895,1872
1874,1856,1823
1849,1856,1825
1843,1918,1877
1923,1903,1837
1918,1852,1801
1872,1861,1819
1857,1872,1870
1856,1897,1891
1834,1883,1845
1855,1872,1808
1887,1862,1847
1899,1882,1867
1872,1873,1842
1881,1856,1830
1872,1872,1826
1886,1902,1858
1843,1877,1870
1849,1841,1826
1867,1866,1860
1883,1903,1817
1856,1885,1809
1861,1856,1840
1897,1872,1856
1911,1872,1858
1879,1867,1856
1904,1859,1808
1855,1869,1807
1856,1883,1855
1878,1920,1856
1840,1889,1837
1871,1845,1811
1884,1849,1828
1887,1852,1813
1857,1857,1795
1898,1893,1823
1854,1859,1828
1900,1886,1884
1839,1867,1888
1841,1845,1846
1905,1872,1826
1885,1876,1813
1831,1868,1835
1907,1870,1853
1893,1857,1859
1789,1824,1824
1879,1838,1803
1934,1874,1858
1904,1903,1872
1888,1878,1841
1863,1851,1823
1862,1851,1863
1921,1871,1860
1841,1871,1838
1829,1841,1812
1884,1875,1839
1889,1879,1834
1858,1857,1817
1881,1857,1820
1953,1908,1885
1907,1886,1840
1815,1840,1807
1863,1819,1814
1878,1857,1866
1887,1890,1885
1897,1906,1871
1884,1903,1877
1916,1858,1808
1845,1852,1804
1837,1861,1825
1891,1840,1807
1921,1896,1856
1846,1872,1855
1872,1881,1852
1873,1870,1840
1881,1841,1819
1939,1853,1826
1909,1882,1847
1898,1865,1838
1853,1889,1857
1901,1915,1902
1898,1840,1837
1852,1801,1794
1872,1869,1808
1882,1901,1841
1866,1895,1837
1878,1875,1847
1874,1847,1825
1857,1856,1842
1862,1861,1826
1895,1894,1861
1877,1872,1795
1864,1875,1830
1870,1856,1859
1869,1855,1841
1871,1872,1857
1919,1891,1872
1838,1887,1846
1939,1889,1835
1924,1894,1847
1843,1872,1838
1788,1838,1789
1777,1824,1799
1811,1865,1829
1947,1889,1892
1860,1866,1834
1799,1835,1787
1904,1863,1817
1857,1871,1872
1870,1871,1874
1877,1858,1829
1821,1862,1807
1929,1866,1847
1860,1883,1855
1901,1888,1862
1869,1873,1837
1861,1885,1873
1840,1858,1845
1856,1841,1800
1824,1870,1808
1866,1886,1818
1941,1890,1859
1853,1859,1846
1887,1835,1808
1811,1847,1809
1810,1854,1829
1846,1856,1831
1906,1871,1862
1866,1877,1828
1847,1872,1841
1863,1856,1835
1890,1882,1873
1872,1871,1833
1825,1874,1823
1832,1843,1847
1843,1890,1849
1859,1895,1872
1904,1846,1840
1810,1841,1808
1821,1867,1842
1879,1880,1884
1894,1863,1832
1872,1871,1815
1909,1888,1844
1937,1879,1872
1810,1859,1843
1817,1850,1814
1879,1872,1829
1883,1890,1835
1850,1857,1843
1837,1844,1840
1870,1882,1853
1870,1890,1876
1852,1877,1872
1887,1879,1902
1808,1808,1802
1818,1830,1817
1834,1845,1840
1863,1855,1844
1923,1868,1834
1877,1875,1819
1858,1858,1853
1853,1847,1845
1891,1873,1898
1909,1891,1906
1845,1856,1818
1840,1825,1790
1871,1853,1845
1877,1873,1861
1849,1862,1836
1899,1871,1847
1885,1856,1838
1883,1858,1853
1888,1862,1866
1856,1839,1829
1862,1853,1851
1863,1854,1866
1841,1877,1847
1889,1887,1836
1858,1870,1834
1868,1878,1867
1851,1850,1812
1855,1853,1830
1874,1876,1839
1881,1905,1851
1856,1895,1859
1847,1856,1852
1889,1872,1889
1847,1869,1889
1801,1821,1813
1842,1839,1805
1897,1865,1883
1918,1884,1887
1910,1889,1865
1847,1850,1815
1818,1876,1831
1825,1874,1840
1901,1887,1835
1888,1850,1794
1879,1871,1819
1862,1911,1908
1826,1837,1840
1808,1794,1793
1844,1839,1840
1889,1867,1865
1863,1860,1822
1847,1861,1825
1869,1856,1840
1879,1893,1854
1883,1883,1854
1888,1858,1846
1873,1849,1819
1862,1898,1822
1856,1858,1827
1901,1837,1847
1889,1833,1823
1871,1866,1837
1849,1863,1842
1881,1881,1824
1904,1874,1829
1840,1842,1867
1802,1836,1837
1867,1858,1851
1872,1857,1827
1879,1877,1807
1874,1860,1786
1873,1857,1809
1884,1904,1895
1875,1906,1893
1835,1866,1835
1843,1840,1786
1890,1855,1839
1904,1895,1856
1876,1890,1809
1851,1891,1808
1905,1914,1907
1855,1857,1883
1829,1842,1803
1856,1830,1794
1882,1875,1859
1841,1874,1858
1808,1850,1804
1837,1849,1806
1873,1887,1842
1901,1886,1869
1863,1867,1821
1862,1895,1853
1872,1882,1851
1861,1860,1821
1879,1869,1806
1873,1875,1823
1901,1847,1851
1898,1856,1858
1819,1841,1840
1798,1827,1831
1865,1845,1812
1932,1899,1861
1843,1870,1851
1839,1872,1856
1847,1872,1843
1837,1867,1840
1837,1845,1825
1862,1861,1795
1888,1904,1857
1899,1891,1886
1869,1877,1859
1839,1865,1845
1892,1874,1857
1919,1895,1849
1869,1861,1798
1834,1858,1803
1855,1862,1840
1837,1883,1829
1834,1869,1840
1874,1901,1873
1873,1886,1840
1885,1868,1808
1837,1839,1787
1839,1861,1846
1930,1894,1891
1869,1875,1866
1872,1875,1847
1843,1850,1811
1877,1856,1825
1862,1865,1808
1887,1872,1842
1867,1859,1859
1836,1856,1851
1859,1899,1857
1843,1865,1824
1908,1863,1843
1893,1866,1863
1876,1885,1854
1859,1856,1807
1835,1829,1798
1860,1867,1872
1936,1919,1891
1883,1899,1853
1850,1863,1818
1892,1840,1838
1882,1869,1856
1834,1892,1856
1843,1889,1853
1894,1867,1856
1856,1902,1840
1829,1819,1797
1890,1815,1840
1941,1891,1893
1871,1867,1857
1840,1867,1859
1808,1841,1818
1872,1842,1858
1890,1879,1861
1883,1907,1833
1879,1865,1806
1893,1883,1857
1902,1907,1904
1835,1855,1846
1813,1848,1818
1846,1917,1842
1895,1903,1835
1929,1855,1821
1882,1856,1852
1813,1879,1851
1847,1891,1861
1878,1865,1855
1906,1897,1837
1895,1857,1840
1863,1821,1837
1867,1856,1808
1903,1826,1810
1847,1866,1875
1853,1851,1851
1825,1865,1814
1803,1837,1814
1905,1871,1856
1878,1947,1856
1826,1861,1840
1853,1828,1877
1899,1867,1871
1875,1898,1832
1883,1891,1826
1882,1892,1865
1897,1872,1857
1880,1863,1808
1847,1831,1792
1827,1856,1842
1813,1815,1841
1851,1878,1842
1867,1882,1826
1936,1878,1853
1917,1882,1885
1866,1930,1858
1814,1809,1807
1826,1847,1829
1859,1838,1856
1889,1876,1869
1872,1840,1799
1931,1906,1823
1911,1890,1887
1887,1902,1906
1820,1831,1790
1809,1809,1772
1859,1815,1840
1888,1906,1839
1878,1857,1841
1834,1895,1843
1872,1868,1860
1909,1908,1879
1858,1838,1851
1835,1797,1817
1873,1822,1831
1903,1920,1848
1872,1891,1843
1851,1792,1835
1865,1840,1840
1888,1825,1843
1872,1841,1831
1886,1867,1856
1915,1853,1871
1869,1889,1858
1838,1895,1840
1845,1830,1834
1904,1931,1867
1879,1807,1833
1871,1827,1836
1840,1889,1839
1859,1882,1846
1874,1905,1869
1877,1934,1872
1895,1873,1867
1877,1862,1829
1831,1824,1799
1847,1846,1821
1897,1857,1806
1895,1886,1843
1854,1862,1861
1849,1857,1811
1869,1888,1872
1899,1890,1894
1890,1872,1863
1861,1858,1824
1847,1849,1821
1887,1920,1840
1888,1831,1854
1842,1871,1819
1856,1882,1826
1877,1983,1858
1856,1901,1829
1857,1892,1819
1877,1867,1836
1902,1846,1849
1871,1892,1879
1878,1923,1850
1866,1853,1843
1852,1885,1860
1872,1856,1840
1845,1843,1812
1888,1863,1882
1889,1919,1887
1874,1875,1853
1871,1839,1781
1907,1890,1787
1936,1908,1865
1890,1877,1843
1826,1866,1810
1815,1839,1786
1861,1859,1869
1901,1927,1904
1888,1915,1873
1849,1837,1805
1852,1827,1827
1872,1900,1883
1889,1878,1879
1853,1863,1824
1842,1850,1810
1863,1882,1858
1867,1863,1810
1882,1875,1851
1856,1845,1819
1850,1865,1807
1841,1845,1763
1906,1894,1866
1891,1859,1920
1863,1893,1904
1831,1854,1825
1872,1877,1834
1947,1920,1887
1907,1872,1865
1829,1859,1808
1855,1920,1869
1847,1789,1850
1877,1915,1851
1845,1825,1786
1840,1788,1808
1861,1891,1861
1875,1904,1831
1872,1871,1847
1897,1857,1838
1869,1872,1872
1875,1889,1895
1853,1872,1856
1898,1902,1871
1906,1920,1900
1899,1891,1863
1838,1843,1824
1929,1887,1873
1911,1904,1856
1873,1875,1837
1808,1839,1820
1830,1865,1851
1872,1891,1842
1895,1875,1867
1897,1882,1840
1909,1893,1837
1920,1874,1870
1904,1871,1853
1867,1877,1859
1870,1851,1835
1882,1879,1891
1892,1911,1909
1891,1882,1872
1906,1856,1813
1953,1899,1850
1837,1869,1842
1847,1868,1840
1845,1856,1841
1879,1874,1860
1904,1895,1854
1875,1870,1831
1862,1859,1831
1904,1886,1882
1927,1919,1903
1893,1909,1839
1878,1869,1830
1904,1895,1901
1862,1847,1853
1821,1839,1769
1895,1872,1837
1917,1885,1863
1905,1897,1851
1854,1851,1834
1843,1845,1815
1876,1879,1844
1861,1863,1861
1850,1861,1840
1867,1872,1836
1939,1917,1856
1914,1872,1865
1883,1854,1869
1895,1856,1843
1911,1909,1872
1862,1857,1825
1850,1832,1794
1871,1866,1846
1885,1872,1872
1891,1872,1868
1844,1872,1808
1859,1887,1841
1843,1840,1840
1878,1885,1847
1859,1867,1811
1851,1835,1785
1909,1876,1855
1914,1901,1882
1885,1899,1841
1872,1857,1839
1847,1855,1845
1819,1867,1832
1810,1870,1819
1874,1877,1855
1891,1879,1845
1879,1865,1808
1870,1851,1803
1862,1858,1831
1885,1871,1877
1885,1869,1866
1821,1831,1790
1845,1847,1795
1868,1859,1853
1904,1894,1872
1877,1856,1808
1941,1879,1861
1872,1853,1858
1818,1861,1850
1839,1843,1818
1879,1834,1806
1898,1874,1865
1872,1872,1841
1867,1867,1826
1865,1847,1825
1891,1879,1862
1891,1889,1829
1865,1882,1835
1840,1843,1834
1862,1865,1867
1885,1886,1873
1855,1854,1789
1877,1867,1788
1949,1896,1887
1923,1903,1902
1843,1843,1797
1808,1818,1792
1894,1894,1872
1867,1868,1845
1835,1829,1782
1902,1849,1786
1899,1900,1846
1853,1872,1867
1828,1847,1829
1851,1851,1842
1885,1853,1838
1891,1878,1869
1872,1858,1810
1866,1857,1805
1854,1885,1863
1848,1887,1879
1856,1861,1811
1870,1856,1823
1927,1913,1872
1904,1922,1889
1809,1823,1776
1835,1840,1811
1871,1863,1866
1849,1886,1841
1845,1867,1841
1936,1867,1882
1904,1867,1853
1878,1874,1801
1826,1870,1808
1850,1853,1830
1869,1872,1863
1869,1887,1856
1859,1875,1834
1876,1867,1839
1904,1887,1873
1906,1887,1849
1848,1843,1802
1872,1843,1829
1905,1866,1876
1872,1905,1882
1819,1862,1798
1866,1862,1801
1906,1899,1889
1855,1868,1871
1841,1839,1834
1843,1854,1824
1879,1888,1834
1933,1923,1858
1889,1872,1869
1851,1863,1808
1889,1885,1865
1859,1856,1866
1851,1823,1799
1863,1858,1880
1867,1881,1845
1867,1881,1840
1881,1859,1817
1886,1859,1801
1907,1872,1826
1933,1904,1887
1841,1855,1809
1825,1841,1793
1850,1867,1851
1854,1872,1846
1851,1892,1814
1889,1897,1841
1913,1870,1847
1894,1853,1872
1847,1855,1814
1840,1882,1837
1883,1882,1877
1885,1878,1904
1881,1849,1851
1866,1856,1804
1845,1869,1852
1879,1905,1879
1887,1895,1899
1872,1881,1847
1873,1871,1808
1850,1863,1825
1833,1857,1866
1853,1863,1839
1876,1872,1872
1856,1853,1854
1873,1861,1809
1885,1865,1803
1863,1889,1814
1839,1874,1866
1851,1893,1836
1862,1886,1799
1882,1904,1814
1939,1904,1882
1847,1847,1868
1799,1825,1838
1836,1867,1890
1872,1904,1842
1857,1847,1815
1879,1854,1867
1867,1872,1841
1843,1870,1835
1843,1875,1889
1868,1872,1872
1862,1873,1847
1856,1872,1843
1850,1867,1863
1845,1866,1799
1871,1863,1894
1941,1897,1911
1871,1859,1872
1856,1876,1856
1867,1879,1842
1849,1874,1842
1865,1850,1747
1903,1865,1790
1898,1899,1841
1840,1901,1865
1823,1862,1839
1869,1871,1828
1920,1907,1872
1856,1877,1894
1808,1840,1835
1872,1859,1835
1919,1889,1930
1875,1885,1856
1823,1822,1792
1859,1835,1844
1920,1872,1831
1907,1906,1899
1830,1871,1883
1851,1874,1776
1871,1889,1893
1910,1921,1911
1890,1855,1865
1842,1828,1839
1900,1873,1843
1898,1901,1873
1825,1863,1802
1865,1874,1838
1872,1873,1904
1866,1879,1901
1842,1845,1875
1877,1847,1795
1917,1891,1851
1879,1891,1898
1854,1898,1877
1883,1873,1790
1933,1893,1883
1847,1863,1895
1825,1858,1895
1842,1851,1818
1907,1923,1844
1875,1903,1840
1860,1856,1861
1869,1852,1755
1879,1872,1796
1855,1875,1936
1849,1867,1936
1875,1888,1890
1881,1877,1859
1894,1903,1887
1894,1882,1870
1859,1857,1805
1867,1895,1814
1861,1902,1889
1873,1891,1882
1885,1853,1818
1842,1867,1872
1857,1872,1909
1840,1858,1869
1841,1872,1843
1872,1870,1847
1911,1889,1854
1904,1872,1806
1873,1857,1840
1893,1904,1938
1834,1877,1926
1827,1872,1827
1853,1866,1755
1881,1898,1848
1907,1887,1883
1907,1904,1857
1885,1895,1871
1855,1853,1855
1823,1849,1850
1802,1847,1834
1839,1871,1818
1865,1882,1857
1853,1875,1861
1862,1862,1866
1893,1865,1825
1914,1892,1868
1867,1878,1901
1855,1901,1869
1840,1886,1856
1840,1868,1813
1876,1878,1855
1875,1872,1852
1857,1874,1773
1891,1879,1793
1900,1913,1904
1870,1868,1888
1819,1856,1805
1808,1846,1813
1835,1856,1840
1867,1878,1867
1883,1868,1827
1895,1889,1820
1881,1891,1845
1873,1858,1834
1893,1888,1891
1838,1869,1852
1819,1872,1808
1851,1853,1808
1921,1873,1872
1881,1870,1859
1846,1867,1861
1841,1856,1827
1857,1875,1836
1861,1887,1875
1871,1861,1843
1854,1840,1840
1859,1860,1823
1939,1903,1874
1904,1890,1881
1830,1853,1808
1855,1872,1855
1893,1861,1886
1865,1855,1843
1847,1869,1808
1905,1886,1856
1899,1883,1862
1914,1863,1822
1849,1856,1855
1847,1874,1870
1863,1872,1840
1926,1870,1835
1842,1884,1845
1890,1883,1857
1856,1890,1867
1830,1890,1851
1867,1871,1831
1887,1897,1872
1963,1913,1867
1885,1893,1854
1845,1887,1845
1886,1878,1841
1839,1869,1823
1872,1873,1850
1853,1862,1810
1844,1856,1840
1886,1872,1854
1929,1903,1859
1910,1902,1842
1855,1873,1814
1861,1872,1829
1859,1855,1830
1874,1877,1872
1913,1879,1865
1856,1842,1834
1871,1893,1847
1870,1865,1823
1869,1872,1840
1830,1872,1872
1851,1858,1838
1870,1856,1795
1863,1855,1795
1851,1887,1839
1883,1888,1893
1852,1877,1855
1914,1866,1836
1885,1852,1827
1839,1870,1866
1842,1873,1837
1911,1872,1843
1887,1866,1814
1822,1857,1833
1841,1831,1819
1872,1859,1840
1919,1887,1837
1901,1883,1841
1855,1855,1797
1849,1840,1849
1858,1909,1904
1899,1887,1858
1940,1855,1808
1866,1869,1825
1817,1886,1883
1931,1902,1872
1840,1847,1839
1831,1871,1855
1909,1881,1857
1886,1895,1856
1866,1851,1803
1877,1839,1795
1872,1872,1857
1883,1863,1826
1891,1869,1835
1867,1887,1832
1856,1895,1825
1907,1879,1877
1920,1854,1845
1915,1882,1836
1831,1885,1851
1882,1887,1882
1845,1839,1835
1917,1851,1782
1972,1911,1874
1903,1902,1879
1830,1840,1785
1866,1822,1790
1856,1846,1847
1844,1872,1840
1851,1865,1808
1895,1885,1842
1904,1903,1859
1904,1886,1857
1850,1877,1811
1869,1872,1852
1937,1870,1876
1826,1873,1863
1853,1846,1774
1846,1849,1810
1957,1883,1872
1910,1898,1895
1878,1855,1794
1824,1840,1808
1874,1854,1830
1887,1893,1831
1859,1849,1831
1893,1861,1865
1863,1884,1855
1913,1902,1879
1854,1830,1829
1855,1840,1847
1858,1856,1856
1840,1877,1847
1856,1867,1837
1921,1871,1839
1934,1890,1871
1886,1882,1898
1790,1830,1818
1853,1814,1760
1835,1879,1813
1872,1881,1829
1840,1872,1855
1903,1867,1861
1910,1886,1872
1881,1903,1886
1893,1895,1858
1797,1829,1811
1843,1849,1851
1829,1867,1822
1857,1853,1798
1826,1849,1840
1899,1905,1901
1889,1899,1887
1865,1862,1810
1892,1867,1858
1948,1874,1865
1860,1873,1831
1901,1858,1799
1840,1872,1853
1879,1872,1881
1910,1831,1825
1831,1834,1817
1902,1866,1868
1954,1908,1905
1862,1881,1826
1805,1846,1794
1814,1840,1815
1872,1867,1871
1933,1918,1895
1902,1859,1851
1860,1846,1840
1875,1891,1863
1911,1903,1855
1825,1895,1821
1904,1869,1808
1901,1853,1862
1921,1872,1882
1779,1850,1855
1909,1838,1841
1872,1863,1845
1881,1872,1849
1857,1866,1840
1918,1878,1849
1971,1885,1854
1846,1883,1863
1810,1865,1854
1862,1875,1858
1891,1887,1840
1864,1869,1842
1845,1875,1831
1873,1890,1862
1920,1893,1901
1954,1905,1900
1886,1841,1802
1842,1830,1777
1828,1834,1834
1833,1877,1877
1811,1860,1829
1872,1870,1847
1922,1900,1903
1922,1886,1858
1850,1872,1823
1865,1889,1857
1904,1887,1872
1879,1903,1855
1887,1903,1872
1903,1891,1839
1874,1849,1835
1835,1839,1840
1840,1845,1834
1849,1869,1852
1871,1903,1875
1872,1888,1856
1857,1854,1813
1887,1840,1829
1904,1906,1885
1867,1895,1889
1849,1847,1819
1893,1861,1761
1923,1893,1839
1872,1888,1916
1856,1878,1879
1878,1866,1841
1903,1877,1827
1841,1857,1834
1826,1843,1815
1872,1873,1843
1881,1887,1866
1871,1866,1834
1842,1847,1825
1842,1867,1890
1900,1884,1902
1903,1883,1847
1883,1895,1831
1872,1871,1846
1871,1846,1872
1844,1828,1799
1856,1856,1827
1847,1856,1816
1888,1893,1883
1876,1884,1863
1850,1861,1808
1831,1846,1790
1856,1865,1840
1898,1888,1862
1874,1883,1840
1879,1857,1815
1903,1872,1841
1872,1889,1850
1866,1886,1845
1875,1879,1856
1881,1882,1879
1872,1898,1872
1810,1840,1794
1840,1840,1777
1933,1909,1883
1891,1865,1869
1831,1830,1812
1826,1855,1817
1885,1873,1851
1854,1869,1853
1842,1856,1830
1897,1881,1840
1914,1882,1836
1868,1872,1851
1838,1872,1856
1885,1895,1890
1891,1904,1886
1847,1878,1853
1887,1889,1835
1856,1852,1816
1872,1867,1879
1897,1885,1872
1867,1866,1836
1871,1861,1834
1888,1876,1841
1888,1872,1830
1839,1855,1811
1840,1859,1839
1897,1905,1874
1878,1901,1849
1840,1871,1850
1897,1865,1860
1936,1879,1868
1883,1872,1868
1837,1860,1856
1834,1856,1873
1883,1891,1904
1904,1890,1897
1863,1844,1808
1871,1853,1813
1920,1888,1860
1902,1906,1872
1872,1894,1866
1873,1855,1842
1902,1898,1899
1872,1865,1827
1842,1824,1785
1904,1891,1902
1885,1889,1917
1826,1856,1855
1834,1839,1789
1930,1904,1890
1937,1888,1869
1853,1849,1789
1808,1841,1817
1851,1869,1856
1904,1911,1906
1873,1891,1840
1899,1874,1843
1915,1904,1904
1899,1901,1904
1833,1863,1840
1827,1840,1797
1872,1866,1825
1904,1872,1847
1903,1872,1851
1895,1904,1911
1869,1865,1842
1889,1874,1859
1866,1871,1853
1838,1877,1820
1869,1875,1860
1926,1902,1872
1888,1887,1865
1872,1875,1855
1879,1872,1847
1909,1892,1856
1865,1872,1845
1866,1872,1821
1911,1855,1839
1901,1914,1883
1839,1872,1872
1843,1871,1838
1862,1870,1840
1862,1869,1855
1882,1809,1846
1885,1859,1808
1892,1918,1830
1895,1867,1872
1932,1934,1882
1883,1867,1865
1853,1872,1840
1855,1838,1852
1883,1856,1853
1873,1872,1822
1936,1855,1847
1906,1888,1841
1862,1872,1872
1857,1905,1898
1871,1868,1855
1863,1854,1831
1883,1905,1867
1865,1839,1817
1883,1879,1851
1872,1875,1877
1850,1894,1834
1849,1837,1841
1895,1856,1886
1904,1875,1858
1883,1850,1808
1830,1833,1824
1887,1918,1898
1910,1875,1895
1850,1835,1844
1856,1834,1840
1882,1853,1824
1882,1904,1865
1879,1909,1857
1840,1853,1808
1879,1891,1865
1903,1885,1905
1865,1846,1858
1810,1779,1797
1857,1855,1810
1891,1871,1876
1873,1872,1846
1894,1920,1839
1850,1862,1831
1873,1861,1840
1879,1886,1857
1840,1877,1843
1892,1875,1865
1910,1858,1857
1871,1837,1809
1829,1833,1795
1872,1898,1865
1888,1872,1920
1856,1868,1842
1831,1802,1777
1894,1904,1823
1850,1821,1840
1859,1925,1906
1863,1834,1872
1889,1835,1829
1891,1857,1831
1933,1902,1867
1840,1807,1827
1813,1835,1827
1861,1867,1870
1866,1879,1878
1849,1829,1811
1855,1853,1808
1869,1923,1857
1872,1883,1870
1901,1899,1862
1872,1858,1840
1867,1885,1825
1847,1911,1819
1875,1939,1872
1872,1901,1872
1889,1875,1847
1898,1901,1868
1851,1837,1795
1856,1872,1790
1877,1873,1840
1901,1872,1860
1837,1898,1809
1827,1882,1825
1866,1872,1855
1874,1846,1850
1895,1824,1838
1884,1908,1856
1853,1872,1858
1847,1873,1842
1856,1851,1839
1888,1858,1850
1934,1892,1917
1910,1894,1879
1831,1838,1782
1833,1840,1806
1903,1887,1873
1887,1871,1871
1826,1874,1826
1826,1870,1823
1851,1849,1841
1861,1842,1823
1888,1879,1822
1850,1870,1851
1835,1870,1867
1872,1878,1866
1885,1902,1812
1910,1841,1840
1867,1904,1879
1854,1907,1856
1854,1839,1807
1874,1873,1793
1875,1878,1840
1856,1874,1843
1842,1824,1840
1856,1857,1833
1867,1857,1779
1878,1820,1826
1869,1834,1843
1847,1900,1858
1872,1903,1872
1874,1872,1841
1859,1931,1814
1888,1904,1840
1925,1906,1851
1890,1870,1815
1829,1850,1815
1834,1840,1834
1868,1886,1874
1887,1893,1873
1875,1936,1809
1895,1808,1822
1865,1885,1830
1862,1904,1856
1859,1856,1851
1882,1808,1827
1885,1866,1829
1850,1866,1826
1855,1914,1843
1886,1906,1841
1946,1836,1872
1862,1846,1830
1847,1827,1827
1805,1825,1814
1818,1854,1834
1850,1805,1834
1863,1794,1837
1909,1857,1827
1879,1873,1862
1851,1829,1847
1887,1872,1840
1905,1798,1840
1856,1893,1851
1835,1842,1817
1840,1856,1809
1853,1856,1851
1887,1872,1840
1905,1882,1846
1883,1883,1867
1877,1871,1855
1824,1853,1843
1840,1855,1871
1840,1821,1822
1879,1858,1824
1861,1873,1871
1840,1879,1833
1883,1889,1823
1891,1877,1820
1895,1858,1847
1887,1867,1887
1845,1856,1853
1871,1872,1815
1841,1867,1839
1837,1858,1837
1847,1842,1813
1866,1845,1845
1849,1865,1858
1856,1869,1860
1869,1855,1840
1862,1865,1856
1901,1883,1877
1936,1874,1845
1874,1851,1823
1831,1845,1840
1846,1871,1871
1887,1875,1885
1865,1867,1844
1919,1919,1873
1885,1867,1840
1829,1837,1815
1810,1835,1824
1840,1843,1836
1925,1893,1875
1865,1875,1856
1839,1859,1856
1867,1862,1863
1869,1889,1903
1855,1875,1876
1847,1856,1811
1872,1864,1835
1894,1889,1847
1873,1895,1856
1851,1869,1839
1869,1859,1827
1936,1936,1910
1878,1867,1865
1840,1845,1827
1902,1873,1823
1959,1933,1885
1872,1888,1840
1802,1827,1810
1837,1828,1845
1887,1874,1863
1851,1859,1837
1847,1869,1791
1871,1856,1811
1891,1872,1870
1866,1891,1861
1865,1872,1831
1888,1846,1854
1934,1897,1890
1872,1887,1852
1849,1867,1840
1872,1856,1875
1862,1866,1840
1871,1876,1856
1913,1889,1869
1911,1901,1838
1840,1886,1842
1830,1851,1808
1879,1851,1799
1901,1857,1827
1872,1904,1914
1844,1904,1862
1809,1862,1810
1856,1879,1861
1891,1863,1861
1878,1859,1835
1848,1854,1821
1886,1874,1872
1906,1905,1858
1890,1877,1814
1835,1851,1840
1870,1879,1872
1894,1928,1899
1914,1908,1882
1846,1807,1789
1826,1838,1809
1867,1879,1869
1857,1879,1859
1855,1854,1831
1857,1857,1835
1889,1889,1859
1845,1855,1826
1888,1853,1812
1872,1858,1841
1839,1858,1847
1847,1866,1842
1835,1855,1835
1856,1862,1843
1895,1892,1862
1922,1871,1840
1891,1847,1818
1843,1870,1863
1840,1862,1856
1872,1872,1840
1828,1840,1808
1842,1861,1842
1884,1909,1869
1867,1882,1826
1899,1841,1843
1904,1831,1831
1840,1861,1840
1841,1878,1837
1794,1810,1766
1851,1843,1847
1901,1893,1902
1856,1869,1875
1866,1861,1829
1875,1868,1819
1902,1897,1850
1859,1879,1858
1840,1853,1815
1834,1855,1786
1854,1870,1855
1852,1872,1862
1854,1843,1837
1907,1888,1858
1895,1874,1840
1832,1853,1811
1811,1837,1827
1851,1875,1853
1899,1893,1864
1875,1871,1833
1840,1857,1825
1884,1883,1824
1872,1895,1840
1863,1864,1826
1839,1840,1803
1823,1840,1840
1858,1857,1871
1869,1870,1859
1839,1847,1787
1863,1855,1846
1900,1890,1902
1868,1858,1886
1847,1866,1846
1846,1883,1840
1901,1867,1857
1904,1859,1826
1842,1867,1870
1824,1863,1894
1855,1869,1833
1859,1851,1809
1845,1821,1712
1883,1853,1834
1860,1872,1840
1840,1872,1853
1824,1842,1866
1854,1856,1889
1859,1867,1795
1855,1856,1797
1923,1872,1830
1873,1857,1840
1823,1861,1850
1804,1847,1835
1840,1851,1827
1886,1881,1824
1934,1885,1818
1870,1843,1799
1794,1816,1779
1815,1837,1799
1859,1874,1893
1905,1886,1840
1851,1854,1774
1812,1861,1841
1855,1857,1894
1872,1851,1883
1895,1856,1826
1898,1842,1822
1855,1853,1847
1823,1835,1815
1842,1839,1823
1840,1851,1808
1884,1895,1879
1879,1882,1879
1885,1841,1760
1863,1863,1798
1847,1883,1872
1823,1870,1821
1828,1840,1808
1867,1858,1797
1879,1849,1809
1891,1882,1855
1869,1872,1831
1843,1885,1862
1846,1861,1829
1829,1849,1856
1826,1839,1770
1846,1872,1865
1906,1895,1836
1904,1893,1867
1830,1824,1803
1815,1853,1776
1847,1870,1833
1869,1877,1862
1850,1861,1831
1849,1837,1762
1878,1877,1870
1853,1860,1840
1878,1856,1840
1859,1871,1809
1845,1894,1893
1840,1882,1875
1844,1842,1838
1863,1856,1845
1904,1873,1899
1834,1844,1841
1809,1834,1782
1822,1851,1791
1862,1882,1890
1868,1888,1879
1881,1861,1818
1869,1842,1814
1842,1868,1871
1823,1859,1846
1842,1838,1776
1856,1870,1829
1844,1872,1827
1860,1842,1831
1864,1843,1805
1913,1875,1839
1870,1878,1818
1808,1863,1782
1802,1844,1818
1902,1846,1910
1904,1869,1907
1808,1840,1819
1808,1855,1799
1858,1872,1823
1861,1864,1744
1861,1856,1845
1853,1844,1821
1847,1849,1808
1838,1853,1808
1835,1849,1824
1834,1851,1813
1872,1872,1865
1854,1859,1843
1872,1875,1850
1843,1849,1811
1847,1841,1823
1899,1888,1823
1874,1874,1826
1822,1840,1795
1856,1851,1789
1886,1895,1855
1850,1866,1887
1819,1829,1824
1821,1853,1798
1856,1866,1856
1863,1855,1886
1849,1835,1817
1855,1862,1764
1827,1854,1817
1830,1859,1871
1869,1888,1808
1849,1845,1815
1871,1859,1835
1835,1861,1843
1856,1876,1870
1874,1879,1835
1869,1872,1835
1850,1887,1840
1844,1858,1833
1856,1846,1839
1872,1856,1826
1861,1863,1808
1852,1846,1838
1831,1856,1791
1843,1872,1849
1839,1849,1833
1862,1850,1830
1888,1858,1823
1885,1867,1811
1845,1854,1791
1802,1840,1783
1839,1879,1848
1845,1872,1873
1864,1867,1836
1889,1863,1833
1855,1855,1830
1877,1862,1843
1844,1838,1791
1848,1856,1817
1887,1902,1936
1853,1870,1835
1859,1858,1788
1833,1828,1767
1856,1871,1796
1831,1857,1831
1874,1881,1841
1872,1904,1881
1861,1855,1877
