1876,1871,1822
1847,1866,1808
1838,1840,1808
1875,1862,1904
1839,1855,1834
1806,1843,1805
1872,1876,1778
1904,1893,1885
1808,1837,1747
1751,1818,1776
1868,1883,1857
1862,1893,1847
1805,1860,1824
1807,1846,1770
1838,1833,1813
1862,1869,1865
1873,1888,1817
1817,1861,1817
1872,1866,1810
1912,1874,1837
1863,1894,1859
1811,1872,1802
1842,1874,1820
1841,1861,1822
1855,1870,1829
1814,1854,1805
1849,1871,1831
1845,1870,1821
1834,1843,1793
1814,1845,1777
1840,1855,1803
1920,1901,1839
1879,1902,1869
1846,1872,1856
1821,1853,1819
1855,1869,1835
1852,1891,1859
1841,1861,1828
1882,1874,1838
1887,1854,1823
1872,1862,1809
1845,1847,1792
1837,1840,1791
1840,1852,1839
1853,1861,1858
1870,1879,1863
1879,1871,1837
1846,1869,1826
1840,1869,1831
1835,1846,1810
1927,1856,1840
1974,1882,1855
1808,1865,1854
1813,1843,1817
1886,1883,1840
1884,1873,1851
1921,1872,1847
1919,1871,1808
1837,1853,1825
1861,1906,1849
1870,1887,1825
1872,1850,1837
1922,1873,1854
1877,1872,1856
1861,1871,1858
1840,1851,1799
1860,1859,1813
1936,1915,1897
1840,1875,1854
1855,1842,1782
1889,1875,1899
1863,1887,1897
1815,1869,1794
1866,1855,1770
1913,1872,1850
1863,1831,1842
1795,1851,1856
1858,1861,1826
1864,1884,1841
1889,1904,1899
1912,1875,1863
1826,1847,1833
1853,1841,1818
1959,1889,1835
1898,1875,1792
1795,1845,1793
1856,1902,1872
1905,1909,1869
1859,1859,1842
1861,1841,1842
1850,1837,1801
1846,1872,1846
1813,1858,1841
1872,1852,1815
1804,1887,1854
1906,1891,1829
1936,1887,1872
1840,1835,1815
1806,1830,1815
1843,1854,1854
1886,1878,1873
1904,1875,1824
1837,1875,1853
1931,1899,1861
1840,1877,1823
1814,1827,1790
1824,1839,1776
1840,1872,1811
1865,1899,1879
1903,1865,1856
1861,1879,1856
1878,1904,1845
1857,1854,1785
1776,1818,1778
1885,1828,1808
1867,1889,1875
1797,1904,1904
1836,1866,1789
1872,1881,1823
1855,1860,1857
1804,1854,1820
1786,1840,1805
1874,1858,1841
1914,1904,1898
1846,1862,1833
1823,1851,1808
1879,1872,1863
1840,1877,1838
1754,1847,1772
1882,1821,1750
1883,1868,1844
1887,1895,1859
1846,1869,1862
1776,1827,1838
1835,1875,1842
1869,1877,1838
1906,1872,1863
1890,1831,1801
1879,1840,1806
1840,1881,1870
1842,1863,1843
1837,1807,1787
1866,1829,1834
1826,1897,1842
1781,1861,1819
1861,1838,1782
1885,1843,1818
1889,1893,1879
1874,1906,1886
1879,1851,1849
1872,1815,1809
1865,1858,1840
1860,1876,1815
1808,1857,1798
1860,1843,1870
1882,1833,1872
1845,1849,1780
1815,1833,1761
1917,1885,1836
1899,1853,1850
1846,1879,1874
1758,1872,1840
1815,1827,1765
1819,1856,1791
1874,1895,1847
1906,1863,1852
1835,1821,1798
1893,1850,1813
1910,1873,1859
1759,1833,1787
1842,1847,1776
1851,1907,1885
1872,1855,1856
1807,1808,1810
1839,1808,1772
1834,1849,1840
1844,1847,1840
1855,1851,1839
1857,1861,1858
1869,1872,1884
1841,1867,1827
1851,1851,1840
1911,1867,1870
1879,1885,1860
1949,1856,1778
1856,1833,1822
1780,1837,1870
1830,1870,1875
1835,1854,1840
1835,1814,1816
1879,1830,1811
1865,1871,1843
1857,1883,1845
1846,1850,1827
1875,1856,1856
1872,1887,1910
1808,1872,1881
1799,1831,1785
1864,1873,1863
1824,1872,1861
1840,1853,1813
1857,1805,1749
1828,1829,1835
1825,1880,1862
1842,1849,1791
1790,1855,1872
1913,1843,1904
1943,1902,1924
1882,1892,1873
1808,1829,1797
1847,1861,1837
1892,1872,1887
1872,1845,1817
1856,1819,1770
1873,1859,1808
1850,1847,1874
1840,1891,1895
1829,1862,1823
1857,1850,1815
1863,1847,1840
1842,1840,1851
1861,1808,1840
1885,1857,1873
1835,1865,1888
1840,1873,1869
1841,1840,1767
1883,1840,1798
1829,1834,1861
1773,1825,1778
1856,1841,1774
1909,1846,1797
1846,1840,1866
1840,1827,1909
1841,1845,1878
1831,1855,1840
1872,1878,1829
1863,1856,1808
1888,1840,1849
1830,1834,1841
1788,1833,1852
1806,1815,1782
1856,1810,1789
1876,1801,1802
1822,1856,1840
1808,1855,1839
1841,1848,1831
1925,1835,1921
1857,1839,1874
1788,1840,1789
1787,1855,1711
1860,1814,1830
1955,1794,1929
1863,1808,1888
1783,1836,1710
1824,1827,1799
1893,1866,1936
1838,1859,1879
1840,1823,1863
1842,1839,1829
1834,1805,1830
1827,1869,1767
1829,1819,1777
1904,1840,1867
1859,1814,1891
1798,1791,1904
1771,1830,1780
1840,1844,1779
1845,1824,1834
1803,1767,1819
1826,1807,1820
1830,1840,1858
1813,1838,1853
1841,1813,1806
1904,1799,1826
1901,1850,1828
1840,1851,1863
1788,1840,1917
1773,1754,1890
1791,1759,1891
1841,1828,1904
1858,1869,1830
1835,1813,1885
1850,1843,1872
1867,1845,1906
1865,1829,1825
1814,1766,1804
1831,1776,1895
1821,1833,1886
1870,1877,1939
1842,1792,1904
1807,1775,1810
1894,1857,1859
1853,1840,1904
1798,1782,1873
1809,1803,1823
1845,1839,1774
1860,1806,1861
1862,1806,1914
1846,1807,1879
1840,1821,1840
1867,1821,1830
1872,1839,1851
1862,1823,1936
1826,1839,1937
1778,1828,1826
1807,1754,1795
1858,1810,1891
1855,1846,1897
1850,1873,1894
1840,1849,1855
1872,1808,1872
1920,1835,1911
1815,1799,1782
1796,1775,1806
1919,1808,1869
1906,1867,1870
1856,1841,1893
1798,1789,1895
1826,1823,1895
1887,1891,1857
1850,1791,1775
1850,1803,1872
1830,1841,1886
1885,1887,1833
1887,1885,1888
1906,1842,1957
1827,1786,1887
1840,1842,1819
1847,1850,1840
1849,1790,1835
1903,1840,1829
1897,1875,1883
1844,1808,1857
1801,1797,1794
1809,1842,1841
1886,1839,1907
1861,1846,1889
1882,1870,1856
1889,1854,1872
1872,1860,1861
1860,1882,1875
1873,1855,1835
1883,1825,1861
1857,1814,1855
1847,1835,1828
1857,1843,1830
1850,1811,1834
1892,1849,1907
1895,1857,1931
1856,1872,1871
1855,1847,1806
1869,1865,1835
1830,1846,1889
1856,1854,1879
1914,1882,1897
1872,1872,1808
1849,1845,1839
1857,1830,1803
1886,1831,1846
1872,1888,1919
1849,1891,1876
1824,1805,1791
1834,1872,1840
1895,1877,1801
1936,1878,1879
1920,1840,1908
1807,1838,1877
1837,1846,1850
1843,1842,1892
1823,1846,1807
1837,1843,1747
1858,1882,1849
1878,1899,1866
1854,1849,1818
1814,1877,1846
1823,1863,1822
1875,1850,1851
1874,1862,1892
1908,1857,1887
1878,1856,1873
1840,1868,1808
1872,1841,1834
1836,1824,1779
1872,1856,1925
1861,1888,1877
1840,1837,1741
1857,1841,1842
1894,1895,1915
1879,1839,1850
1841,1837,1807
1839,1794,1793
1899,1818,1801
1892,1882,1920
1840,1840,1843
1810,1819,1797
1856,1859,1840
1890,1850,1871
1878,1830,1772
1872,1875,1825
1869,1879,1847
1844,1837,1840
1809,1830,1835
1845,1842,1874
1888,1918,1829
1936,1845,1856
1894,1806,1854
1853,1813,1789
1826,1871,1829
1819,1884,1808
1786,1773,1772
1879,1798,1849
1965,1921,1935
1854,1937,1856
1789,1839,1815
1852,1851,1829
1930,1921,1834
1904,1872,1815
1819,1791,1827
1850,1788,1882
1924,1863,1921
1903,1899,1797
1806,1851,1730
1881,1919,1786
1862,1855,1867
1847,1856,1892
1863,1853,1839
1895,1879,1923
1898,1846,1891
1831,1886,1791
1840,1852,1840
1904,1889,1893
1937,1881,1878
1845,1805,1778
1808,1798,1790
1859,1850,1843
1902,1966,1874
1873,1894,1868
1857,1822,1821
1856,1840,1810
1889,1903,1857
1918,1875,1803
1921,1911,1825
1813,1847,1921
1815,1841,1931
1829,1872,1826
1854,1851,1782
1909,1861,1846
1909,1856,1874
1890,1894,1851
1838,1877,1831
1839,1834,1826
1896,1929,1813
1846,1887,1802
1809,1845,1879
1815,1737,1835
1858,1854,1828
1904,1925,1907
1894,1856,1846
1876,1822,1820
1910,1866,1852
1858,1856,1859
1808,1850,1776
1872,1873,1859
1923,1930,1934
1901,1878,1829
1869,1799,1829
1838,1767,1818
1822,1823,1857
1807,1857,1878
1820,1850,1853
1857,1833,1791
1955,1934,1842
1932,1870,1862
1826,1872,1783
1835,1824,1811
1931,1879,1873
1862,1840,1843
1808,1936,1792
1898,1866,1938
1900,1951,1964
1843,1934,1861
1822,1876,1762
1840,1891,1787
1905,1899,1872
1877,1901,1866
1872,1887,1834
1907,1851,1829
1949,1891,1796
1839,1861,1850
1776,1870,1856
1826,1923,1839
1882,1875,1857
1911,1886,1835
1938,1959,1872
1851,1870,1861
1845,1838,1808
1890,1872,1840
1838,1860,1744
1858,1858,1853
1927,1886,1967
1856,1840,1840
1840,1899,1808
1873,1872,1872
1898,1835,1840
1877,1858,1819
1828,1830,1813
1856,1847,1818
1948,1938,1877
1861,1936,1828
1881,1834,1743
1894,1810,1856
1851,1918,1877
1806,1872,1815
1829,1853,1822
1893,1811,1850
1889,1834,1823
1918,1923,1906
1857,1871,1829
1857,1859,1791
1879,1866,1841
1883,1871,1831
1850,1840,1808
1825,1849,1792
1873,1867,1777
1906,1863,1831
1862,1855,1849
1867,1877,1843
1853,1901,1901
1862,1888,1869
1854,1842,1833
1884,1899,1831
1860,1856,1849
1831,1840,1847
1843,1825,1762
1872,1873,1815
1902,1926,1911
1871,1875,1814
1889,1847,1804
1871,1865,1887
1877,1925,1919
1830,1885,1826
1833,1824,1758
1923,1846,1803
1856,1895,1893
1831,1885,1859
1857,1851,1809
1856,1868,1840
1891,1925,1863
1856,1873,1819
1860,1821,1795
1899,1854,1843
1889,1895,1893
1821,1873,1851
1792,1830,1783
1907,1840,1747
1885,1871,1840
1827,1885,1849
1827,1870,1857
1933,1872,1814
1958,1879,1871
1820,1840,1863
1790,1847,1859
1843,1906,1849
1867,1892,1822
1919,1884,1885
1887,1808,1846
1819,1826,1744
1840,1903,1845
1855,1856,1857
1843,1863,1842
1837,1863,1773
1905,1897,1875
1882,1881,1902
1843,1871,1828
1863,1894,1837
1884,1906,1895
1855,1853,1831
1822,1840,1761
1879,1856,1852
1872,1888,1920
1806,1867,1858
1824,1876,1805
1878,1882,1844
1891,1861,1871
1872,1874,1835
1859,1869,1786
1843,1861,1762
1959,1905,1906
1856,1859,1854
1822,1814,1827
1839,1855,1872
1901,1959,1921
1887,1893,1827
1810,1841,1776
1801,1850,1794
1872,1867,1865
1870,1871,1831
1829,1841,1790
1867,1903,1911
1901,1904,1889
1805,1830,1808
1809,1826,1774
1887,1843,1824
1941,1904,1903
1827,1845,1811
1792,1825,1808
1893,1903,1860
1877,1872,1853
1863,1858,1833
1839,1866,1814
1859,1856,1778
1850,1899,1840
1852,1889,1868
1856,1841,1787
1881,1840,1833
1910,1863,1871
1866,1872,1846
1802,1834,1797
1851,1852,1818
1909,1899,1899
1903,1865,1851
1899,1840,1766
1865,1872,1801
1810,1871,1808
1850,1849,1808
1840,1838,1830
1874,1871,1824
1893,1889,1889
1831,1854,1843
1859,1859,1867
1862,1850,1845
1857,1862,1831
1888,1885,1798
1908,1864,1798
1850,1866,1855
1875,1911,1888
1854,1857,1808
1785,1826,1778
1854,1839,1809
1869,1825,1802
1859,1859,1855
1851,1856,1829
1840,1846,1872
1856,1858,1908
1856,1871,1879
1828,1840,1808
1898,1861,1787
1936,1911,1855
1850,1869,1853
1815,1854,1776
1866,1888,1840
1886,1882,1913
1846,1802,1841
1825,1799,1787
1857,1840,1779
1886,1872,1834
1870,1872,1879
1873,1846,1845
1895,1889,1856
1922,1924,1871
1903,1853,1802
1842,1845,1807
1810,1823,1845
1830,1846,1871
1859,1845,1822
1869,1842,1833
1863,1872,1847
1889,1908,1866
1897,1879,1859
1902,1835,1795
1842,1825,1712
1885,1840,1847
1872,1850,1855
1887,1875,1940
1888,1898,1819
1841,1879,1882
1830,1855,1787
1879,1824,1810
1887,1834,1843
1897,1894,1911
1831,1875,1827
1953,1914,1858
1942,1888,1872
1802,1842,1806
1797,1842,1840
1833,1867,1789
1899,1871,1796
1913,1840,1872
1907,1833,1858
1845,1854,1854
1799,1861,1824
1842,1882,1875
1872,1879,1827
1889,1879,1841
1894,1870,1862
1913,1878,1793
1967,1894,1872
1873,1847,1814
1822,1837,1776
1840,1862,1861
1866,1851,1909
1832,1811,1826
1854,1868,1802
1920,1907,1879
1920,1901,1904
1807,1804,1721
1815,1803,1734
1871,1867,1808
1856,1902,1856
1835,1831,1825
1861,1839,1783
1913,1872,1846
1933,1901,1859
1871,1841,1820
1837,1859,1859
1840,1855,1805
1863,1849,1799
1847,1825,1853
1871,1859,1853
1909,1904,1819
1924,1909,1889
1887,1835,1799
1839,1824,1806
1859,1881,1881
1873,1904,1849
1862,1830,1730
1843,1819,1783
1894,1903,1840
1869,1863,1869
1871,1840,1826
1840,1840,1826
1856,1873,1847
1923,1901,1808
1933,1870,1731
1843,1858,1806
1872,1885,1904
1872,1872,1840
1849,1810,1779
1850,1831,1811
1904,1874,1909
1897,1885,1807
1850,1852,1796
1874,1858,1855
1936,1899,1902
1865,1801,1795
1774,1813,1701
1810,1840,1785
1879,1863,1840
1882,1869,1811
1936,1857,1862
1908,1874,1829
1887,1911,1887
1895,1878,1869
1815,1770,1718
1838,1808,1872
1877,1858,1867
1840,1843,1765
1827,1823,1760
1858,1839,1798
1918,1891,1874
1871,1852,1840
1872,1831,1727
1920,1881,1856
1838,1855,1905
1846,1829,1862
1888,1813,1777
1915,1822,1811
1824,1857,1808
1814,1857,1719
1847,1823,1808
1869,1819,1888
1833,1840,1882
1805,1856,1821
1841,1874,1803
1899,1867,1895
1908,1853,1857
1829,1829,1793
1832,1835,1723
1851,1826,1923
1834,1831,1850
1891,1847,1805
1872,1834,1818
1837,1838,1871
1831,1877,1936
1874,1887,1838
1824,1850,1749
1806,1840,1735
1878,1879,1840
1872,1839,1824
1847,1831,1744
1824,1830,1842
1840,1872,1854
1859,1842,1810
1883,1834,1792
1835,1822,1834
1856,1853,1887
1879,1881,1829
1915,1839,1721
1841,1808,1818
1812,1862,1847
1840,1869,1874
1844,1817,1839
1872,1825,1819
1893,1844,1821
1899,1883,1856
1808,1821,1794
1811,1815,1815
1859,1877,1855
1870,1861,1873
1867,1840,1779
1915,1861,1791
1875,1865,1790
1870,1825,1758
1810,1805,1875
1830,1822,1857
1856,1861,1918
1857,1890,1840
1840,1879,1807
1909,1894,1827
1847,1871,1872
1813,1825,1819
1793,1802,1827
1828,1843,1796
1872,1846,1814
1936,1892,1847
1874,1847,1825
1859,1856,1846
1874,1883,1983
1853,1842,1839
1827,1822,1787
1841,1858,1765
1879,1889,1840
1909,1886,1850
1947,1873,1874
1862,1819,1879
1822,1835,1903
1818,1847,1819
1845,1861,1835
1903,1840,1827
1875,1870,1842
1872,1894,1830
1845,1865,1822
1858,1855,1887
1895,1879,1958
1854,1890,1899
1894,1839,1770
1919,1859,1805
1939,1943,1932
1824,1856,1857
1787,1838,1782
1879,1853,1734
1883,1879,1855
1834,1871,1904
1827,1873,1890
1850,1873,1850
1879,1872,1881
1909,1877,1892
1871,1833,1840
1821,1855,1817
1842,1887,1847
1872,1847,1821
1815,1834,1822
1897,1885,1935
1838,1878,1917
1851,1882,1840
1790,1856,1808
1840,1856,1840
1901,1898,1869
1867,1882,1841
1818,1833,1819
1813,1857,1855
1879,1887,1838
1862,1869,1872
1843,1892,1870
1872,1878,1774
1909,1862,1859
1897,1866,1925
1840,1853,1834
1856,1856,1785
1958,1925,1837
1904,1904,1844
1873,1837,1847
1773,1839,1868
1741,1839,1849
1843,1850,1866
1846,1853,1871
1911,1877,1860
1920,1908,1840
1901,1873,1840
1907,1831,1822
1901,1854,1883
1898,1889,1866
1854,1877,1819
1854,1851,1798
1888,1871,1840
1927,1931,1904
1913,1872,1857
1835,1847,1830
1872,1840,1866
1855,1871,1881
1826,1861,1843
1835,1838,1834
1844,1861,1839
1943,1904,1854
1939,1873,1871
1891,1862,1823
1841,1840,1803
1883,1883,1898
1889,1829,1849
1863,1838,1845
1871,1872,1832
1893,1866,1847
1872,1838,1808
1820,1853,1863
1879,1881,1910
1855,1886,1860
1858,1850,1813
1911,1872,1815
1903,1840,1758
1837,1830,1827
1811,1867,1903
1834,1827,1840
1897,1847,1838
1949,1893,1863
1936,1873,1872
1852,1866,1831
1931,1854,1840
1894,1883,1849
1858,1904,1850
1858,1839,1777
1856,1837,1833
1895,1872,1923
1810,1860,1882
1856,1856,1828
1863,1858,1799
1869,1885,1837
1875,1872,1835
1910,1878,1808
1852,1838,1854
1946,1841,1838
1869,1835,1791
1857,1869,1833
1842,1859,1851
1840,1872,1890
1875,1853,1891
1888,1856,1851
1870,1853,1811
1904,1858,1839
1856,1857,1808
1842,1840,1823
1904,1855,1829
1906,1853,1859
1805,1808,1759
1818,1827,1774
1827,1853,1827
1862,1857,1863
1872,1853,1861
1843,1823,1836
1877,1823,1794
1872,1889,1856
1863,1875,1883
1845,1817,1838
1889,1890,1838
1805,1899,1890
1844,1841,1818
1747,1802,1745
1840,1820,1818
1881,1875,1835
1875,1804,1715
1918,1840,1798
1926,1854,1921
1904,1887,1872
1826,1899,1764
1920,1840,1785
1875,1826,1875
1973,1851,1899
1879,1886,1863
1828,1841,1797
1815,1839,1812
1861,1872,1863
1846,1835,1819
1887,1867,1849
1943,1875,1807
1797,1845,1809
1821,1842,1818
1860,1835,1802
1835,1830,1840
1813,1840,1840
1885,1849,1845
1857,1831,1831
1853,1847,1869
1894,1872,1837
1885,1857,1823
1858,1842,1785
1887,1874,1776
1820,1808,1819
1869,1831,1840
1807,1805,1786
1916,1842,1799
1856,1872,1872
1788,1866,1852
1774,1782,1778
1827,1810,1791
1909,1839,1817
1834,1859,1841
1830,1837,1821
1856,1850,1798
1819,1857,1847
1861,1821,1807
1840,1796,1746
1850,1841,1835
1842,1854,1837
1840,1844,1842
1872,1843,1819
1872,1836,1830
1930,1887,1879
1904,1885,1853
1808,1840,1774
1872,1842,1744
1962,1840,1814
1856,1831,1872
1733,1802,1765
1827,1842,1808
1857,1877,1805
1883,1894,1810
1904,1840,1795
1870,1819,1872
1866,1883,1871
1855,1870,1857
1818,1840,1835
1833,1856,1796
1883,1856,1788
1857,1855,1840
1808,1809,1821
1888,1855,1803
1907,1889,1768
1879,1874,1808
1791,1798,1741
1806,1827,1855
1903,1893,1923
1845,1853,1830
1801,1826,1808
1855,1834,1794
1867,1872,1855
1845,1854,1822
1845,1809,1775
1823,1822,1829
1893,1883,1840
1910,1840,1765
1786,1795,1712
1783,1840,1870
1841,1881,1920
1838,1850,1865
1841,1862,1832
1860,1850,1859
1968,1893,1923
1904,1844,1838
1799,1795,1792
1850,1831,1823
1876,1888,1829
1827,1842,1815
1850,1847,1844
1943,1870,1856
1918,1872,1821
1870,1880,1806
1845,1857,1882
1821,1827,1889
1858,1888,1904
1887,1871,1840
1890,1826,1812
1871,1856,1815
1859,1875,1856
1887,1859,1847
1888,1838,1828
1872,1856,1887
1902,1875,1845
1859,1831,1762
1837,1798,1781
1822,1822,1791
1838,1861,1847
1859,1867,1839
1909,1818,1807
1930,1867,1850
1865,1879,1861
1764,1812,1840
1797,1808,1794
1893,1840,1808
1915,1862,1825
1887,1866,1831
1818,1855,1835
1866,1840,1814
1883,1859,1840
1892,1868,1854
1819,1836,1793
1841,1849,1801
1872,1840,1838
1869,1830,1848
1863,1858,1854
1903,1877,1857
1875,1859,1827
1873,1862,1806
1934,1871,1838
1882,1866,1903
1819,1846,1897
1783,1824,1779
1850,1830,1749
1920,1878,1898
1904,1901,1903
1873,1907,1859
1857,1829,1827
1923,1825,1833
1904,1854,1834
1840,1863,1826
1783,1853,1776
1861,1872,1841
1904,1887,1915
1835,1830,1853
1839,1815,1805
1871,1873,1850
1915,1913,1857
1877,1851,1786
1819,1823,1779
1777,1808,1840
1865,1835,1838
1946,1872,1824
1914,1868,1856
1810,1854,1862
1829,1865,1850
1872,1875,1855
1849,1823,1781
1782,1809,1746
1809,1838,1823
1855,1878,1918
1886,1874,1892
1899,1853,1799
1900,1862,1811
1856,1881,1839
1843,1873,1834
1897,1851,1797
1829,1867,1910
1847,1887,1902
1856,1873,1847
1892,1857,1798
1931,1869,1870
1859,1859,1936
1850,1856,1836
1849,1879,1822
1856,1898,1872
1843,1835,1799
1877,1834,1822
1885,1872,1911
1877,1888,1909
1847,1904,1840
1895,1878,1839
1922,1889,1851
1906,1851,1877
1806,1873,1841
1830,1876,1863
1872,1878,1897
1867,1858,1884
1813,1827,1776
1852,1854,1776
1914,1887,1885
1894,1814,1858
1809,1853,1795
1819,1799,1775
1821,1831,1797
1866,1858,1871
1845,1852,1871
1857,1876,1837
1888,1931,1871
1832,1875,1904
1845,1890,1839
1856,1819,1817
1845,1907,1818
1872,1950,1860
1858,1808,1858
1874,1802,1782
1885,1843,1854
1870,1907,1902
1819,1926,1850
1808,1838,1827
1838,1840,1849
1892,1875,1866
1887,1902,1869
1847,1869,1837
1859,1841,1853
1871,1914,1883
1927,1920,1862
1863,1872,1815
1826,1786,1841
1846,1917,1872
1903,1876,1824
1877,1862,1819
1875,1861,1863
1910,1899,1933
1854,1846,1875
1829,1860,1811
1835,1843,1778
1844,1847,1851
1866,1857,1841
1863,1840,1794
1872,1862,1843
1891,1872,1932
1857,1855,1842
1861,1847,1785
1867,1856,1840
1899,1856,1854
1847,1903,1817
1857,1898,1817
1883,1814,1792
1887,1801,1918
1819,1842,1905
1818,1780,1830
1856,1861,1792
1918,1897,1826
1872,1840,1858
1809,1837,1827
1840,1867,1885
1843,1875,1881
1855,1856,1854
1891,1869,1757
1950,1840,1821
1903,1915,1946
1825,1814,1871
1824,1843,1813
1858,1859,1813
1873,1884,1859
1882,1842,1885
1875,1867,1872
1886,1901,1821
1904,1890,1838
1861,1863,1819
1801,1780,1850
1840,1830,1863
1936,1875,1927
1897,1843,1861
1863,1845,1814
1857,1840,1782
1872,1872,1872
1845,1842,1888
1824,1840,1831
1847,1905,1843
1922,1903,1805
1878,1892,1802
1828,1810,1802
1843,1839,1894
1840,1869,1850
1822,1836,1827
1845,1843,1829
1890,1866,1826
1955,1858,1819
1859,1785,1804
1824,1806,1812
1841,1872,1865
1871,1875,1824
1843,1827,1735
1827,1853,1781
1817,1819,1900
1840,1843,1904
1869,1857,1837
1865,1852,1840
1851,1872,1872
1879,1906,1854
1855,1867,1806
1812,1806,1815
1852,1878,1854
1889,1880,1840
1937,1862,1856
1871,1802,1829
1900,1856,1875
1875,1984,1869
1861,1938,1850
1921,1859,1835
1875,1861,1821
1838,1905,1893
1842,1866,1878
1851,1821,1849
1891,1883,1874
1897,1892,1878
1877,1776,1829
1834,1799,1812
1863,1931,1858
1896,1890,1868
1855,1857,1824
1843,1846,1799
1897,1760,1843
1954,1923,1888
1855,1840,1825
1808,1825,1747
1895,1849,1795
1940,1855,1827
1908,1905,1867
1818,1833,1884
1808,1845,1893
1840,1851,1872
1840,1855,1809
1838,1823,1787
1873,1859,1833
1872,1858,1842
1835,1893,1825
1847,1806,1794
1968,1883,1808
1862,1873,1846
1814,1858,1831
1850,1831,1791
1876,1859,1865
1906,1883,1888
1897,1965,1890
1803,1828,1836
1825,1840,1847
1936,1882,1883
1977,1877,1813
1883,1809,1808
1807,1803,1840
1846,1869,1872
1859,1839,1841
1872,1826,1801
1871,1872,1830
1861,1872,1872
1869,1845,1869
1865,1903,1867
1869,1901,1835
1903,1888,1847
1910,1893,1883
1816,1862,1871
1829,1863,1808
1875,1881,1840
1853,1849,1827
1879,1865,1843
1872,1856,1860
1845,1842,1829
1813,1827,1817
1839,1836,1771
1840,1871,1825
1860,1859,1843
1882,1815,1781
1863,1797,1728
1862,1863,1762
1878,1896,1888
1837,1866,1916
1811,1830,1813
1834,1854,1815
1838,1855,1773
1831,1835,1807
1840,1809,1838
1874,1862,1897
1895,1879,1883
1872,1859,1792
1871,1833,1735
1885,1837,1819
1811,1838,1871
1812,1857,1854
1841,1815,1772
1894,1850,1823
1859,1852,1801
1825,1863,1805
1836,1866,1840
1902,1885,1901
1869,1878,1865
1843,1874,1833
1887,1885,1833
1904,1872,1828
1867,1847,1842
1842,1869,1828
1879,1871,1822
1858,1845,1803
1875,1869,1814
1854,1879,1845
1848,1872,1846
1862,1856,1831
1867,1854,1799
1857,1889,1803
1855,1859,1856
1869,1856,1846
1877,1872,1840
1874,1849,1817
1854,1842,1812
1839,1850,1792
1881,1887,1804
1891,1868,1831
1855,1776,1775
1878,1793,1799
1814,1839,1838
1787,1853,1831
1856,1833,1767
1917,1889,1841
1818,1878,1861
1793,1845,1819
1831,1845,1792
1870,1872,1797
1839,1826,1808
1823,1814,1819
1842,1817,1796
1841,1833,1792
1874,1865,1812
1874,1863,1811
1856,1867,1807
1860,1865,1864
1883,1845,1819
1863,1863,1851
1817,1850,1808
1851,1847,1809
1877,1870,1803
1909,1850,1766
1856,1843,1783
1835,1843,1805
1852,1904,1840
1825,1855,1808
1875,1861,1765
1888,1845,1811
1842,1863,1871
1811,1857,1822
1859,1868,1808
1905,1857,1794
1878,1886,1840
1847,1878,1809
1860,1835,1787
1855,1852,1818
1868,1878,1835
1789,1856,1797
1808,1847,1801
1847,1861,1817
1877,1873,1802
1811,1829,1792
1836,1817,1791
1877,1842,1840
1853,1876,1840
1835,1846,1802
1801,1804,1786
1847,1819,1792
1856,1855,1795
1807,1838,1773
1824,1830,1776
1859,1827,1764
1883,1858,1767
1838,1840,1744
1757,1776,1758
1762,1790,1748
1801,1799,1751
1829,1783,1687
1826,1814,1769
1856,1840,1830
1894,1840,1798
1818,1831,1788
1758,1792,1737
1845,1847,1790
1840,1830,1761
1799,1849,1773
1812,1831,1754
1897,1814,1769
1904,1859,1814
1814,1855,1808
1838,1857,1803
1862,1873,1775
1867,1891,1809
1842,1851,1786
1861,1858,1796
1873,1881,1840
1853,1863,1794
1838,1862,1759
1872,1879,1776
1887,1874,1825
1905,1904,1831
1875,1909,1809
1845,1821,1776
1845,1828,1796
1876,1898,1808
1907,1857,1754
1844,1840,1671
1802,1840,1728
1829,1870,1824
1840,1872,1794
1847,1856,1840
1887,1872,1803
1914,1891,1815
1867,1866,1779
1837,1834,1681
1845,1872,1776
1815,1840,1731
1843,1826,1729
1853,1823,1700
1827,1841,1810
1840,1881,1783
1820,1842,1713
1818,1822,1680
1834,1828,1728
1842,1847,1738
1826,1829,1735
1815,1810,1717
1825,1844,1712
1831,1871,1759
1877,1873,1744
1861,1831,1663
1865,1815,1683
1845,1814,1675
1779,1805,1693
1764,1793,1648
1835,1830,1694
1869,1859,1717
1815,1822,1712
1793,1803,1687
1849,1820,1728
1893,1872,1729
1826,1840,1679
1804,1837,1712
1861,1867,1731
1962,1840,1722
1913,1861,1703
1808,1846,1697
1797,1850,1731
1868,1883,1658
1854,1831,1664
1878,1837,1767
1902,1883,1782
1879,1882,1819
1814,1847,1695
1839,1868,1662
1919,1877,1723
1877,1873,1728
1887,1872,1721
1915,1878,1707
1885,1873,1799
1909,1904,1731
1899,1887,1802
1825,1871,1751
1865,1875,1744
1900,1897,1773
1871,1883,1739
1840,1840,1710
1861,1877,1809
1903,1899,1827
1887,1908,1759
1840,1833,1710
1891,1847,1729
1947,1904,1811
1879,1856,1712
1807,1835,1712
1818,1837,1697
1852,1857,1712
1878,1842,1712
1857,1839,1721
1838,1856,1778
1853,1856,1798
1825,1817,1662
1808,1822,1697
1840,1840,1709
1919,1915,1722
1807,1849,1712
1783,1765,1679
1840,1807,1761
1850,1840,1778
1840,1842,1748
1797,1815,1677
1799,1827,1702
1837,1840,1728
1839,1815,1705
1872,1840,1743
1875,1823,1732
1866,1871,1744
1820,1850,1697
1830,1817,1699
1835,1827,1714
1905,1851,1805
1844,1844,1829
1830,1846,1822
1907,1854,1731
1872,1866,1775
1840,1890,1793
1902,1887,1780
1845,1869,1765
1850,1878,1803
1910,1923,1769
1873,1858,1767
1921,1872,1743
1875,1856,1790
1870,1913,1867
1931,1914,1840
1924,1899,1839
1901,1898,1808
1886,1870,1808
1867,1870,1839
1899,1906,1885
1933,1936,1899
1905,1905,1798
1951,1888,1856
1931,1907,1789
1861,1895,1850
1830,1863,1809
1869,1856,1787
1925,1895,1817
1920,1899,1839
1877,1866,1793
1866,1858,1797
1897,1869,1847
1907,1903,1872
1886,1879,1871
1887,1875,1866
1904,1865,1835
1913,1877,1889
1855,1834,1763
