2114,1872,1922
2067,1964,1926
2057,2112,1968
2098,2201,2019
2066,2252,1939
2007,2256,1881
2022,2352,1908
2038,2450,1951
2079,2549,1968
2022,2559,1923
1911,2518,1823
1957,2587,1877
1991,2628,1854
1973,2627,1821
1973,2672,1882
1974,2833,1961
1873,2805,1872
1869,2710,1805
2000,2842,1875
1906,2847,1846
1853,2943,1801
1957,3056,1867
1910,2957,1881
1808,3054,1845
1798,3145,1783
1842,3199,1780
1816,3284,1730
1794,3463,1761
1777,3407,1759
1835,3474,1794
1870,3598,1794
1769,3571,1751
1728,3597,1715
1729,3536,1712
1791,3741,1744
1873,3808,1742
1726,3583,1647
1807,3732,1751
1813,3984,1779
1738,4030,1781
1563,3610,1607
1492,3427,1472
1613,3671,1575
1748,4029,1722
1731,4083,1713
1653,4038,1646
1793,4095,1712
1668,4065,1663
1508,4074,1572
1535,4082,1535
1711,4071,1626
1713,4063,1668
1584,4095,1654
1535,4037,1595
1621,3982,1640
1698,4079,1677
1712,4047,1643
1631,3942,1554
1564,4026,1600
1520,4081,1633
1553,3987,1611
1643,4077,1675
1699,4095,1702
1556,3919,1601
1535,3779,1589
1611,3901,1680
1659,3939,1665
1593,3935,1676
1534,3738,1671
1535,3481,1616
1621,3519,1660
1674,3623,1707
1587,3543,1711
1535,3510,1639
1613,3526,1712
1656,3458,1685
1669,3409,1668
1575,3315,1597
1558,3311,1675
1639,3330,1680
1612,3265,1617
1650,3209,1623
1614,3163,1583
1584,3213,1641
1585,3147,1579
1639,3130,1601
1680,3171,1630
1686,3136,1600
1579,3062,1517
1568,3037,1478
1761,3088,1611
1680,2991,1531
1571,2911,1511
1606,2917,1488
1605,2878,1494
1631,2874,1463
1681,2916,1526
1710,2912,1535
1712,2871,1506
1667,2874,1575
1636,2865,1570
1644,2827,1472
1767,2886,1555
1791,2869,1511
1678,2762,1435
1691,2758,1520
1704,2778,1630
1686,2772,1535
1710,2747,1567
1769,2741,1578
1751,2719,1563
1701,2735,1642
1712,2795,1664
1676,2725,1600
1703,2720,1493
1809,2800,1616
1739,2732,1686
1680,2707,1619
1707,2721,1708
1723,2752,1639
1728,2735,1605
1710,2686,1614
1682,2630,1505
1669,2655,1558
1757,2705,1728
1766,2688,1712
1756,2677,1691
1712,2686,1681
1712,2705,1647
1781,2689,1598
1883,2721,1609
1776,2735,1805
1616,2716,1740
1605,2701,1780
1591,2669,1722
1685,2707,1738
1776,2727,1712
1790,2733,1757
1713,2640,1626
1724,2667,1699
1719,2702,1779
1676,2624,1728
1759,2619,1726
1689,2613,1760
1635,2617,1651
1723,2593,1675
1739,2583,1813
1699,2637,1922
1614,2497,1793
1655,2529,1744
1699,2543,1648
1739,2509,1740
1789,2480,1735
1835,2425,1779
1674,2430,1845
1633,2416,1819
1684,2414,1744
1661,2322,1722
1747,2347,1834
1709,2283,1820
1698,2255,1727
1655,2211,1731
1763,2279,1871
1743,2258,1950
1693,2195,1889
1687,2100,1854
1744,2130,1909
1770,2142,1870
1726,2122,1734
1744,2095,1775
1701,2029,1737
1759,2005,1588
1735,2021,1569
1715,1963,1535
1791,1977,1535
1781,1972,1519
1707,1913,1382
1694,1833,1313
1808,1936,1316
1835,1905,1360
1808,1831,1359
1787,1725,1150
1735,1810,1308
1697,1834,1301
1723,1759,1248
1785,1712,1152
1855,1712,1144
1831,1778,1286
1772,1681,1215
1820,1649,1157
1826,1661,1233
1725,1655,1239
1710,1599,1154
1790,1586,1141
1798,1591,1215
1914,1631,1202
1835,1588,1177
1736,1520,1178
1723,1489,1253
1782,1535,1253
1845,1486,1178
1883,1501,1292
1823,1509,1344
1777,1470,1343
1765,1401,1230
1740,1407,1180
1791,1437,1344
1815,1403,1293
1746,1357,1269
1757,1370,1344
1863,1360,1360
1911,1367,1385
1815,1363,1385
1859,1345,1278
1808,1325,1477
1728,1343,1440
1706,1285,1296
1797,1274,1348
1823,1291,1399
1809,1313,1456
1836,1264,1401
1869,1270,1425
1901,1311,1533
1775,1237,1423
1761,1250,1467
1732,1232,1486
1772,1263,1502
1840,1254,1503
1808,1219,1467
1773,1203,1488
1808,1223,1524
1836,1254,1503
1808,1213,1584
1776,1146,1533
1795,1206,1611
1814,1234,1571
1870,1187,1520
1851,1142,1523
1831,1186,1659
1844,1200,1684
1826,1187,1595
1852,1186,1590
1875,1206,1660
1904,1231,1709
1789,1167,1686
1765,1148,1677
1826,1185,1675
1861,1216,1698
1855,1152,1625
1829,1127,1629
1856,1132,1699
1831,1163,1783
1822,1157,1733
1847,1155,1707
1856,1206,1782
1839,1170,1745
1846,1107,1691
1830,1089,1729
1840,1150,1693
1909,1205,1843
1872,1157,1840
1831,1121,1795
1898,1158,1824
1856,1152,1790
1795,1132,1750
1865,1117,1731
1887,1136,1791
1890,1159,1816
1840,1136,1862
1840,1136,1841
1904,1161,1853
1897,1185,1820
1810,1164,1809
1918,1146,1831
1929,1162,1879
1897,1202,1916
1869,1151,1798
1869,1125,1808
1877,1169,1904
1919,1173,1867
1829,1169,1860
1891,1136,1856
1907,1200,1951
1875,1232,1920
1834,1178,1822
1900,1205,1909
1983,1270,1966
1950,1231,1936
1855,1142,1884
1711,1145,1869
1780,1202,1901
1861,1249,1975
1874,1199,1934
1872,1168,1842
1949,1237,1915
1893,1250,1951
1847,1222,1971
1903,1218,1955
1885,1244,1913
1884,1230,1950
1851,1231,1989
1807,1205,1936
1858,1208,1901
1982,1245,1939
1872,1216,1911
1786,1229,1936
1808,1280,1998
1885,1302,2030
1953,1264,1923
1810,1218,1921
1840,1281,1930
1887,1299,1968
1849,1281,1962
1869,1270,1949
1978,1325,2037
1923,1327,2015
1802,1258,1918
1793,1275,1874
1808,1330,2000
1913,1361,2018
1856,1335,1968
1879,1280,1909
1861,1310,1920
1819,1358,1979
1851,1327,1937
1933,1312,1943
1907,1362,1972
1863,1405,2002
1782,1355,1937
1879,1329,1892
1874,1375,1938
1869,1408,1998
1839,1419,1980
1873,1385,1970
1936,1390,1951
1893,1439,1962
1858,1386,1939
1823,1370,1946
1868,1452,1985
1807,1450,1984
1882,1456,1953
1953,1457,1967
1936,1422,1974
1829,1438,1948
1791,1408,1934
1781,1402,1936
1872,1466,1989
1920,1504,2023
1873,1495,1978
1860,1455,1961
1856,1478,1972
1905,1504,1997
1839,1497,1963
1893,1480,1935
1891,1517,1965
1937,1522,2000
1802,1478,1947
1793,1456,1936
1857,1534,1969
1971,1570,1985
1904,1527,1985
1870,1535,1998
1898,1520,1957
1841,1522,1947
1904,1535,1987
1791,1535,1936
1883,1586,1955
1846,1584,2001
1852,1535,1942
1872,1562,1935
1881,1623,1968
1909,1603,1968
1820,1575,1952
1837,1590,1983
1870,1609,2013
1915,1600,1969
1892,1601,1943
1873,1603,1989
1849,1648,2017
1845,1639,1970
1845,1601,1929
1862,1594,1937
1922,1635,1982
1942,1648,1993
1873,1599,1913
1799,1597,1905
1875,1647,2000
1886,1695,2009
1901,1655,1933
1872,1606,1903
1856,1647,1963
1865,1694,2006
1872,1666,2002
1841,1631,1936
1906,1666,1901
2003,1686,1919
1927,1683,1962
1853,1685,1982
1824,1698,1983
1856,1694,1975
1834,1676,1945
1936,1717,1962
1994,1731,1935
1887,1697,1938
1815,1677,1957
1818,1663,1951
1855,1718,1970
1871,1728,1968
1901,1726,1925
1915,1721,1916
1904,1712,1923
1835,1739,1996
1811,1737,1963
1853,1728,1938
1907,1728,1936
1878,1762,1981
1840,1735,1937
1879,1747,1959
1907,1776,1973
1874,1769,1941
1840,1737,1917
1879,1758,1902
1936,1777,1956
1900,1778,1984
1839,1755,1937
1869,1744,1927
1914,1761,1926
1934,1774,1920
1872,1773,1935
1846,1784,1963
1841,1796,1934
1890,1823,1968
1841,1761,1891
1858,1775,1920
1917,1806,1958
1911,1810,1909
1851,1788,1918
1839,1764,1914
1874,1808,1959
1924,1841,1991
1883,1815,1936
1852,1776,1895
1892,1798,1943
1874,1844,1986
1874,1819,1903
1922,1788,1854
1887,1799,1911
1850,1858,1979
1872,1819,1936
1866,1808,1923
1895,1829,1943
1887,1854,1942
1894,1842,1936
1879,1798,1921
1909,1808,1910
1873,1827,1928
1871,1835,1926
1856,1829,1917
1872,1835,1901
1936,1849,1923
1934,1819,1909
1865,1811,1896
1887,1847,1915
1870,1847,1929
1815,1826,1899
1851,1821,1887
1907,1856,1918
1930,1899,1968
1876,1872,1913
1879,1851,1908
1899,1825,1889
1901,1861,1949
1856,1875,1925
1858,1867,1881
1954,1888,1885
1891,1871,1918
1809,1841,1893
1825,1855,1915
1899,1898,1956
1897,1882,1911
1893,1868,1877
1858,1859,1879
1921,1904,1933
1891,1904,1903
1854,1906,1918
1869,1869,1937
1899,1903,1920
1936,1915,1920
1867,1890,1871
1882,1899,1906
1915,1935,1943
1894,1946,1953
1870,1904,1896
1898,1899,1897
1923,1904,1926
1872,1901,1902
1862,1885,1865
1851,1890,1875
1895,1920,1917
1911,1937,1936
1878,1909,1917
1918,1895,1893
1918,1937,1887
1879,1943,1934
1843,1904,1891
1915,1917,1898
1962,1936,1914
1923,1924,1918
1845,1920,1901
1843,1904,1891
1924,1947,1927
1918,1951,1921
1846,1906,1872
1856,1895,1856
1955,1960,1906
1933,1958,1927
1899,1920,1920
1945,1937,1905
1889,1917,1904
1874,1946,1926
1895,1924,1921
1872,1898,1879
1927,1933,1904
1940,1946,1886
1871,1934,1889
1854,1905,1865
1894,1929,1910
1967,1952,1900
1902,1922,1866
1934,1934,1878
1893,1949,1920
1861,1939,1943
1850,1919,1884
1907,1903,1839
1974,1926,1843
1905,1964,1938
1857,1967,1918
1900,1917,1853
1883,1915,1847
1856,1916,1881
1852,1915,1863
1903,1899,1855
1958,1951,1856
1915,1943,1890
1903,1936,1934
1901,1936,1923
1885,1923,1863
1890,1923,1829
1845,1899,1843
1879,1908,1836
1941,1959,1900
1968,1969,1914
1893,1918,1860
1851,1893,1802
1894,1938,1840
1872,1925,1899
1859,1915,1872
1871,1892,1856
1929,1982,1900
1924,1983,1904
1873,1903,1847
1925,1930,1842
1941,1929,1849
1853,1939,1881
1842,1954,1850
1970,1955,1886
1904,1913,1883
1831,1935,1874
1829,1925,1869
1879,1905,1870
1955,1947,1897
1933,1936,1840
1898,1904,1840
1883,1922,1851
1856,1922,1840
1883,1949,1892
1921,1935,1845
1889,1903,1838
1898,1899,1862
1936,1968,1900
1881,1908,1818
1856,1882,1831
1935,1942,1893
1882,1946,1894
1840,1936,1841
1872,1947,1847
1909,1909,1893
1910,1953,1910
1887,1931,1878
1937,1897,1815
1914,1899,1815
1848,1957,1885
1841,1936,1873
1893,1934,1872
1909,1894,1864
1963,1899,1848
1871,1889,1842
1876,1910,1892
1872,1943,1903
1856,1907,1845
1872,1890,1823
1897,1895,1840
1905,1968,1895
1871,1926,1869
1904,1924,1821
1883,1925,1871
1874,1936,1873
1891,1937,1886
1907,1933,1865
1877,1883,1857
1882,1936,1858
1909,1937,1905
1871,1936,1829
1879,1899,1804
2003,1961,1899
1923,1950,1909
1791,1895,1839
1811,1947,1847
1898,1934,1872
1936,1891,1882
1936,1888,1840
1887,1906,1815
1871,1886,1840
1898,1915,1904
1859,1895,1852
1866,1855,1839
1907,1936,1873
1948,1955,1923
1933,1883,1891
1943,1917,1858
1885,1942,1874
1834,1918,1846
1834,1867,1824
1869,1905,1846
1947,1903,1873
1919,1936,1872
1871,1843,1840
1899,1973,1885
1902,1903,1902
1904,1927,1886
1851,1875,1830
1852,1895,1829
1936,1964,1886
2007,1963,1910
1872,1904,1850
1808,1878,1830
1856,1910,1853
1914,1934,1894
1930,1902,1853
1897,1907,1840
1867,1920,1888
1862,1920,1890
1911,1923,1856
1904,1889,1815
1851,1887,1855
1868,1889,1894
1931,1871,1849
1904,1886,1840
1866,1927,1858
1850,1879,1887
1873,1904,1866
1902,1902,1861
1946,1904,1872
1926,1971,1840
1836,1812,1810
1856,1846,1862
1885,1862,1889
1895,1922,1899
1875,1915,1840
1906,1855,1868
1935,1986,1875
1904,1877,1840
1890,1843,1811
1869,1932,1863
1898,1907,1918
1913,1967,1904
1873,1920,1872
1888,1884,1858
1902,1895,1840
1890,1919,1857
1871,1936,1864
1886,1855,1857
1907,1914,1869
1872,1914,1904
1883,1927,1867
1904,1839,1798
1901,1873,1884
1919,1930,1934
1870,1874,1893
1886,1904,1863
1908,1870,1839
1923,1881,1855
1938,1873,1872
1872,1787,1841
1878,1851,1862
1901,1842,1899
1870,1925,1894
1856,1872,1883
1902,1890,1883
1935,1859,1879
1878,1835,1841
1889,1837,1875
1896,1783,1894
1941,1856,1909
1939,1901,1847
1917,1821,1865
1877,1831,1900
1875,1872,1881
1819,1851,1810
1855,1815,1837
1979,1842,1882
1925,1846,1876
1844,1831,1863
1857,1843,1891
1927,1913,1931
1899,1871,1881
1859,1791,1807
1875,1818,1824
1894,1857,1877
1959,1872,1919
1873,1803,1808
1873,1791,1781
1917,1841,1852
1847,1851,1884
1847,1840,1866
1874,1836,1854
1910,1859,1892
1882,1852,1872
1884,1821,1835
1933,1823,1840
1915,1872,1904
1861,1878,1895
1837,1835,1840
1871,1808,1827
1920,1827,1845
1890,1856,1869
1872,1834,1849
1935,1834,1823
1900,1850,1861
1931,1856,1855
1803,1831,1851
1840,1833,1870
1943,1853,1855
1919,1879,1898
1859,1841,1872
1835,1854,1891
1896,1878,1872
1869,1857,1841
1883,1802,1798
1871,1810,1855
1939,1831,1837
1870,1836,1846
1857,1830,1841
1863,1843,1856
1856,1860,1893
1894,1840,1872
1920,1820,1831
1854,1829,1855
1893,1870,1905
1904,1843,1881
1854,1821,1834
1915,1825,1854
1925,1851,1869
1853,1857,1840
1830,1803,1776
1872,1854,1860
1853,1849,1922
1872,1855,1876
1850,1839,1842
1877,1822,1854
1939,1831,1842
1867,1826,1840
1822,1817,1831
1856,1838,1823
1902,1876,1904
1879,1843,1901
1856,1851,1887
1809,1837,1863
1850,1843,1849
1890,1846,1862
1914,1833,1814
1858,1817,1833
1883,1885,1891
1882,1897,1888
1808,1838,1790
1805,1806,1805
1856,1856,1909
1872,1861,1883
1830,1833,1851
1850,1854,1872
1896,1871,1853
1937,1857,1819
1821,1851,1851
1815,1837,1831
1901,1883,1887
1917,1895,1872
1845,1875,1867
1829,1854,1856
1873,1886,1881
1874,1877,1877
1885,1872,1843
1861,1885,1872
1891,1872,1866
1874,1856,1858
1854,1866,1842
1841,1882,1911
1910,1904,1908
1919,1891,1866
1834,1847,1795
1809,1833,1839
1877,1856,1881
1878,1882,1860
1861,1871,1836
1872,1882,1844
1925,1876,1851
1860,1855,1867
1839,1871,1902
1861,1865,1862
1893,1905,1862
1895,1872,1851
1846,1825,1826
1822,1843,1860
1831,1872,1889
1933,1887,1863
1936,1856,1783
1869,1833,1820
1823,1870,1934
1833,1877,1901
1846,1865,1873
1882,1851,1839
1869,1894,1872
1933,1917,1907
1846,1826,1850
1815,1814,1861
1879,1872,1855
1921,1893,1824
1851,1810,1791
1818,1829,1856
1923,1866,1907
1922,1874,1920
1859,1854,1897
1853,1837,1840
1887,1876,1858
1882,1856,1845
1840,1801,1815
1867,1819,1836
1878,1886,1904
1856,1872,1915
1822,1806,1799
1913,1817,1806
1936,1859,1876
1859,1863,1900
1796,1835,1872
1860,1837,1866
1904,1858,1862
1891,1853,1857
1866,1820,1855
1810,1818,1825
1843,1847,1859
1915,1872,1920
1895,1804,1872
1855,1815,1826
1830,1824,1825
1870,1872,1875
1893,1840,1872
1888,1841,1862
1871,1867,1841
1878,1858,1840
1842,1808,1862
1893,1834,1840
1898,1863,1922
1936,1885,1875
1872,1843,1875
1811,1840,1861
1873,1859,1893
1895,1856,1840
1824,1815,1806
1824,1850,1855
1917,1881,1904
1938,1888,1871
1877,1825,1856
1856,1833,1827
1878,1856,1856
1895,1872,1908
1858,1851,1875
1847,1840,1869
1904,1877,1845
1890,1878,1872
1837,1862,1881
1815,1829,1835
1905,1872,1874
1945,1874,1857
1882,1840,1855
1853,1839,1822
1846,1852,1866
1871,1876,1867
1890,1853,1854
1913,1869,1873
1876,1900,1904
1875,1876,1863
1877,1871,1894
1857,1839,1889
1890,1850,1827
1942,1887,1906
1885,1854,1837
1823,1825,1841
1834,1869,1846
1893,1886,1873
1925,1872,1861
1920,1874,1911
1861,1891,1899
1846,1891,1875
1826,1849,1830
1853,1859,1865
1872,1862,1853
1872,1888,1888
1888,1869,1914
1914,1867,1895
1885,1887,1910
1851,1871,1862
1845,1840,1827
1865,1867,1895
1879,1904,1910
1878,1875,1847
1866,1866,1857
1902,1904,1926
1897,1872,1870
1879,1873,1900
1842,1855,1887
1882,1845,1803
1975,1867,1870
1933,1890,1870
1871,1862,1829
1909,1847,1861
1824,1861,1832
1815,1875,1901
1895,1870,1847
1922,1842,1874
1847,1872,1866
1841,1887,1885
1858,1865,1807
1881,1875,1895
1915,1886,1840
1883,1873,1955
1893,1835,1853
1887,1843,1842
1867,1903,1904
1856,1892,1925
1859,1824,1827
1847,1824,1843
1881,1879,1899
1907,1866,1872
1866,1837,1805
1887,1847,1840
1959,1863,1872
1913,1857,1888
1858,1834,1867
1872,1845,1882
1906,1887,1919
1895,1850,1820
1894,1840,1822
1895,1834,1822
1900,1835,1914
1921,1860,1898
1878,1820,1798
1854,1795,1831
1854,1841,1894
1865,1839,1858
1924,1835,1783
1929,1845,1856
1872,1858,1872
1847,1842,1923
1879,1827,1859
1925,1840,1917
1909,1855,1875
1891,1843,1862
1906,1828,1837
1932,1840,1835
1904,1828,1866
1869,1831,1813
1873,1836,1890
1871,1807,1819
1899,1838,1859
1867,1838,1900
1871,1823,1843
1901,1815,1885
1936,1836,1919
1882,1828,1922
1844,1811,1870
1874,1808,1857
1904,1808,1872
1899,1808,1884
1909,1794,1811
1901,1794,1831
1888,1825,1904
1843,1827,1866
1835,1789,1853
1891,1786,1878
1904,1799,1863
1901,1808,1882
1890,1789,1842
1856,1790,1890
1887,1835,1862
1886,1803,1904
1840,1763,1805
1871,1795,1875
1887,1808,1874
1861,1790,1841
1893,1785,1846
1891,1785,1847
1904,1825,1861
1890,1777,1785
1827,1753,1837
1859,1775,1895
1878,1825,1886
1887,1821,1870
1878,1752,1819
1907,1777,1930
1888,1800,1859
1868,1808,1873
1846,1775,1830
1875,1779,1861
1943,1830,1925
1938,1808,1898
1877,1739,1791
1887,1759,1853
1955,1809,1885
1904,1814,1874
1793,1776,1865
1802,1763,1857
1870,1788,1867
1904,1813,1859
1911,1806,1871
1886,1798,1904
1902,1805,1872
1945,1823,1840
1943,1773,1823
1872,1750,1843
1872,1803,1874
1911,1815,1890
1872,1804,1901
1836,1791,1859
1924,1818,1867
1885,1798,1855
1846,1776,1840
1863,1775,1857
1877,1827,1868
1999,1811,1856
1914,1798,1855
1886,1792,1870
1947,1823,1874
1905,1815,1870
1845,1787,1877
1872,1808,1875
1936,1851,1899
1857,1811,1853
1861,1745,1766
1914,1797,1835
1861,1803,1883
1871,1822,1909
1872,1814,1879
1881,1834,1877
1973,1817,1835
1902,1794,1851
1822,1799,1874
1858,1837,1899
1905,1838,1872
1882,1826,1866
1859,1779,1829
1871,1782,1851
1919,1840,1903
1939,1840,1875
1821,1825,1890
1856,1813,1879
1922,1825,1881
1936,1820,1826
1948,1814,1805
1871,1843,1941
1817,1826,1914
1862,1813,1878
1872,1792,1850
1849,1821,1851
1903,1840,1884
1904,1841,1869
1871,1835,1906
1865,1840,1890
1888,1870,1898
1921,1853,1888
1869,1808,1795
1899,1823,1829
1935,1872,1911
1915,1837,1859
1885,1845,1867
1858,1856,1877
1915,1872,1913
1872,1855,1916
1869,1835,1869
1891,1860,1892
1939,1855,1853
1898,1841,1837
1971,1840,1819
1853,1855,1879
1840,1881,1909
1859,1865,1899
1903,1851,1878
1839,1823,1856
1849,1866,1885
1945,1867,1893
1875,1855,1872
1915,1872,1875
1941,1875,1920
1861,1861,1912
1821,1850,1859
1826,1856,1871
1925,1879,1902
1931,1877,1883
1851,1858,1861
1869,1861,1885
1891,1872,1902
1914,1868,1883
1807,1844,1854
1808,1820,1839
1886,1839,1854
1902,1863,1879
1901,1861,1893
1856,1863,1870
1871,1869,1863
1904,1866,1881
1835,1853,1842
1790,1856,1852
1959,1888,1865
1903,1885,1901
1819,1850,1883
1877,1835,1856
1856,1842,1853
1881,1855,1839
1906,1828,1822
1863,1846,1857
1894,1884,1861
1887,1884,1909
1841,1842,1849
1845,1859,1849
1906,1886,1888
1873,1867,1872
1856,1876,1877
1877,1842,1863
1879,1875,1903
1895,1874,1878
1915,1831,1823
1815,1877,1859
1847,1872,1886
1831,1865,1871
1939,1823,1782
1931,1866,1855
1858,1890,1933
1869,1890,1933
1887,1862,1872
1831,1855,1850
1857,1895,1894
1904,1892,1935
1865,1859,1887
1967,1874,1887
1882,1875,1884
1741,1877,1870
1846,1850,1823
1903,1855,1812
1942,1909,1891
1815,1884,1919
1834,1839,1878
1827,1861,1885
1877,1903,1918
1954,1901,1901
1950,1894,1831
1845,1873,1915
1813,1867,1935
1873,1875,1903
1853,1866,1856
1850,1871,1871
1891,1898,1889
1894,1872,1856
1931,1856,1824
1875,1851,1811
1808,1885,1914
1801,1889,1926
1831,1872,1881
1857,1849,1858
1881,1899,1878
1910,1858,1860
1877,1838,1812
1875,1856,1851
1888,1903,1936
1843,1876,1878
1814,1837,1788
1871,1840,1845
1866,1876,1871
1863,1885,1890
1802,1831,1866
1774,1847,1885
1905,1879,1882
1947,1891,1843
1827,1838,1822
1823,1838,1842
1842,1869,1886
1846,1873,1897
1814,1838,1849
1845,1854,1824
1920,1875,1856
1895,1872,1859
1855,1854,1839
1867,1874,1856
1859,1879,1865
1857,1873,1878
1877,1847,1817
1890,1868,1881
1872,1873,1883
1835,1864,1867
1837,1856,1855
1859,1872,1870
1874,1894,1887
1879,1872,1867
1901,1872,1877
1909,1856,1840
1859,1919,1877
1812,1873,1858
1890,1843,1814
1903,1856,1815
1890,1909,1938
1839,1879,1911
1836,1840,1842
1856,1865,1882
1888,1887,1877
1873,1872,1880
1870,1856,1860
1904,1887,1901
1898,1888,1898
1870,1895,1880
1865,1843,1822
1860,1838,1830
1871,1863,1888
1883,1873,1900
1865,1851,1872
1904,1866,1843
1891,1895,1865
1836,1875,1872
1830,1857,1894
1902,1873,1889
1948,1900,1882
1903,1891,1883
1827,1840,1831
1844,1866,1857
1882,1869,1872
1904,1869,1851
1878,1856,1852
1835,1854,1843
1858,1856,1859
1873,1892,1897
1867,1866,1872
1880,1861,1851
1913,1883,1881
1889,1867,1845
1853,1829,1799
1862,1856,1872
1869,1895,1920
1871,1904,1874
1866,1853,1840
1886,1854,1872
1898,1870,1891
1878,1853,1859
1853,1833,1799
1878,1856,1837
1867,1870,1885
1865,1872,1869
1886,1888,1904
1902,1869,1854
1907,1847,1835
1885,1872,1873
1885,1873,1901
1901,1859,1863
1875,1894,1881
1886,1890,1872
1885,1855,1847
1872,1867,1839
1922,1884,1861
1895,1875,1879
1838,1859,1872
1856,1872,1860
1906,1879,1859
1887,1890,1892
1873,1875,1853
1872,1865,1831
1885,1881,1872
1883,1862,1886
1841,1840,1856
1840,1889,1865
1888,1890,1855
1877,1857,1846
1872,1855,1860
1915,1886,1862
1906,1873,1872
1858,1872,1901
1874,1842,1869
1897,1840,1835
1874,1873,1865
1858,1886,1902
1831,1856,1847
1859,1847,1845
1913,1876,1883
1868,1861,1867
1903,1855,1843
1897,1872,1867
1904,1902,1915
1863,1877,1856
1845,1841,1824
1868,1839,1861
1907,1879,1894
1904,1892,1867
1889,1844,1824
1866,1842,1825
1867,1863,1859
1872,1870,1879
1888,1889,1855
1915,1866,1822
1957,1894,1853
1876,1843,1830
1786,1825,1863
1841,1877,1904
1882,1898,1918
1906,1869,1838
1897,1813,1838
1904,1838,1870
1921,1886,1881
1866,1895,1871
1826,1840,1795
1877,1829,1831
1909,1853,1867
1899,1877,1867
1855,1877,1855
1846,1863,1834
1872,1842,1856
1872,1869,1873
1871,1846,1839
1891,1853,1857
1968,1857,1860
1904,1846,1856
1809,1830,1819
1829,1835,1835
1873,1865,1859
1875,1857,1856
1904,1839,1801
1875,1845,1845
1856,1872,1887
1840,1885,1885
1853,1905,1835
1871,1844,1810
1911,1875,1888
1875,1867,1869
1862,1785,1786
1897,1837,1821
1904,1840,1914
1845,1894,1917
1853,1811,1867
1862,1831,1867
1869,1889,1910
1898,1882,1936
1881,1850,1904
1901,1835,1911
1872,1820,2004
1855,1844,2016
1872,1889,2017
1869,1862,2069
1850,1812,2086
1845,1856,2111
1845,1829,2034
1841,1866,2087
1883,1879,2160
1866,1875,2107
1837,1855,2099
1907,1859,2165
1889,1871,2130
1834,1845,2125
1808,1828,2112
1843,1845,2142
1901,1879,2114
1854,1871,2109
1827,1879,2097
1843,1831,2139
1831,1865,2143
1858,1861,2130
1840,1856,2112
1828,1861,2078
1872,1878,2096
1877,1822,2094
1858,1853,2061
1873,1795,2095
1844,1901,2126
1889,1849,2094
1853,1840,2067
1829,1839,2035
1874,1863,2097
1835,1840,2075
1844,1858,2027
1859,1867,2067
1856,1834,2111
1892,1873,2074
1835,1854,2031
1842,1824,2024
1858,1840,2034
1820,1819,2025
1815,1881,2063
1846,1850,2076
1869,1871,2022
1859,1889,2017
1840,1835,2018
1843,1865,2035
1887,1877,2030
1872,1886,2000
1826,1867,1987
1869,1882,1985
1883,1819,1980
1856,1872,1993
1854,1866,1975
1808,1853,1979
1815,1847,2002
1827,1910,1973
1850,1833,1991
1889,1847,1978
1914,1889,2005
1871,1936,1983
1810,1802,1921
1843,1827,2000
1888,1870,1968
1875,1855,1924
1823,1872,1957
1827,1894,1955
1840,1865,1968
1841,1869,1961
1861,1936,1951
1875,1858,1923
1893,1872,1924
1879,1854,1958
1841,1865,1927
1873,1831,1899
1863,1872,1924
1856,1889,1953
1879,1882,1939
1879,1858,1921
1872,1901,1919
1858,1895,1927
1819,1855,1881
1857,1854,1895
1893,1889,1910
1904,1882,1882
1875,1858,1856
1860,1866,1907
1842,1842,1938
1840,1877,1919
1863,1887,1867
1917,1874,1870
1907,1893,1904
1849,1851,1912
1851,1870,1890
1865,1890,1887
1894,1901,1849
1903,1904,1882
1906,1942,1885
1854,1911,1881
1871,1893,1917
1873,1836,1883
1869,1833,1818
1872,1872,1874
1877,1951,1869
1877,1861,1882
1861,1936,1872
1865,1873,1858
1946,1971,1889
1919,1920,1865
1849,1883,1851
1829,1867,1827
1854,1900,1856
1895,1805,1849
1856,1855,1836
1904,1872,1843
1949,1932,1847
1914,1899,1854
1869,1866,1841
1845,1898,1866
1899,1922,1867
1885,1886,1844
1862,1872,1821
1879,1872,1850
1877,1936,1859
1895,1904,1828
1898,1871,1806
1879,1856,1826
1904,1904,1881
1887,1914,1856
1889,1855,1745
1910,1861,1822
1917,1893,1860
1852,1867,1856
1824,1765,1830
1856,1933,1821
1917,1952,1840
1904,1898,1791
1891,1875,1776
1867,1843,1777
1884,1878,1798
1843,1853,1809
1838,1867,1819
1861,1894,1819
1909,1904,1811
1965,1866,1763
1886,1859,1804
1825,1870,1842
1854,1901,1851
1877,1898,1817
1872,1856,1761
1889,1872,1785
1970,1909,1829
1895,1904,1809
1872,1840,1729
1847,1856,1765
1862,1883,1840
1872,1898,1840
1843,1844,1782
1876,1865,1776
1911,1903,1818
1873,1899,1839
1862,1859,1744
1888,1859,1757
1911,1904,1806
1877,1906,1821
1831,1872,1773
1854,1874,1787
1927,1888,1796
1841,1862,1782
1826,1847,1801
1849,1888,1807
1883,1905,1808
1891,1875,1761
1887,1854,1754
1865,1903,1843
1872,1907,1808
1897,1882,1775
1843,1822,1739
1851,1856,1800
1842,1862,1777
1860,1877,1795
1923,1870,1747
1946,1870,1770
1859,1882,1797
1821,1899,1808
1830,1859,1776
1881,1860,1776
1882,1875,1806
1857,1879,1815
1854,1862,1761
1920,1881,1776
1897,1872,1773
1824,1843,1776
1866,1840,1770
1856,1859,1769
1840,1890,1807
1856,1877,1776
1840,1858,1766
1863,1858,1778
1927,1865,1781
1855,1854,1778
1845,1867,1729
1850,1861,1762
1903,1865,1813
1885,1863,1776
1859,1863,1793
1838,1876,1811
1855,1894,1808
1869,1856,1745
1858,1829,1746
1859,1842,1785
1897,1896,1823
1872,1875,1799
1861,1842,1762
1854,1855,1778
1915,1904,1782
1915,1872,1749
1857,1857,1802
1855,1872,1805
1875,1898,1824
1869,1885,1811
1874,1858,1760
1867,1863,1766
1918,1890,1815
1885,1898,1815
1858,1885,1781
1874,1869,1793
1889,1887,1827
1875,1879,1779
1852,1858,1749
1904,1873,1799
1926,1885,1810
1889,1854,1812
1902,1835,1762
