1818,1805,1792
1761,1793,1823
1803,1803,1851
1823,1824,1866
1854,1824,1873
1818,1805,1808
1821,1809,1794
1802,1835,1870
1834,1805,1854
1835,1802,1822
1903,1845,1869
1901,1850,1895
1789,1809,1839
1776,1791,1808
1877,1817,1841
1797,1814,1854
1755,1792,1838
1826,1808,1829
1830,1813,1839
1808,1804,1810
1771,1786,1805
1756,1791,1813
1819,1824,1856
1840,1829,1856
1821,1787,1805
1809,1759,1781
1859,1803,1821
1825,1820,1845
1783,1799,1837
1770,1763,1824
1749,1776,1812
1794,1807,1815
1822,1799,1786
1792,1759,1759
1809,1798,1862
1769,1806,1822
1767,1776,1763
1854,1792,1823
1808,1796,1870
1790,1824,1862
1777,1757,1751
1725,1746,1744
1781,1768,1776
1824,1781,1829
1728,1790,1810
1723,1771,1814
1841,1813,1869
1817,1809,1845
1757,1776,1791
1763,1745,1791
1808,1803,1833
1867,1808,1808
1791,1776,1791
1718,1762,1815
1751,1783,1853
1796,1820,1872
1819,1808,1855
1830,1795,1829
1781,1799,1821
1798,1807,1847
1821,1795,1796
1813,1802,1806
1838,1851,1879
1781,1833,1849
1747,1794,1840
1777,1769,1815
1858,1842,1890
1840,1842,1881
1809,1783,1801
1807,1810,1822
1781,1840,1867
1814,1840,1884
1792,1782,1812
1791,1775,1808
1829,1840,1867
1847,1868,1879
1904,1840,1841
1857,1815,1870
1806,1834,1850
1778,1810,1853
1767,1786,1831
1830,1802,1846
1811,1837,1899
1844,1872,1905
1868,1833,1842
1819,1793,1823
1808,1821,1895
1847,1883,1913
1844,1858,1840
1811,1793,1808
1892,1843,1917
1839,1859,1907
1761,1819,1840
1745,1801,1787
1847,1829,1844
1915,1851,1894
1840,1843,1891
1805,1850,1899
1794,1849,1855
1816,1840,1853
1813,1823,1827
1840,1829,1839
1872,1851,1858
1879,1875,1840
1865,1839,1830
1842,1816,1840
1845,1836,1870
1803,1830,1893
1791,1828,1841
1808,1798,1833
1821,1825,1856
1764,1842,1883
1759,1829,1856
1809,1809,1843
1873,1842,1873
1937,1856,1854
1856,1809,1811
1760,1810,1849
1753,1837,1863
1795,1848,1860
1804,1795,1778
1803,1812,1818
1814,1841,1861
1803,1843,1835
1830,1793,1782
1817,1807,1799
1806,1824,1850
1809,1861,1898
1795,1834,1862
1778,1792,1802
1855,1807,1804
1842,1823,1834
1819,1861,1911
1744,1821,1841
1767,1835,1825
1872,1870,1833
1856,1833,1814
1773,1790,1831
1778,1842,1842
1831,1853,1840
1847,1824,1800
1829,1824,1823
1834,1840,1867
1775,1840,1846
1796,1842,1843
1807,1831,1846
1832,1867,1904
1817,1867,1868
1860,1843,1814
1809,1823,1807
1833,1853,1845
1813,1856,1847
1829,1815,1809
1833,1794,1805
1806,1854,1878
1834,1838,1891
1803,1886,1877
1847,1898,1840
1865,1883,1839
1787,1811,1884
1795,1892,1879
1865,1838,1840
1929,1884,1885
1905,1876,1892
1818,1731,1789
1763,1809,1791
1811,1874,1876
1873,1915,1886
1777,1776,1831
1763,1823,1803
1840,1911,1847
1854,1899,1904
1842,1836,1846
1859,1850,1859
1919,1922,1916
1869,1813,1866
1756,1763,1781
1739,1862,1805
1848,1872,1887
1878,1845,1882
1827,1818,1812
1853,1812,1823
1850,1895,1883
1837,1851,1851
1825,1838,1833
1822,1787,1817
1805,1834,1840
1843,1888,1855
1872,1857,1840
1854,1826,1872
1857,1876,1890
1834,1927,1893
1826,1876,1841
1813,1789,1803
1853,1847,1806
1825,1815,1804
1754,1861,1823
1765,1835,1853
1869,1895,1871
1894,1883,1869
1842,1847,1823
1799,1811,1857
1808,1882,1884
1872,1915,1859
1936,1951,1855
1831,1825,1826
1746,1823,1817
1789,1799,1856
1817,1808,1782
1863,1807,1842
1841,1909,1901
1806,1839,1865
1801,1840,1809
1821,1858,1798
1869,1872,1857
1862,1845,1885
1855,1840,1844
1797,1819,1795
1821,1842,1766
1904,1915,1887
1841,1915,1907
1836,1809,1859
1840,1867,1803
1842,1811,1799
1766,1817,1808
1787,1847,1844
1825,1846,1857
1806,1824,1838
1802,1836,1780
1836,1826,1818
1873,1921,1909
1897,1932,1893
1803,1872,1808
1783,1785,1807
1938,1887,1853
1909,1883,1840
1771,1839,1809
1755,1871,1851
1795,1841,1862
1819,1872,1843
1812,1840,1817
1818,1839,1824
1859,1787,1861
1865,1906,1879
1845,1871,1837
1842,1858,1834
1862,1855,1834
1903,1863,1808
1831,1850,1814
1814,1843,1849
1840,1881,1872
1840,1887,1870
1834,1857,1830
1841,1852,1835
1859,1859,1851
1867,1859,1863
1843,1870,1829
1842,1871,1830
1859,1894,1856
1865,1889,1872
1854,1843,1847
1850,1840,1851
1875,1897,1867
1870,1884,1872
1845,1889,1852
1854,1843,1856
1876,1911,1871
1878,1885,1885
1853,1774,1872
1860,1862,1862
1890,1851,1951
1894,1902,1929
1873,1874,1831
1878,1840,1920
1895,1938,1885
1905,1853,1794
1891,1857,1785
1893,1836,1823
1914,1833,1869
1915,1851,1872
1914,1810,1846
1920,1813,1915
1941,1915,2000
1936,1819,1849
1914,1795,1777
1926,1781,1822
1958,1823,1879
1957,1827,1889
1923,1770,1859
1930,1806,1838
1963,1870,1869
1952,1810,1863
1937,1783,1842
1962,1806,1883
1987,1868,1877
1967,1671,1855
1936,1690,1865
1936,1732,1808
1968,1747,1842
1970,1695,1851
1950,1686,1808
1954,1722,1817
1998,1718,1857
2003,1684,1887
1990,1738,1840
1983,1762,1815
2018,1758,1845
2046,1766,1879
2027,1682,1840
2025,1662,1824
2071,1712,1857
2093,1714,1873
2079,1731,1841
2089,1808,1844
2096,1691,1862
2096,1598,1856
2095,1666,1845
2144,1822,1922
2162,1710,1922
2125,1610,1869
2096,1562,1829
2110,1470,1861
2143,1526,1909
2144,1615,1914
2135,1662,1952
2115,1535,1950
2145,1488,1962
2148,1490,2006
2128,1527,2006
2117,1530,2032
2135,1563,2083
2148,1592,2123
2128,1504,2112
2118,1495,2128
2139,1535,2175
2146,1562,2197
2127,1529,2187
2135,1488,2195
2148,1476,2218
2130,1444,2226
2117,1445,2207
2131,1477,2226
2160,1466,2314
2139,1503,2313
2135,1423,2290
2114,1323,2256
2143,1356,2300
2172,1435,2353
2135,1490,2319
2115,1361,2303
2133,1319,2343
2155,1513,2373
2128,1445,2330
2125,1377,2357
2148,1405,2430
2112,1296,2426
2081,1177,2423
2101,1266,2496
2128,1353,2551
2128,1361,2559
2097,1359,2512
2099,1299,2535
2118,1344,2597
2112,1349,2630
2085,1308,2593
2096,1351,2593
2124,1360,2630
2112,1293,2634
2105,1367,2621
2103,1362,2551
2102,1367,2603
2090,1301,2667
2096,1268,2613
2045,1266,2592
2142,1339,2640
2096,1379,2637
2077,1350,2554
2081,1290,2529
2096,1273,2579
2115,1316,2604
2043,1323,2557
2065,1366,2546
2127,1363,2559
2032,1367,2549
2038,1385,2505
2083,1312,2512
2054,1335,2535
2060,1363,2511
2022,1350,2469
2029,1385,2471
2064,1401,2494
2061,1402,2480
2033,1386,2426
2068,1382,2410
2059,1412,2448
2017,1428,2452
2014,1409,2411
2030,1407,2373
2093,1440,2371
2045,1472,2429
2000,1436,2384
1993,1430,2362
2047,1468,2395
2090,1507,2416
2032,1470,2334
1956,1428,2270
1977,1451,2293
2041,1473,2303
1922,1452,2258
1971,1453,2240
2000,1483,2267
2000,1504,2272
1998,1473,2221
1961,1472,2207
1950,1491,2235
1982,1503,2233
1950,1472,2171
1939,1467,2155
2014,1501,2182
1983,1516,2176
1955,1503,2129
1950,1499,2126
1988,1521,2144
1973,1531,2130
1959,1504,2081
1931,1503,2061
1970,1531,2087
1981,1535,2095
1945,1514,2032
1944,1513,2023
1967,1535,2045
2016,1553,2031
1945,1526,1984
1949,1523,1979
1981,1555,2000
1997,1570,1991
1936,1563,1951
1914,1562,1935
1952,1555,1955
1919,1576,1952
1936,1535,1905
1936,1554,1898
1932,1584,1920
1947,1615,1918
1952,1605,1877
1914,1570,1873
1948,1611,1913
1936,1625,1905
1878,1615,1854
1909,1643,1857
1906,1603,1871
1902,1606,1872
1882,1599,1830
1907,1607,1842
1910,1648,1872
1859,1680,1859
1852,1723,1775
1882,1682,1813
1894,1616,1839
1890,1629,1833
1854,1642,1792
1871,1658,1817
1889,1701,1791
1789,1712,1826
1859,1694,1738
1860,1710,1754
1876,1737,1782
1874,1744,1820
1840,1717,1773
1840,1719,1701
1871,1754,1754
1859,1776,1814
1835,1761,1795
1891,1761,1743
1843,1791,1767
1888,1798,1803
1840,1786,1737
1825,1785,1741
1881,1806,1758
1808,1815,1754
1869,1797,1715
1846,1785,1707
1861,1821,1748
1843,1840,1728
1825,1821,1711
1857,1809,1686
1893,1841,1710
1842,1850,1757
1819,1851,1712
1805,1842,1664
1808,1835,1680
1829,1859,1703
1824,1842,1638
1840,1839,1694
1821,1869,1715
1826,1903,1722
1802,1853,1674
1813,1823,1632
1899,1890,1744
1890,1907,1700
1809,1868,1666
1783,1847,1600
1822,1921,1699
1904,1936,1775
1742,1831,1590
1746,1821,1569
1807,1911,1621
1919,1968,1729
1904,1958,1719
1796,1872,1664
1664,1799,1565
1678,1845,1520
1721,1875,1507
1807,1876,1557
1789,1914,1625
1779,1920,1646
1734,1889,1597
1764,1893,1647
1747,1903,1664
1759,1932,1660
1751,1915,1616
1733,1899,1617
1754,1920,1692
1731,1918,1629
1717,1891,1623
1709,1891,1732
1750,1921,1584
1744,1936,1495
1709,1904,1622
1677,1886,1530
1710,1890,1535
1758,1882,1648
1663,1829,1495
1627,1831,1481
1674,1871,1484
1683,1893,1522
1671,1867,1557
1611,1831,1523
1639,1852,1491
1599,1861,1395
1568,1846,1415
1648,1842,1491
1664,1907,1535
1645,1887,1509
1641,1883,1506
1631,1893,1531
1645,1938,1535
1661,1938,1563
1641,1926,1556
1655,1939,1535
1653,1965,1557
1648,1952,1535
1610,1943,1535
1626,1947,1562
1632,1984,1585
1699,2000,1585
1646,1986,1570
1645,1987,1581
1681,2001,1616
1648,2000,1633
1662,2002,1578
1667,1990,1552
1651,2005,1641
1658,2043,1650
1605,1997,1558
1611,1957,1567
1607,1961,1531
1572,1961,1535
1583,1949,1434
1615,1958,1535
1584,1947,1535
1534,1914,1498
1495,1883,1411
1506,1882,1399
1529,1897,1469
1522,1894,1432
1493,1866,1408
1483,1860,1439
1493,1872,1472
1531,1864,1445
1456,1835,1350
1424,1814,1399
1456,1823,1441
1473,1840,1447
1463,1828,1382
1454,1827,1399
1488,1857,1430
1483,1850,1459
1428,1819,1402
1421,1810,1407
1563,1856,1463
1534,1898,1495
1499,1872,1463
1491,1853,1445
1424,1862,1456
1449,1885,1483
1521,1869,1392
1454,1863,1438
1520,1894,1428
1520,1909,1495
1517,1894,1478
1509,1887,1500
1529,1925,1535
1535,1934,1487
1511,1906,1488
1523,1899,1500
1533,1935,1559
1585,1953,1570
1567,1922,1585
1609,1917,1526
1591,1941,1535
1614,1957,1625
1583,1945,1564
1535,1904,1534
1616,1934,1567
1571,1951,1605
1591,1946,1590
1596,1947,1590
1637,2005,1641
1605,2012,1659
1629,1936,1611
1597,1946,1613
1683,2013,1661
1652,2094,1698
1596,1979,1659
1603,1889,1622
1680,1937,1661
1741,2007,1696
1636,1998,1661
1630,1983,1655
1674,2020,1709
1733,2031,1719
1671,1993,1686
1690,2018,1697
1760,2125,1777
1765,2125,1794
1712,2032,1728
1681,1982,1729
1702,2006,1753
1741,2064,1776
1717,2063,1753
1712,2095,1757
1712,2103,1739
1757,2244,1753
1755,2158,1766
1755,1978,1766
1718,2016,1755
1761,2095,1749
1698,2110,1746
1791,2083,1746
1743,2146,1776
1801,2192,1791
1813,2145,1794
1665,2073,1751
1722,2147,1812
1866,2209,1856
1822,2146,1831
1817,2192,1831
1774,2226,1874
1776,2198,1846
1710,2160,1683
1774,2310,1823
1807,2253,1858
1890,2295,1885
1785,2256,1777
1630,2146,1648
1642,2210,1767
1750,2358,1842
1755,2394,1861
1823,2405,1935
1840,2428,1790
1734,2355,1630
1679,2319,1599
1701,2375,1768
1670,2461,1909
1743,2517,1818
1811,2464,1742
1803,2513,1776
1889,2692,1985
1725,2554,1825
1535,2448,1651
1532,2480,1648
1594,2559,1702
1680,2645,1681
1671,2657,1760
1693,2653,1776
1662,2611,1763
1681,2633,1808
1683,2628,1739
1708,2668,1835
1674,2631,1771
1578,2557,1605
1600,2589,1599
1651,2601,1696
1713,2605,1701
1683,2602,1664
1583,2623,1744
1606,2537,1679
1815,2625,1782
1815,2670,1859
1643,2606,1701
1472,2494,1651
1580,2519,1710
1662,2511,1710
1584,2559,1723
1720,2559,1742
1766,2470,1774
1647,2487,1766
1673,2581,1808
1802,2551,1793
1635,2464,1712
1588,2513,1654
1726,2492,1627
1730,2423,1652
1628,2474,1711
1646,2533,1663
1674,2521,1680
1831,2544,1726
1723,2534,1694
1709,2532,1678
1796,2528,1603
1905,2590,1674
1760,2493,1558
1737,2474,1433
1760,2480,1434
1809,2548,1424
1813,2543,1466
1782,2543,1447
1791,2543,1360
1801,2545,1360
1849,2603,1431
1903,2600,1351
1840,2489,1301
1850,2493,1337
1936,2545,1395
1897,2541,1381
1885,2495,1301
1813,2513,1328
1856,2491,1335
1918,2482,1306
1947,2458,1328
1926,2480,1349
1911,2512,1421
1902,2454,1406
1871,2401,1394
1876,2445,1398
1914,2467,1406
2013,2444,1398
1900,2415,1328
1911,2370,1334
1952,2396,1457
1903,2384,1422
1890,2362,1330
2045,2389,1403
1973,2398,1407
2071,2359,1435
2044,2350,1498
1834,2285,1459
1879,2311,1472
1952,2332,1411
2018,2313,1457
1904,2274,1445
1946,2278,1392
1959,2295,1445
1920,2277,1479
1967,2243,1567
2046,2256,1558
2065,2256,1535
1980,2201,1486
1918,2179,1467
1931,2198,1530
1977,2230,1592
1942,2179,1535
1979,2160,1514
1989,2184,1552
1971,2186,1572
1949,2172,1584
2031,2175,1665
2057,2112,1657
1962,2115,1646
1921,2081,1616
1953,2094,1602
1975,2142,1673
2019,2099,1645
1987,2047,1589
2015,2075,1686
2085,2094,1735
1993,2061,1676
1904,2043,1680
1931,1990,1655
2000,2016,1712
2032,2064,1778
1968,2053,1734
1959,2009,1693
2002,2029,1710
2031,2001,1741
1965,1952,1691
1890,1937,1721
2102,1979,1781
2019,1999,1773
2009,1967,1781
1999,1953,1775
2036,1994,1746
1982,1906,1682
2032,1902,1792
1995,1901,1834
1998,1936,1851
1987,1944,1847
1927,1857,1758
1968,1870,1783
2014,1890,1806
2064,1867,1753
1990,1872,1813
1968,1872,1894
1999,1872,1783
1982,1834,1807
1974,1821,1871
2006,1839,1884
2055,1872,1861
2032,1840,1798
1932,1803,1807
1932,1830,1795
1984,1792,1781
1983,1804,1826
1950,1764,1889
1941,1749,1827
2039,1811,1847
2046,1833,1911
2000,1793,1914
1955,1751,1787
1990,1815,1855
1959,1767,1863
1922,1718,1826
1971,1723,1835
2023,1749,1882
2010,1757,1873
1953,1742,1870
1937,1730,1845
1959,1758,1857
2023,1776,1821
2009,1756,1862
1921,1727,1873
1947,1725,1898
1968,1728,1926
1936,1703,1856
2021,1763,1909
2028,1741,1903
2012,1729,1958
1967,1712,1914
1953,1663,1857
1938,1652,1853
1965,1737,1879
1943,1718,1921
1911,1680,1949
1979,1699,1923
2007,1731,1923
1937,1689,1846
1947,1675,1955
2053,1715,2001
1957,1687,1961
1840,1601,1838
1923,1668,1866
2032,1731,1901
2027,1715,1970
1907,1644,1920
1874,1616,1925
1904,1649,1965
1923,1675,1962
1943,1662,1887
1959,1621,1908
1979,1691,1975
1986,1745,2005
1861,1639,1827
1862,1611,1845
1941,1661,1985
1964,1684,2037
1898,1602,1934
1949,1623,1894
2002,1721,2005
1977,1667,2030
1899,1613,1970
1906,1616,1968
1904,1642,1950
1929,1659,1949
1873,1637,1869
1963,1646,1884
1991,1665,1985
1904,1655,1956
1871,1632,1935
1943,1620,1923
2013,1651,2074
1943,1680,2013
1845,1583,1872
1855,1614,1947
1891,1665,2013
1953,1682,2032
1931,1657,1959
1871,1637,1917
1931,1689,1985
1893,1669,1879
1899,1648,1998
1955,1683,1955
1958,1698,1968
1935,1718,2000
1905,1682,1982
1905,1702,1977
1989,1729,1971
1949,1711,1894
1887,1699,2000
1901,1738,2098
1906,1728,2023
1885,1714,1936
1870,1696,1981
1886,1712,1982
1929,1723,1973
1914,1744,2030
1934,1743,2063
1917,1745,1970
1881,1703,1950
1919,1711,1991
1967,1746,1986
1958,1739,1954
1889,1724,2039
1921,1765,2087
1857,1658,1920
1856,1685,1958
1910,1712,1981
1915,1771,2017
1918,1767,2096
1835,1701,1982
1841,1728,2030
1879,1751,2031
1873,1731,1971
1939,1726,2031
1937,1759,2102
1875,1747,2025
1872,1728,1949
1890,1726,2005
1889,1750,2058
1842,1727,2027
1837,1704,2000
1858,1728,2005
1887,1779,1999
1871,1773,2063
1857,1699,2019
1887,1715,1991
1934,1768,2010
1887,1747,2062
1819,1701,2046
1873,1705,2039
1919,1755,2021
1938,1808,2075
1869,1722,2001
1830,1690,1984
1837,1729,2058
1835,1746,2086
1839,1734,2057
1870,1728,2015
1889,1753,2015
1887,1703,2094
1885,1717,2059
1882,1721,2000
1894,1723,2000
1855,1738,2128
1825,1733,2097
1862,1767,2082
1878,1772,2094
1870,1741,2093
1813,1675,2017
1899,1741,1955
1945,1770,2035
1873,1806,2128
1786,1696,2077
1811,1695,2053
1888,1776,2087
1855,1738,1975
1856,1713,1925
1889,1758,2026
1870,1746,2042
1904,1761,2112
1833,1742,2000
1808,1749,2039
1815,1774,2038
1847,1697,2061
1847,1699,2010
1854,1730,1986
1871,1798,1970
1909,1776,1984
1871,1728,2042
1886,1789,2053
1854,1725,2057
1865,1776,2066
1826,1679,1986
1814,1706,1944
1870,1776,1998
1932,1903,2039
1854,1765,1979
1809,1693,1952
1855,1710,1937
1854,1751,1887
1851,1759,1930
1894,1780,1999
1891,1766,2032
1879,1803,2019
1868,1781,2004
1923,1771,2022
1871,1759,2013
1870,1758,1994
1856,1797,1989
1834,1707,1905
1877,1814,1984
1903,1805,1965
1858,1705,1943
1854,1681,1968
1866,1754,2039
1869,1850,1998
1886,1750,1927
1897,1758,1991
1871,1770,2015
1845,1816,1965
1824,1767,1863
1857,1742,1929
1851,1771,1999
1870,1823,1977
1842,1786,1882
1872,1811,1904
1899,1766,1962
1886,1867,2024
1867,1779,1938
1867,1751,1899
1893,1827,1933
1903,1873,1969
1872,1790,1905
1905,1771,1936
1903,1798,1977
1831,1770,1926
1818,1757,1872
1883,1755,1890
1927,1872,1979
1947,1770,1957
1884,1755,1872
1825,1767,1880
1842,1794,1877
1888,1812,1909
1902,1729,1936
1923,1771,2005
1871,1872,1886
1855,1756,1840
1825,1829,1851
1904,1808,1914
1950,1801,1953
1909,1850,1952
1841,1815,1874
1827,1780,1842
1867,1808,1919
1872,1831,1885
1872,1808,1883
1881,1795,1911
1893,1829,1901
1882,1836,1857
1827,1746,1805
1843,1807,1856
1893,1863,1909
1847,1822,1886
1844,1859,1803
1887,1904,1840
1966,1817,1930
1904,1824,1923
1833,1872,1887
1783,1830,1853
1822,1819,1813
1897,1887,1776
1877,1803,1809
1847,1753,1877
1830,1856,1904
1846,1843,1847
1842,1819,1857
1863,1859,1819
1947,1853,1791
1965,1877,1937
1867,1878,1936
1861,1807,1834
1840,1810,1782
1834,1889,1815
1806,1826,1841
1840,1813,1846
1872,1838,1829
1895,1799,1828
1843,1809,1865
1849,1808,1879
1888,1849,1840
1893,1873,1843
1862,1900,1843
1882,1881,1855
1911,1866,1837
1846,1808,1868
1803,1825,1840
1833,1839,1833
1877,1828,1808
1919,1850,1866
1840,1857,1840
1815,1882,1811
1854,1810,1808
1914,1856,1856
1872,1843,1840
1857,1786,1853
1887,1892,1783
1872,1761,1792
1840,1791,1819
1845,1829,1863
1853,1870,1872
1840,1853,1840
1833,1850,1808
1886,1840,1808
1888,1865,1834
1862,1920,1811
1832,1838,1821
1860,1839,1860
1904,1899,1898
1923,1862,1862
1840,1799,1796
1820,1804,1771
1878,1852,1811
1833,1837,1775
1855,1853,1775
1915,1852,1841
1901,1858,1874
1838,1856,1839
1810,1811,1791
1867,1830,1760
1899,1862,1761
1874,1870,1760
1833,1814,1791
1839,1838,1859
1847,1872,1894
1878,1886,1851
1842,1847,1763
1847,1850,1758
1871,1872,1805
1840,1859,1841
1826,1822,1811
1845,1851,1818
1860,1883,1808
1856,1882,1797
1840,1819,1776
1851,1837,1809
1844,1840,1808
1891,1883,1819
1872,1883,1819
1807,1826,1767
1847,1849,1763
1847,1856,1790
1859,1845,1849
1857,1840,1806
1861,1846,1795
1841,1867,1797
1843,1843,1757
1820,1839,1771
1831,1841,1815
1838,1851,1801
1823,1810,1728
1843,1846,1754
1879,1893,1808
1841,1861,1763
1794,1807,1787
1830,1814,1799
1852,1863,1811
1843,1843,1766
1884,1824,1753
1872,1835,1758
1835,1851,1787
1816,1847,1798
1759,1798,1710
1792,1808,1733
1847,1848,1783
1819,1852,1802
1796,1811,1774
1834,1820,1770
1850,1847,1815
1795,1828,1795
1789,1817,1728
1847,1845,1778
1872,1856,1784
1814,1803,1744
1785,1776,1750
1830,1815,1754
1862,1824,1722
1809,1830,1767
1771,1792,1769
1814,1814,1809
1854,1856,1811
1838,1840,1747
1819,1817,1742
1753,1791,1747
1766,1808,1729
1839,1838,1824
1808,1804,1769
1819,1824,1744
1844,1827,1767
1807,1822,1785
1776,1797,1761
1808,1811,1765
1807,1835,1776
1815,1840,1771
1813,1808,1728
1837,1797,1741
1808,1827,1774
1805,1862,1768
1770,1808,1674
1781,1794,1766
1808,1813,1769
1841,1826,1776
1785,1798,1748
1793,1806,1755
1802,1821,1737
1783,1808,1751
1764,1786,1738
1803,1806,1732
1843,1843,1755
1840,1837,1748
1781,1835,1759
1774,1820,1743
1842,1840,1784
1787,1840,1782
1758,1786,1744
1803,1783,1728
1875,1825,1771
1811,1831,1732
1788,1803,1699
1765,1808,1747
1813,1849,1797
1823,1850,1813
1776,1799,1756
1773,1782,1714
1834,1827,1763
1831,1813,1697
1834,1823,1731
1834,1845,1795
1769,1827,1748
1787,1840,1776
1792,1837,1776
1797,1795,1744
1804,1805,1735
1825,1823,1785
1775,1797,1757
1766,1846,1731
1831,1866,1797
1809,1838,1778
1737,1763,1699
1754,1779,1698
1833,1827,1750
1808,1840,1776
1801,1838,1759
1847,1860,1820
1809,1842,1789
1771,1826,1744
1755,1791,1744
1797,1808,1751
1841,1856,1778
1827,1867,1799
1771,1802,1728
1803,1798,1728
1808,1808,1838
1785,1830,1840
1787,1837,1747
1798,1802,1726
1813,1840,1729
1807,1841,1840
1811,1824,1789
1841,1850,1823
1792,1840,1721
1774,1847,1761
1786,1818,1719
1808,1797,1797
1850,1827,1810
1811,1834,1761
1743,1792,1719
1758,1799,1762
1783,1802,1751
1808,1834,1758
1810,1810,1763
1795,1808,1814
1847,1854,1819
1843,1856,1776
1866,1866,1759
1745,1785,1715
1788,1831,1795
1801,1840,1823
1813,1826,1808
1861,1833,1808
1833,1836,1792
1808,1834,1787
1741,1791,1727
1753,1815,1751
1814,1856,1825
1829,1844,1841
1825,1827,1766
1871,1828,1729
1823,1859,1762
1829,1814,1776
1821,1830,1814
1803,1840,1840
1775,1838,1798
1792,1810,1682
1816,1808,1739
1831,1831,1802
1823,1849,1794
1786,1849,1781
1773,1823,1694
1781,1818,1771
1807,1836,1785
1837,1840,1806
1832,1827,1808
1839,1833,1840
1839,1847,1807
1849,1867,1770
1831,1858,1843
1805,1839,1793
1810,1837,1799
1818,1863,1772
1761,1840,1776
1807,1830,1749
1865,1845,1805
1807,1866,1776
1798,1845,1776
1872,1846,1844
1853,1850,1812
1792,1824,1831
1782,1823,1795
1808,1837,1811
1861,1879,1829
1904,1886,1803
1818,1845,1793
1825,1837,1820
1853,1885,1889
1795,1834,1775
1750,1794,1699
1781,1806,1763
1861,1853,1832
1883,1871,1797
1799,1834,1854
1820,1843,1792
1876,1887,1912
1840,1872,1883
1821,1847,1767
1842,1872,1821
1839,1853,1770
1830,1820,1786
1838,1840,1776
1820,1840,1853
1825,1842,1883
1866,1856,1893
1826,1831,1767
1837,1843,1808
1839,1872,1821
1844,1879,1856
1794,1825,1792
1856,1867,1841
1846,1873,1873
1828,1866,1858
1837,1850,1837
1867,1869,1802
1881,1841,1855
1806,1795,1787
1792,1805,1826
1825,1824,1783
1867,1878,1872
1839,1875,1872
1765,1814,1792
1840,1835,1801
1860,1865,1887
1857,1867,1869
1847,1852,1815
1856,1854,1743
1927,1886,1872
1840,1870,1895
1731,1808,1700
1808,1826,1737
1841,1867,1887
1903,1853,1809
1892,1826,1820
1801,1821,1813
1830,1899,1894
1819,1873,1859
1842,1839,1759
1843,1823,1806
1867,1882,1842
1815,1881,1926
1779,1850,1905
1848,1856,1856
1873,1875,1833
1852,1872,1883
1828,1869,1874
1810,1844,1835
1833,1852,1840
1877,1872,1831
1838,1865,1839
1840,1851,1830
1909,1872,1849
1843,1871,1831
1761,1859,1837
1823,1856,1771
1884,1875,1853
1858,1866,1845
1845,1865,1869
1856,1855,1873
1841,1877,1885
1834,1872,1808
1838,1843,1809
1839,1835,1874
1845,1857,1834
1837,1853,1818
1824,1869,1908
1875,1846,1853
1859,1863,1856
1858,1867,1835
1783,1835,1822
1845,1833,1858
1901,1921,1929
1856,1885,1901
1810,1830,1855
1829,1853,1854
1889,1877,1872
1872,1843,1882
1789,1823,1872
1787,1830,1839
1866,1870,1822
1923,1883,1879
1870,1827,1884
1838,1840,1856
1856,1902,1935
1864,1874,1875
1815,1850,1843
1853,1851,1815
1904,1883,1869
1924,1906,1906
1866,1866,1909
1813,1818,1875
1830,1861,1886
1859,1883,1833
1891,1861,1839
1863,1819,1861
1840,1863,1893
1840,1888,1887
1853,1861,1853
1893,1856,1855
1909,1888,1917
1871,1891,1904
1837,1851,1840
1843,1862,1853
1879,1881,1869
1881,1914,1906
1840,1859,1873
1857,1830,1884
1904,1887,1872
1879,1884,1842
1890,1840,1798
1840,1851,1843
1840,1873,1898
1911,1863,1858
1842,1851,1854
1873,1868,1888
1858,1893,1903
1872,1885,1872
1831,1863,1865
1840,1857,1827
1877,1872,1862
1868,1879,1883
1906,1852,1861
1885,1871,1845
1895,1905,1842
1857,1887,1888
1821,1837,1839
1815,1812,1817
1882,1862,1857
1874,1872,1863
1841,1852,1807
1855,1828,1803
1898,1858,1870
1900,1881,1883
1870,1877,1869
1873,1866,1850
1856,1869,1855
1919,1877,1904
1806,1845,1847
1851,1845,1839
1882,1888,1862
1851,1831,1781
1867,1834,1747
1840,1867,1818
1889,1887,1909
1818,1872,1917
1827,1845,1867
1822,1819,1829
1907,1866,1840
1907,1868,1866
1774,1867,1872
1882,1855,1868
1862,1907,1886
1868,1871,1855
1891,1840,1815
1836,1823,1805
1810,1854,1829
1882,1867,1851
1863,1820,1793
1858,1815,1856
1881,1855,1906
1847,1881,1878
1870,1875,1845
1869,1868,1851
1869,1855,1838
1823,1842,1850
1856,1824,1831
1863,1853,1838
1943,1879,1805
1898,1910,1879
1808,1851,1878
1817,1826,1853
1858,1840,1808
1873,1867,1823
1874,1858,1840
1895,1836,1818
1978,1857,1808
1920,1859,1838
1785,1844,1837
1856,1845,1840
1872,1897,1853
1867,1874,1786
1813,1837,1787
1857,1845,1797
1869,1862,1861
1846,1872,1881
1790,1834,1851
1798,1839,1821
1867,1867,1797
1872,1869,1824
1883,1861,1834
1869,1825,1818
1847,1855,1857
1856,1872,1863
1825,1852,1824
1879,1840,1807
1963,1845,1821
1936,1870,1812
1851,1811,1786
1836,1847,1824
1875,1872,1835
1840,1862,1808
1804,1835,1808
1827,1835,1839
1901,1872,1861
1885,1873,1813
1870,1841,1789
1925,1872,1873
1941,1879,1858
1863,1847,1799
1842,1823,1758
1809,1810,1763
1823,1861,1854
1849,1871,1854
1806,1859,1823
1884,1875,1806
1873,1903,1822
1811,1845,1843
1792,1818,1812
1856,1836,1822
1863,1873,1882
1825,1872,1867
1844,1834,1782
1846,1835,1769
1821,1885,1872
1860,1873,1908
1808,1854,1809
1815,1851,1802
1872,1854,1861
1883,1872,1855
1883,1905,1858
1847,1853,1813
1865,1846,1792
1858,1863,1870
1829,1867,1851
1829,1853,1823
1854,1866,1823
1893,1840,1826
1852,1823,1825
1854,1842,1830
1906,1895,1827
1872,1875,1827
1813,1845,1810
1819,1850,1840
1856,1899,1869
1857,1895,1813
1954,1870,1808
1891,1878,1830
1887,1857,1862
1797,1856,1845
1875,1845,1795
1851,1841,1821
1833,1877,1859
1876,1853,1798
1919,1853,1788
