1898,1623,1878
1898,1628,1858
1909,1658,1918
1890,1638,1830
1872,1617,1774
1901,1647,1823
1904,1649,1849
1895,1625,1785
1894,1623,1807
1903,1648,1770
1919,1655,1847
1904,1630,1813
1911,1631,1808
1936,1677,1808
1936,1697,1741
1905,1645,1835
1905,1622,1834
1930,1636,1776
1935,1666,1803
1913,1653,1791
1907,1637,1754
1921,1641,1805
1931,1651,1789
1885,1648,1771
1871,1630,1712
1885,1600,1741
1868,1600,1739
1833,1570,1686
1791,1527,1623
1770,1504,1585
1747,1490,1585
1718,1457,1555
1684,1421,1508
1658,1385,1471
1598,1350,1412
1534,1296,1354
1457,1225,1278
1397,1168,1218
1325,1107,1153
1231,1005,1058
1142,924,981
1098,878,893
1022,816,880
910,726,731
813,631,626
735,559,563
673,482,501
587,414,432
511,359,335
457,309,301
400,272,266
341,219,192
278,155,138
240,132,112
176,111,68
93,14,0
2,0,0
0,0,0
0,0,0
0,0,0
0,0,0
0,0,0
0,0,0
0,0,0
0,0,0
0,0,0
0,0,0
0,0,0
0,0,0
0,0,0
0,0,0
0,0,0
0,0,0
0,0,0
0,0,0
0,0,0
0,0,0
0,0,0
0,0,0
0,0,0
0,0,0
0,0,0
0,0,0
0,0,0
0,0,0
0,0,0
0,0,0
0,0,0
0,0,0
0,0,0
0,0,0
0,0,0
0,0,0
0,0,0
0,0,0
0,0,0
0,0,0
0,0,0
0,0,0
0,0,0
0,0,0
0,0,0
0,0,0
0,0,0
0,0,0
0,48,0
0,94,57
0,118,95
0,140,123
0,176,108
0,227,144
0,241,167
0,243,177
0,294,223
0,335,245
0,359,266
0,381,314
0,421,318
0,474,383
0,502,401
0,534,400
0,555,438
0,589,478
0,625,554
0,663,590
0,682,583
0,719,603
0,752,646
0,784,662
0,829,657
16,878,765
7,880,733
16,907,769
69,955,814
97,969,916
101,992,848
112,1038,871
165,1087,895
186,1124,957
193,1123,974
222,1139,1003
256,1204,1031
274,1223,1074
306,1232,1097
333,1253,1124
347,1277,1154
387,1334,1185
405,1361,1189
431,1367,1167
417,1369,1222
423,1399,1238
457,1432,1296
528,1471,1325
546,1506,1332
548,1495,1333
590,1597,1383
615,1635,1405
624,1526,1408
656,1569,1493
679,1591,1455
679,1626,1488
663,1669,1454
690,1695,1520
725,1716,1535
774,1723,1555
809,1738,1519
821,1761,1606
842,1790,1607
853,1807,1650
876,1830,1668
916,1872,1770
944,1880,1695
961,1897,1702
1014,1955,1725
1041,2058,1745
1018,2074,1769
960,1891,1723
993,1872,1728
1023,2032,1789
1044,2014,1761
1097,1895,1781
1137,1962,1808
1088,2129,1879
1167,2119,1962
1157,2057,1857
1110,2081,1903
1110,2224,1978
1104,2147,1897
1147,2167,1927
1187,2254,1873
1233,2237,1936
1214,2235,1934
1238,2287,1998
1315,2359,1987
1248,2380,1984
1309,2507,2064
1305,2543,2106
1256,2482,2064
1200,2384,2064
1213,2445,2064
1296,2527,2007
1297,2665,2122
1266,2690,2206
1318,2777,2205
1344,2777,2142
1317,2736,2137
1317,2768,2126
1318,2815,2128
1361,2814,2074
1365,2906,2090
1360,3033,2201
1324,2970,2182
1340,2895,2125
1392,2926,2163
1424,2992,2198
1423,3041,2201
1443,3089,2186
1424,3088,2190
1427,3112,2185
1429,3151,2294
1440,3155,2224
1465,3158,2161
1554,3222,2231
1586,3257,2274
1606,3248,2272
1647,3263,2241
1495,3152,2226
1483,3158,2239
1611,3219,2300
1619,3245,2282
1570,3241,2327
1614,3212,2310
1647,3215,2288
1677,3264,2321
1737,3279,2418
1684,3216,2256
1724,3194,2128
1752,3200,2151
1792,3245,2275
1738,3136,2157
1755,3125,2153
1821,3178,2224
1791,3159,2214
1769,3118,2235
1789,3109,2198
1818,3102,2225
1878,3136,2271
1844,3111,2256
1881,3054,2246
1946,3060,2352
1917,3050,2293
1906,3034,2322
1936,2990,2352
1995,2988,2379
1989,2998,2420
1926,2944,2455
1943,2905,2491
2021,2934,2516
2031,2944,2657
1973,2881,2559
2000,2864,2509
2099,2873,2591
2160,2896,2626
2091,2818,2559
2046,2768,2559
2081,2800,2640
2118,2801,2646
2128,2791,2695
2153,2770,2733
2135,2734,2768
2154,2736,2715
2192,2730,2694
2253,2708,2679
2265,2736,2813
2219,2741,2861
2193,2687,2691
2207,2624,2722
2288,2666,2783
2257,2669,2786
2266,2647,2752
2302,2603,2763
2336,2623,2845
2284,2619,2801
2299,2607,2842
2320,2602,2848
2309,2559,2736
2369,2631,2826
2327,2559,2640
2304,2491,2559
2321,2487,2523
2363,2541,2501
2411,2550,2544
2445,2522,2465
2443,2531,2448
2395,2523,2470
2384,2535,2446
2403,2519,2365
2435,2474,2512
2458,2494,2483
2454,2506,2355
2448,2483,2307
2495,2486,2432
2466,2480,2496
2467,2449,2384
2477,2450,2332
2493,2473,2333
2523,2475,2432
2509,2441,2418
2515,2423,2265
2547,2421,2211
2587,2444,2346
2544,2409,2402
2519,2409,2315
2559,2406,2295
2609,2363,2352
2629,2430,2290
2618,2459,2374
2559,2421,2303
2559,2291,2261
2589,2262,2278
2599,2270,2242
2583,2318,2212
2650,2480,2291
2656,2402,2320
2633,2256,2265
2663,2256,2299
2693,2320,2321
2641,2307,2345
2559,2265,2163
2637,2306,2219
2721,2322,2243
2688,2302,2245
2666,2246,2229
2662,2257,2221
2643,2286,2229
2640,2258,2107
2682,2261,2229
2714,2294,2271
2688,2285,2229
2682,2223,2302
2686,2211,2205
2702,2241,2266
2709,2254,2256
2701,2219,2070
2709,2219,2185
2750,2233,2231
2653,2215,2209
2559,2171,2200
2618,2160,2160
2660,2157,2186
2675,2178,2175
2683,2196,2196
2693,2195,2256
2688,2167,2229
2673,2160,2157
2670,2144,2161
2662,2128,2205
2692,2149,2191
2717,2160,2122
2704,2118,2160
2672,2110,2179
2688,2128,2157
2716,2144,2178
2668,2101,2115
2679,2099,2124
2704,2144,2128
2677,2132,2167
2640,2082,2077
2685,2064,2187
2707,2105,2190
2736,2096,2155
2723,2084,2070
2673,2059,2043
2671,2054,2145
2688,2063,2113
2681,2045,2107
2670,2032,2113
2702,2067,2115
2714,2083,2135
2672,2033,2111
2639,1999,2091
2661,2023,2093
2699,2026,2118
2681,2016,2112
2677,2007,2116
2675,1993,2127
2678,1995,2118
2675,1999,2141
2662,1983,2135
2654,1985,2023
2657,1989,2073
2655,1983,2059
2690,1970,2160
2703,1985,2144
2619,1948,2062
2594,1940,2055
2623,1951,2053
2658,1945,2121
2642,1936,2147
2628,1935,2042
2627,1935,1918
2662,1963,2111
2689,1966,2111
2640,1911,2033
2602,1900,2024
2638,1941,2094
2615,1939,2035
2621,1933,2074
2617,1895,2064
2599,1877,2032
2600,1906,2064
2603,1911,2039
2592,1882,2005
2589,1895,2006
2559,1891,2013
2581,1871,2031
2593,1855,2030
2608,1882,2020
2601,1915,2041
2550,1870,2000
2559,1862,1984
2584,1877,2015
2559,1887,2047
2587,1899,2038
2590,1890,2017
2559,1872,1975
2588,1871,1950
2512,1859,1951
2499,1857,1978
2528,1857,2001
2543,1868,2032
2549,1866,2009
2549,1856,1986
2509,1847,1981
2513,1858,1983
2512,1854,1968
2514,1872,1959
2541,1867,1999
2510,1842,2011
2494,1838,1985
2461,1811,1939
2425,1822,1939
2536,1845,1947
2419,1837,1930
2473,1834,1925
2479,1837,1933
2470,1853,1962
2431,1851,1968
2433,1839,1961
2475,1851,1948
2499,1861,1948
2414,1847,1927
2461,1829,1940
2510,1862,1980
2478,1856,1951
2457,1837,1897
2419,1828,1911
2403,1846,1940
2415,1840,1968
2378,1827,1933
2399,1829,1914
2416,1858,1909
2384,1840,1929
2331,1817,1911
2373,1814,1921
2416,1831,1935
2347,1844,1919
2374,1834,1915
2329,1822,1904
2353,1827,1904
2352,1841,1922
2377,1834,1925
2347,1827,1919
2384,1856,1936
2378,1859,1931
2318,1809,1894
2304,1803,1878
2321,1821,1904
2363,1850,1915
2370,1856,1905
2365,1841,1860
2309,1840,1881
2364,1855,1968
2288,1796,1920
2257,1791,1891
2277,1833,1894
2267,1850,1887
2303,1850,1889
2305,1851,1874
2337,1878,1914
2259,1834,1889
2224,1791,1855
2228,1808,1857
2321,1846,1895
2256,1866,1921
2247,1826,1856
2325,1846,1878
2298,1839,1887
2199,1841,1876
2179,1823,1829
2178,1827,1853
2314,1851,1901
2277,1849,1905
2208,1840,1873
2217,1815,1846
2175,1825,1872
2282,1859,1878
2229,1845,1852
2224,1841,1865
2256,1857,1904
2239,1851,1875
2192,1855,1839
2182,1823,1839
2239,1845,1866
2211,1862,1877
2230,1856,1873
2192,1806,1833
2165,1815,1843
2170,1872,1902
2158,1851,1895
2183,1840,1889
2159,1854,1869
2150,1869,1856
2180,1878,1859
2145,1861,1840
2130,1847,1866
2174,1868,1901
2124,1848,1858
2128,1845,1845
2162,1864,1866
2255,1875,1917
2083,1870,1899
2100,1845,1843
2128,1848,1857
2145,1872,1886
2192,1890,1915
2150,1858,1853
2117,1825,1806
2131,1870,1859
2128,1875,1869
2098,1857,1862
2106,1872,1861
2133,1879,1909
2091,1840,1874
2064,1839,1840
2137,1861,1849
2106,1872,1877
2067,1845,1852
2086,1852,1817
2031,1860,1833
2206,1903,1856
2143,1872,1855
2063,1840,1838
2057,1845,1876
2090,1856,1879
2079,1851,1855
2042,1838,1825
2005,1851,1850
2124,1877,1857
2074,1846,1828
2075,1857,1830
2079,1870,1879
2023,1879,1885
2007,1851,1837
1986,1810,1776
2039,1856,1818
2064,1867,1895
2035,1837,1863
2026,1820,1822
2001,1826,1808
2046,1882,1872
2013,1875,1829
2046,1872,1825
1994,1840,1850
1990,1837,1797
1950,1811,1744
2003,1860,1911
2064,1854,1877
1971,1825,1836
1952,1877,1840
2030,1870,1826
2059,1865,1883
1965,1798,1835
1930,1794,1801
2034,1862,1898
1973,1872,1872
1973,1889,1825
1898,1849,1680
1990,1870,1810
2038,1815,2138
2019,1850,2047
1930,1770,1973
1820,1709,1968
1786,1607,1866
1671,1533,1680
1648,1506,1528
1719,1555,1747
1724,1616,1858
1824,1691,1859
1793,1698,1840
1830,1719,1826
1857,1680,1827
1843,1695,1827
1831,1674,1831
1860,1706,1831
1862,1731,1826
1872,1777,1829
1875,1748,1827
1858,1719,1828
1866,1751,1827
1864,1765,1824
1856,1763,1827
1898,1790,1831
1937,1770,1827
1872,1772,1828
1849,1803,1829
1932,1763,1827
1922,1774,1834
1919,1809,1826
1921,1815,1831
1953,1853,1829
1890,1808,1828
1849,1819,1836
1865,1839,2096
1893,1781,2319
1904,1826,2223
1897,1837,2155
1913,1820,2191
1936,1851,2243
1899,1835,2163
1878,1861,2127
1903,1861,2197
1927,1855,2221
1943,1866,2128
1953,1898,2119
1872,1854,2144
1855,1850,2047
1887,1868,2126
1887,1854,2144
1925,1856,2069
1921,1873,2119
1902,1883,2117
1914,1888,2149
1888,1859,2130
1891,1878,2061
1914,1899,2058
1909,1931,2092
1931,1925,2081
1869,1865,2000
1852,1827,2058
1874,1869,2063
1881,1874,1987
1881,1906,1988
1822,1872,1936
1923,1937,2110
1938,1904,2093
1904,1875,2023
1887,1885,1997
1863,1893,1984
1882,1914,2006
1877,1904,2006
1904,1889,1983
1892,1900,1951
1855,1909,1915
1842,1878,2003
1892,1917,2123
1883,1942,2012
1865,1937,1907
1840,1903,1862
1872,1891,1954
1879,1905,2038
1861,1908,1974
1887,1923,1899
1916,1968,1955
1904,1949,1951
1853,1904,1909
1821,1905,1955
1851,1917,1978
1877,1921,1961
1863,1933,1899
1872,1920,1941
1894,1929,1957
1887,1946,1894
1895,1977,1917
1859,1924,1913
1858,1915,1932
1873,1901,1936
1901,1901,1961
1903,1947,1959
1888,1966,1954
1863,1969,1910
1851,1923,1855
1867,1917,1887
1882,1927,1957
1873,1957,1859
1903,1954,1905
1904,1933,1971
1904,1963,1970
1866,1974,1897
1905,1985,1866
1907,1936,1920
1936,1933,1947
1898,1995,1889
1872,1952,1881
1911,1955,1870
1954,1997,1959
1930,1981,2006
1887,1939,1895
1922,1970,1915
1936,1996,1961
1927,1984,1936
1914,1987,1902
1872,1943,1888
1872,1967,1869
1906,1978,1903
1923,1978,1895
1915,1945,1913
1933,1945,1955
1919,1971,1920
1887,1997,1863
1893,1958,1845
1906,1931,1865
1930,1936,1925
1937,1968,1889
1913,1973,1850
1930,1990,1919
1933,1971,1964
1933,1984,1954
1936,1963,1907
1955,1968,1911
1911,1977,1885
1890,1985,1799
1921,1945,1835
1936,1968,1946
1936,1981,1936
1921,1958,1903
1891,1936,1815
1931,1968,1856
1983,1984,1936
1936,1974,1927
1910,1934,1847
1990,1914,1904
1939,1949,1904
1872,1903,1846
1919,1920,1905
1945,1910,1893
1958,1909,1927
1929,1903,1819
1938,1885,1853
1939,1879,1885
1957,1913,1959
1931,1897,1955
1936,1869,1918
1960,1892,1901
1959,1907,1844
1962,1868,1872
1961,1904,1891
1957,1891,1934
1941,1882,1975
1930,1869,1885
1955,1854,1802
1982,1893,1842
2007,1935,2000
1949,1894,1972
1914,1856,1884
1950,1883,1872
2006,1915,1891
1994,1875,1875
1965,1869,1872
1982,1936,1935
1943,1860,1959
1947,1842,1902
1969,1866,1898
2017,1921,1885
1995,1885,1946
1963,1872,1916
1979,1883,1872
1971,1919,1891
2026,1931,1895
2000,1904,1887
1942,1874,1870
1961,1872,1910
1962,1877,1952
1969,1872,1926
2001,1887,1903
1983,1899,1885
1963,1909,1886
1976,1923,1931
2003,1926,1921
1959,1886,1895
1919,1872,1826
1939,1868,1875
1984,1883,1927
2005,1920,1927
1976,1907,1867
1933,1872,1840
1966,1889,1853
1987,1891,1900
1999,1900,1925
1990,1921,1929
2004,1904,1879
1994,1900,1846
1968,1918,1841
1963,1917,1853
1941,1877,1872
1957,1863,1919
1998,1923,1952
1936,1872,1824
1943,1872,1827
1971,1912,1880
1989,1936,1901
2000,1942,1867
1967,1919,1872
1968,1894,1903
1945,1889,1872
1964,1919,1835
1943,1899,1837
1982,1899,1909
2002,1907,1902
1946,1895,1817
1963,1889,1751
1952,1894,1827
1955,1936,1936
1904,1889,1889
1927,1870,1837
1954,1890,1872
1959,1904,1872
1969,1873,1876
1935,1878,1831
1907,1872,1854
1904,1887,1874
1903,1921,1798
1946,1886,1826
1950,1853,1887
1937,1887,1809
1937,1899,1841
1936,1863,1899
1930,1859,1889
1918,1886,1859
1909,1897,1833
1903,1899,1766
1919,1882,1850
1956,1924,1924
1874,1863,1754
1875,1840,1783
1930,1856,1875
1908,1872,1886
1920,1890,1808
1961,1901,1822
2000,1915,1883
1936,1952,1885
1873,1898,1795
1849,1797,1801
1898,1818,1840
1953,1899,1894
1917,1888,1810
1840,1808,1741
1872,1838,1797
1957,1921,1931
1905,1857,1792
1871,1838,1744
1887,1847,1840
1904,1866,1840
1973,1893,1888
1903,1851,1801
1866,1851,1762
1872,1901,1755
1919,1883,1811
1895,1809,1841
1874,1811,1875
1897,1875,1851
1895,1853,1791
1890,1872,1772
1893,1883,1821
1874,1854,1824
1868,1842,1769
1919,1849,1826
1895,1840,1817
1924,1897,1851
1841,1833,1798
1808,1783,1772
1890,1838,1798
1861,1817,1746
1827,1805,1760
1858,1839,1840
1870,1840,1821
1874,1867,1842
1892,1865,1818
1872,1849,1776
1853,1832,1765
1840,1829,1683
1867,1840,1803
1904,1847,1910
1872,1840,1808
1828,1808,1731
1811,1789,1751
1840,1802,1759
1888,1865,1779
1872,1831,1791
1815,1805,1846
1811,1810,1805
1843,1854,1808
1843,1840,1761
1880,1803,1802
1871,1808,1823
1812,1840,1743
1767,1815,1782
1824,1815,1791
1844,1807,1799
1862,1842,1808
1849,1845,1771
1823,1801,1776
1792,1787,1747
1827,1831,1765
1863,1831,1798
1829,1814,1855
1810,1808,1833
1825,1847,1785
1822,1869,1781
1855,1882,1777
1856,1841,1747
1820,1807,1776
1838,1811,1821
1829,1808,1776
1833,1842,1797
1796,1840,1779
1799,1811,1789
1822,1776,1759
1806,1805,1741
1825,1868,1779
1808,1851,1824
1809,1834,1766
1840,1808,1769
1867,1834,1840
1793,1808,1799
1776,1798,1763
1810,1817,1776
1810,1824,1807
1840,1859,1798
1943,1907,1831
1839,1782,1761
1702,1750,1702
1754,1818,1773
1795,1825,1812
1807,1808,1797
1833,1847,1779
1885,1850,1777
1853,1808,1776
1749,1791,1782
1770,1833,1751
1815,1865,1807
1827,1819,1831
1847,1797,1806
1870,1836,1838
1793,1806,1727
1758,1818,1712
1792,1830,1822
1801,1829,1839
1789,1840,1749
1783,1823,1709
1803,1797,1791
1825,1825,1840
1854,1840,1821
1808,1819,1757
1776,1815,1719
1808,1819,1681
1810,1819,1774
1792,1787,1786
1811,1808,1828
1816,1866,1856
1797,1842,1825
1801,1790,1742
1840,1808,1804
1845,1823,1851
1840,1850,1869
1797,1814,1754
1774,1838,1748
1809,1847,1832
1787,1806,1744
1781,1809,1786
1803,1824,1795
1813,1817,1841
1798,1808,1808
1776,1840,1741
1775,1845,1776
1776,1830,1738
1798,1823,1841
1808,1818,1835
1799,1818,1767
1810,1861,1727
1893,1872,1801
1827,1811,1869
1768,1819,1827
1770,1831,1778
1744,1818,1738
1763,1834,1773
1766,1805,1757
1809,1827,1785
1841,1824,1826
1808,1827,1781
1780,1817,1769
1783,1810,1797
1797,1830,1820
1801,1814,1807
1817,1810,1807
1831,1837,1785
1824,1847,1836
1856,1843,1810
1793,1802,1785
1763,1791,1770
1791,1850,1792
1801,1844,1761
1783,1807,1735
1781,1822,1790
1835,1872,1855
1797,1838,1787
1794,1795,1738
1799,1804,1728
1821,1840,1827
1803,1808,1825
1765,1809,1815
1792,1834,1808
1812,1849,1786
1824,1850,1776
1779,1808,1787
1775,1808,1750
1776,1835,1803
1779,1792,1760
1776,1779,1790
1803,1822,1838
1822,1856,1826
1803,1837,1786
1804,1832,1777
1807,1814,1756
1799,1824,1792
1806,1808,1851
1765,1789,1819
1798,1840,1837
1831,1850,1839
1821,1851,1782
1786,1814,1703
1765,1825,1718
1798,1856,1755
1803,1825,1837
1818,1814,1919
1794,1808,1879
1785,1838,1817
1805,1852,1757
1790,1812,1737
1821,1825,1808
1839,1855,1857
1782,1815,1756
1749,1823,1762
1792,1842,1812
1826,1847,1866
1865,1855,1859
1803,1810,1777
1797,1840,1714
1776,1849,1774
1786,1824,1769
1792,1809,1798
1835,1861,1840
1796,1851,1749
1754,1781,1770
1780,1781,1790
1796,1829,1821
1808,1865,1829
1811,1834,1809
1840,1830,1825
1842,1848,1850
1823,1840,1811
1791,1810,1823
1803,1825,1815
1779,1831,1827
1792,1853,1786
1843,1873,1819
1823,1834,1789
1791,1819,1806
1756,1811,1807
1782,1833,1774
1825,1847,1815
1796,1823,1870
1784,1824,1803
1777,1840,1786
1803,1838,1843
1871,1867,1875
1783,1847,1808
1745,1805,1776
1782,1815,1762
1856,1866,1866
1835,1860,1851
1780,1829,1811
1780,1809,1808
1789,1859,1841
1804,1843,1877
1791,1814,1771
1786,1778,1776
1796,1811,1828
1805,1826,1830
1779,1821,1781
1776,1820,1798
1782,1836,1766
1783,1842,1851
1764,1807,1841
1762,1815,1790
1776,1830,1746
1818,1856,1857
1806,1831,1843
1783,1775,1803
1821,1817,1791
1815,1856,1808
1835,1844,1813
1801,1808,1808
1795,1790,1792
1785,1832,1776
1765,1819,1823
1722,1819,1801
1810,1838,1773
1818,1887,1804
1776,1824,1859
1725,1792,1815
1722,1808,1745
1808,1873,1856
1802,1867,1808
1767,1815,1809
1831,1823,1872
1847,1851,1820
1749,1840,1824
1758,1809,1787
1767,1838,1873
1758,1838,1824
1744,1848,1835
1775,1853,1781
1785,1841,1773
1796,1853,1840
1776,1829,1842
1755,1822,1735
1798,1862,1766
1818,1862,1856
1753,1840,1792
1732,1823,1810
1757,1840,1753
1821,1840,1766
1808,1839,1849
1744,1841,1817
1729,1859,1825
1745,1871,1744
1777,1847,1807
1813,1858,1871
1823,1866,1810
1792,1879,1783
1723,1855,1758
1745,1808,1744
1827,1835,1759
1786,1838,1782
1762,1859,1809
1761,1847,1834
1811,1874,1866
1811,1840,1802
1748,1828,1755
1734,1853,1789
1781,1838,1808
1808,1840,1759
1746,1828,1776
1705,1840,1818
1751,1885,1770
1818,1871,1743
1781,1835,1728
1793,1846,1781
1821,1827,1867
1744,1840,1801
1699,1835,1801
1776,1824,1820
1886,1904,1734
1834,1898,1845
1731,1840,1889
1761,1886,1843
1776,1882,1790
1837,1872,1850
1744,1856,1773
1750,1853,1776
1799,1887,1861
1840,1932,1828
1712,1839,1718
1759,1843,1746
1800,1872,1794
1768,1904,1801
1727,1873,1731
1742,1880,1749
1774,1869,1829
1735,1877,1825
1757,1859,1743
1771,1881,1771
1782,1910,1855
1762,1897,1793
1744,1893,1853
1737,1885,1742
1765,1875,1695
1786,1872,1807
1761,1839,1808
1781,1851,1799
1746,1883,1802
1744,1925,1823
1726,1868,1781
1718,1824,1846
1762,1875,1731
1814,1914,1775
1772,1859,1823
1695,1810,1842
1728,1866,1812
1743,1890,1779
1767,1918,1778
1776,1891,1760
1779,1881,1805
1749,1853,1822
1709,1823,1717
1755,1812,1747
1744,1869,1806
1728,1887,1813
1728,1859,1751
1765,1881,1793
1775,1872,1813
1735,1839,1859
1767,1856,1835
1769,1846,1750
1792,1901,1789
1747,1851,1799
1737,1814,1798
1754,1831,1775
1751,1872,1790
1712,1872,1779
1750,1856,1821
1750,1873,1840
1742,1872,1793
1761,1857,1806
1773,1867,1777
1744,1866,1752
1761,1888,1839
1759,1904,1856
1741,1877,1803
1771,1886,1691
1840,1897,1858
1792,1886,1920
1702,1874,1813
1722,1883,1777
1787,1910,1807
1782,1890,1794
1796,1901,1771
1831,1904,1876
1807,1899,1883
1763,1877,1851
1762,1907,1831
1755,1877,1771
1809,1886,1762
1787,1895,1820
1803,1898,1839
1777,1915,1885
1753,1873,1798
1796,1878,1803
1777,1867,1770
1735,1854,1795
1759,1885,1851
1822,1923,1804
1818,1882,1757
1771,1881,1856
1762,1906,1863
1843,1923,1847
1829,1889,1813
1781,1895,1796
1803,1918,1863
1805,1942,1905
1790,1907,1810
1777,1875,1815
1811,1937,1898
1847,1886,1872
1833,1904,1827
1796,1927,1807
1812,1904,1865
1810,1920,1891
1856,1942,1863
1886,1887,1872
1826,1949,1904
1846,1941,1887
1833,1933,1840
1795,1985,1898
1854,1903,1906
1906,1945,1915
1906,1966,1904
1908,1946,1951
1858,1931,1940
1840,1942,1938
1862,1936,1921
1946,1969,1885
1968,2019,1905
1930,2062,2058
1917,2001,1968
1886,1980,1903
1929,2055,1971
1981,2031,1984
1968,2004,1950
1911,1966,1945
1975,2054,1963
1970,2064,1994
1943,2031,2010
1943,2007,1937
1967,1994,1931
1973,2032,1974
1968,2046,1968
1957,1982,1979
2000,2016,2038
1936,1999,1986
1932,2004,1993
1977,2013,1975
1998,2046,1999
2009,2059,2001
1947,1991,1957
1987,2020,1967
1984,1990,1957
1941,1984,1920
1951,1994,1917
1986,1998,1951
2041,2016,1965
1981,2030,2015
1978,2037,2000
1975,2013,1970
2012,2000,1978
2079,2033,1963
2003,2025,2013
1925,1983,1985
1984,2039,1970
2043,2019,1966
1975,1966,1950
1947,2022,1946
2009,1968,1968
1995,2013,1948
1947,1968,1990
1998,1983,1998
2015,1978,2005
2000,1979,2000
1996,1990,1967
2009,1994,1997
2032,1994,1989
2023,1975,1924
1972,1980,1925
2004,1991,2000
2063,1993,2047
2086,1981,1985
1978,1915,1859
1937,1921,1919
1986,1949,1972
2019,1983,2003
2022,1984,1940
2027,1979,1935
1985,1942,1905
1994,2000,1895
2031,1946,1964
2027,1949,2016
2000,1955,1990
2009,1966,1968
2026,1943,1953
2070,1915,1910
2007,1931,1871
1952,1993,1940
1966,1942,1956
2054,1951,1909
2096,1955,1968
1990,1934,1977
2017,1869,1922
2023,1913,1919
2029,1947,1975
2063,1951,1967
2018,1927,1930
2053,1913,1950
2067,1915,1907
1967,1934,1926
1927,1917,1933
2000,1920,1904
2101,1968,1962
2090,1947,1971
1968,1889,1929
1968,1916,1887
1994,1879,1884
1979,1919,1943
1981,1939,1936
1995,1861,1886
2031,1945,1887
2000,1937,1925
1999,1873,1943
2036,1937,1934
2005,1904,1917
2026,1984,1904
1968,1858,1837
1932,1810,1904
1971,1917,1968
1990,1907,1957
1973,1875,1904
1984,1889,1877
2010,1885,1892
2057,1904,1894
1949,1897,1845
1937,1873,1890
1980,1897,1872
1970,1872,1894
1982,1846,1905
1975,1872,1865
1959,1891,1890
1973,1863,1915
1949,1869,1899
1984,1879,1853
1968,1873,1870
1984,1868,1877
1968,1826,1922
1984,1857,1862
1973,1845,1823
1963,1847,1904
1933,1791,1834
1968,1845,1829
1935,1838,1884
1920,1883,1904
1926,1811,1856
1957,1838,1838
1968,1840,1865
2007,1898,1913
1904,1822,1922
1952,1831,1871
2079,1850,1841
1925,1867,1877
1920,1843,1859
1931,1840,1797
1936,1787,1839
1921,1806,1850
1910,1808,1857
1968,1846,1822
1939,1874,1824
1987,1829,1874
1905,1821,1856
1872,1835,1840
1939,1805,1907
1951,1855,1905
1927,1867,1913
1915,1838,1843
1943,1796,1837
1955,1820,1831
1900,1790,1775
1881,1778,1776
1877,1809,1817
1901,1799,1807
1939,1766,1781
1998,1825,1883
1923,1769,1910
1854,1802,1867
1869,1802,1792
1949,1803,1821
1929,1784,1826
1891,1798,1845
1859,1808,1815
1903,1803,1776
1915,1780,1750
1946,1780,1815
1879,1808,1872
1901,1754,1808
1872,1834,1810
1858,1775,1810
1872,1786,1783
1952,1801,1805
1958,1740,1839
1850,1808,1829
1823,1761,1782
1878,1830,1775
1920,1778,1789
1854,1776,1815
1812,1780,1747
1847,1772,1781
1946,1731,1833
1930,1795,1830
1872,1743,1840
1820,1738,1771
1823,1776,1805
1856,1819,1825
1877,1810,1776
1967,1756,1779
1896,1797,1851
1818,1799,1837
1774,1766,1742
1843,1735,1728
1925,1858,1819
1870,1762,1843
1791,1708,1785
1831,1799,1767
1845,1810,1775
1834,1814,1744
1843,1792,1809
1846,1816,1815
1837,1770,1826
1831,1853,1789
1863,1840,1775
1910,1791,1696
1904,1824,1840
1817,1805,1844
1791,1775,1817
1871,1806,1712
1872,1744,1797
1809,1771,1843
1813,1767,1840
1809,1777,1840
1814,1760,1744
1853,1809,1771
1852,1819,1794
1881,1763,1763
1840,1795,1808
1765,1771,1814
1776,1770,1828
1872,1769,1741
1844,1808,1806
1833,1811,1822
1872,1823,1775
1856,1834,1797
1808,1745,1788
1780,1780,1811
1845,1830,1781
1817,1804,1757
1792,1777,1761
1862,1814,1808
1842,1823,1859
1802,1776,1790
1757,1758,1767
1839,1791,1748
1901,1823,1712
1825,1824,1835
1771,1783,1859
1780,1667,1818
1856,1773,1754
1882,1779,1781
1806,1799,1798
1766,1899,1785
1787,1797,1759
1814,1777,1787
1870,1811,1770
1842,1835,1811
1776,1792,1834
1833,1795,1763
1905,1855,1791
1887,1828,1835
1762,1733,1812
1712,1764,1744
1794,1776,1744
1818,1826,1776
1879,1859,1778
1803,1831,1783
1751,1769,1763
1781,1765,1798
1867,1733,1821
1835,1770,1747
1808,1809,1788
1856,1899,1838
1811,1831,1777
1749,1706,1748
1770,1790,1747
1843,1819,1776
1808,1818,1790
1789,1782,1776
1776,1783,1775
1775,1837,1808
1779,1776,1793
1887,1793,1785
1863,1789,1778
1740,1787,1780
1715,1818,1728
1775,1795,1801
1862,1796,1849
1870,1825,1837
1936,1817,1755
1823,1761,1739
1710,1832,1774
1744,1842,1786
1791,1821,1799
1827,1769,1826
1808,1770,1723
1785,1784,1763
1742,1779,1761
1751,1806,1792
1787,1749,1808
1840,1828,1802
1921,1815,1749
1791,1808,1789
1723,1819,1808
1775,1839,1807
1818,1826,1795
1819,1793,1761
1858,1787,1795
1749,1775,1752
1744,1813,1776
1764,1798,1867
1789,1872,1854
1802,1853,1808
1885,1831,1709
1839,1763,1733
1762,1830,1857
1735,1839,1808
1778,1843,1780
1808,1787,1765
