1904,1927,1855
1945,1943,1883
2034,1990,1983
1973,1940,1917
1887,1873,1861
1898,1891,1882
1936,1941,1905
1973,1938,1882
1968,1907,1855
1977,1922,1915
1942,1923,1933
1913,1936,1875
1913,1901,1831
1912,1895,1882
1921,1938,1921
1907,1923,1894
1950,1927,1909
1961,1906,1904
1936,1907,1878
1941,1911,1869
1968,1936,1857
1953,1915,1898
1923,1886,1922
1905,1895,1900
1879,1889,1839
1942,1921,1872
1979,1938,1908
1955,1933,1918
1862,1888,1856
1930,1913,1872
1948,1946,1903
1907,1901,1887
1903,1889,1841
1941,1904,1878
1987,1942,1946
1958,1937,1918
1872,1879,1850
1910,1888,1856
1952,1909,1895
1957,1922,1896
1959,1927,1889
1890,1907,1871
1906,1938,1894
1921,1904,1855
1936,1903,1861
1949,1900,1889
1949,1931,1885
1920,1903,1857
1921,1879,1856
1924,1894,1870
1950,1937,1926
1917,1924,1908
1895,1878,1858
1941,1910,1901
1962,1924,1891
1954,1921,1874
1893,1872,1854
1897,1885,1872
1954,1920,1909
1956,1919,1897
1920,1887,1857
1915,1887,1862
1969,1917,1898
1905,1904,1891
1904,1906,1850
1936,1907,1856
1954,1900,1888
1938,1936,1913
1865,1879,1861
1876,1863,1851
1954,1923,1873
2026,1935,1877
1903,1872,1846
1883,1904,1886
1915,1907,1904
1918,1900,1883
1921,1878,1843
1926,1885,1855
1961,1939,1903
2000,1938,1904
1939,1883,1861
1859,1879,1876
1872,1904,1875
1871,1895,1840
1894,1865,1824
1938,1872,1856
1945,1938,1933
1904,1938,1910
1904,1902,1857
1926,1905,1871
1922,1904,1859
1909,1883,1856
1888,1875,1862
1931,1911,1903
1928,1917,1910
1921,1919,1873
1903,1856,1793
1942,1879,1845
1913,1914,1872
1927,1919,1904
1879,1869,1840
1881,1878,1840
1893,1893,1853
1941,1935,1895
1903,1889,1863
1874,1869,1859
1911,1914,1899
1909,1921,1873
1906,1874,1833
1962,1904,1882
1907,1879,1867
1911,1904,1861
1869,1870,1825
1871,1882,1874
1939,1936,1905
1911,1904,1844
1856,1871,1822
1895,1910,1904
1947,1894,1882
1915,1866,1855
1857,1853,1842
1870,1894,1879
1905,1915,1879
1898,1889,1857
1895,1872,1830
1955,1893,1871
1921,1899,1863
1858,1905,1872
1827,1865,1830
1856,1881,1818
1943,1910,1859
1941,1889,1854
1874,1841,1840
1834,1856,1847
1871,1890,1875
1905,1897,1876
1903,1867,1822
1929,1909,1856
1947,1974,1936
1872,1901,1871
1853,1804,1815
1853,1908,1836
1914,1935,1831
1929,1915,1861
1854,1841,1822
1872,1888,1872
1888,1914,1874
1918,1904,1902
1921,1933,1884
1906,1901,1851
1856,1841,1826
1883,1875,1855
1876,1885,1855
1905,1861,1858
1955,1947,1889
1889,1892,1834
1840,1845,1791
1929,1872,1837
1911,1872,1889
1866,1862,1862
1840,1907,1839
1907,1915,1886
1923,1936,1906
1847,1874,1812
1885,1869,1808
1920,1888,1856
1878,1872,1843
1856,1871,1857
1838,1860,1814
1855,1893,1795
1936,1904,1856
1903,1872,1868
1851,1860,1829
1875,1859,1862
1876,1877,1873
1890,1856,1858
1866,1887,1840
1872,1857,1842
1971,1895,1879
1920,1877,1847
1815,1809,1777
1813,1811,1826
1845,1899,1872
1872,1858,1854
1913,1897,1826
1930,1835,1829
1888,1898,1868
1857,1888,1865
1841,1901,1828
1873,1905,1840
1920,1847,1846
1904,1903,1835
1870,1892,1837
1854,1845,1862
1877,1897,1872
1872,1874,1859
1862,1851,1842
1890,1858,1815
1902,1840,1821
1888,1839,1859
1841,1822,1823
1879,1860,1874
1895,1904,1873
1877,1827,1823
1874,1877,1808
1859,1897,1842
1875,1855,1872
1861,1874,1849
1854,1935,1802
1915,1918,1798
1934,1895,1867
1849,1873,1876
1828,1861,1823
1873,1840,1842
1890,1915,1871
1870,1908,1848
1857,1818,1808
1915,1843,1793
1891,1911,1861
1842,1871,1871
1809,1886,1827
1858,1915,1851
1888,1901,1856
1872,1872,1815
1866,1855,1771
1895,1858,1837
1855,1876,1841
1828,1833,1807
1837,1776,1818
1881,1873,1850
1904,1887,1849
1852,1854,1810
1857,1852,1789
1889,1845,1806
1840,1854,1844
1820,1842,1840
1840,1861,1825
1841,1842,1794
1856,1853,1808
1894,1927,1822
1854,1866,1815
1835,1813,1804
1843,1941,1833
1841,1908,1840
1839,1841,1831
1830,1803,1803
1863,1872,1818
1881,1844,1815
1872,1782,1813
1889,1860,1850
1839,1835,1815
1810,1862,1808
1815,1792,1822
1841,1846,1830
1855,1835,1831
1860,1876,1822
1862,1856,1814
1822,1831,1798
1840,1850,1837
1856,1910,1835
1849,1829,1793
1835,1781,1850
1867,1872,1882
1866,1875,1822
1855,1809,1780
1871,1849,1808
1861,1884,1863
1802,1821,1820
1778,1792,1735
1826,1817,1795
1848,1861,1847
1851,1858,1826
1860,1867,1824
1822,1837,1806
1865,1794,1829
1840,1840,1838
1778,1840,1792
1807,1846,1800
1872,1866,1866
1891,1888,1830
1783,1802,1745
1814,1787,1787
1817,1873,1807
1821,1836,1822
1822,1814,1808
1817,1796,1809
1803,1834,1776
1831,1881,1801
1830,1825,1802
1845,1889,1803
1863,1840,1825
1808,1850,1811
1824,1838,1771
1836,1809,1781
1865,1839,1809
1867,1815,1805
1840,1846,1825
1826,1856,1840
1828,1869,1837
1841,1871,1813
1834,1842,1776
1834,1843,1822
1834,1849,1831
1837,1854,1831
1856,1861,1810
1861,1872,1821
1867,1863,1813
1809,1850,1783
1809,1842,1790
1850,1841,1831
1903,1892,1879
1899,1898,1869
1819,1833,1773
1831,1842,1781
1850,1872,1812
1847,1863,1826
1844,1812,1790
1837,1840,1834
1851,1898,1872
1824,1871,1826
1831,1852,1808
1840,1865,1818
1842,1866,1822
1861,1855,1805
1851,1853,1819
1853,1856,1850
1842,1871,1841
1861,1887,1829
1843,1847,1792
1802,1825,1803
1829,1858,1829
1853,1871,1855
1840,1856,1837
1866,1891,1872
1823,1867,1834
1817,1853,1789
1819,1846,1807
1866,1873,1839
1890,1898,1883
1858,1886,1853
1854,1846,1782
1925,1847,1790
1823,1858,1860
1764,1866,1856
1773,1829,1802
1821,1849,1822
1847,1872,1837
1863,1891,1854
1857,1878,1818
1856,1888,1851
1847,1863,1841
1833,1853,1834
1815,1856,1815
1840,1874,1815
1863,1882,1847
1829,1853,1817
1819,1844,1815
1859,1859,1851
1897,1874,1840
1899,1902,1805
1814,1834,1834
1783,1851,1849
1813,1876,1869
1835,1872,1872
1847,1857,1827
1862,1885,1825
1891,1914,1876
1872,1891,1827
1820,1829,1783
1803,1830,1787
1829,1898,1857
1829,1882,1856
1857,1856,1805
1867,1861,1831
1837,1879,1862
1825,1886,1858
1837,1850,1821
1860,1872,1846
1837,1870,1861
1840,1872,1829
1900,1870,1810
1905,1878,1795
1821,1873,1843
1785,1875,1889
1790,1854,1825
1861,1872,1826
1871,1871,1823
1859,1884,1831
1874,1884,1855
1870,1865,1807
1880,1904,1851
1815,1873,1831
1787,1841,1775
1834,1855,1801
1883,1883,1872
1893,1888,1876
1873,1887,1870
1841,1871,1856
1878,1888,1869
1872,1879,1814
1862,1863,1799
1856,1877,1857
1856,1899,1881
1852,1874,1846
1850,1865,1821
1856,1895,1840
1863,1867,1847
1854,1862,1826
1887,1882,1815
1872,1869,1808
1872,1902,1844
1859,1887,1872
1856,1878,1847
1862,1871,1840
1890,1895,1838
1901,1904,1825
1881,1891,1854
1904,1885,1881
1904,1886,1931
1827,1878,1904
1795,1854,1808
1828,1872,1801
1855,1877,1830
1906,1922,1886
1858,1872,1822
1844,1872,1809
1871,1886,1840
1829,1871,1832
1853,1856,1817
1873,1890,1892
1869,1901,1937
1859,1905,1866
1831,1855,1791
1889,1872,1827
1939,1883,1857
1867,1872,1847
1835,1886,1863
1821,1875,1843
1866,1873,1879
1860,1865,1840
1849,1851,1797
1874,1894,1840
1903,1879,1846
1857,1872,1813
1835,1872,1874
1878,1867,1878
1917,1916,1897
1892,1909,1919
1823,1847,1808
1860,1863,1819
1893,1904,1845
1886,1894,1804
1897,1870,1875
1881,1866,1872
1843,1870,1854
1840,1895,1872
1856,1889,1858
1872,1877,1808
1861,1885,1812
1853,1872,1866
1855,1827,1811
1869,1859,1850
1886,1929,1887
1898,1902,1864
1841,1866,1828
1857,1872,1872
1863,1867,1871
1927,1904,1866
1893,1890,1847
1877,1872,1858
1863,1872,1865
1815,1867,1850
1790,1838,1829
1837,1865,1830
1894,1907,1867
1885,1903,1863
1860,1865,1863
1863,1864,1855
1861,1879,1846
1874,1910,1885
1845,1858,1821
1861,1863,1855
1918,1904,1904
1889,1891,1881
1831,1842,1807
1834,1867,1808
1872,1884,1866
1881,1871,1815
1865,1859,1821
1849,1841,1866
1841,1863,1870
1844,1889,1877
1858,1872,1859
1874,1879,1831
1903,1915,1866
1902,1901,1921
1849,1863,1869
1856,1857,1851
1878,1878,1915
1893,1887,1867
1902,1895,1884
1847,1846,1757
1871,1875,1861
1875,1870,1827
1850,1858,1776
1841,1865,1841
1882,1881,1864
1872,1842,1820
1881,1869,1813
1890,1893,1904
1893,1894,1904
1876,1885,1872
1835,1861,1846
1851,1869,1858
1893,1890,1834
1859,1850,1856
1877,1874,1820
1905,1893,1840
1866,1873,1869
1843,1857,1840
1823,1832,1808
1841,1859,1819
1870,1886,1851
1858,1872,1840
1874,1836,1831
1897,1871,1856
1874,1883,1834
1840,1873,1867
1843,1859,1843
1865,1871,1832
1869,1872,1814
1867,1861,1836
1837,1840,1798
1881,1872,1950
1946,1907,1863
1850,1870,1809
1829,1853,1840
1829,1834,1830
1830,1851,1851
1840,1846,1815
1856,1870,1837
1895,1889,1867
1886,1876,1860
1872,1865,1840
1839,1850,1808
1882,1873,1801
1881,1874,1874
1890,1859,1871
1902,1873,1888
1885,1856,1894
1874,1872,1863
1872,1871,1790
1859,1856,1839
1838,1849,1822
1881,1887,1807
1886,1871,1797
1872,1872,1821
1888,1865,1885
1904,1875,1920
1874,1861,1850
1851,1841,1861
1875,1876,1835
1925,1904,1910
1872,1887,1868
1830,1808,1806
1851,1853,1840
1920,1888,1838
1897,1879,1847
1867,1878,1872
1869,1885,1840
1872,1881,1840
1906,1902,1858
1871,1857,1825
1885,1855,1840
1872,1888,1854
1847,1882,1827
1857,1875,1829
1887,1894,1915
1907,1902,1885
1859,1863,1833
1846,1857,1842
1840,1850,1838
1858,1884,1851
1865,1867,1814
1882,1875,1835
1920,1903,1821
1869,1877,1841
1829,1857,1781
1826,1861,1865
1868,1887,1859
1907,1895,1835
1866,1872,1744
1847,1873,1803
1873,1871,1861
1904,1925,1877
1839,1855,1830
1835,1829,1858
1849,1861,1815
1861,1886,1856
1878,1908,1827
1870,1885,1826
1872,1854,1769
1880,1877,1861
1850,1859,1851
1860,1872,1825
1878,1905,1870
1866,1908,1894
1892,1906,1861
1857,1845,1794
1876,1840,1834
1902,1872,1861
1857,1893,1843
1808,1857,1807
1828,1851,1826
1873,1883,1840
1893,1894,1872
1882,1877,1861
1897,1893,1855
1881,1879,1851
1872,1872,1824
1839,1859,1808
1881,1885,1855
1949,1917,1917
1879,1856,1854
1831,1841,1790
1837,1897,1833
1862,1898,1809
1846,1846,1792
1871,1843,1827
1860,1886,1887
1862,1879,1859
1859,1877,1824
1889,1890,1855
1936,1870,1857
1897,1890,1852
1857,1877,1839
1870,1889,1853
2001,1905,1886
1840,1872,1851
1814,1835,1776
1798,1838,1818
1887,1881,1881
1863,1883,1859
1872,1870,1818
1873,1857,1841
1863,1878,1872
1853,1889,1867
1893,1897,1854
1866,1861,1822
1904,1895,1866
1890,1901,1869
1847,1874,1840
1864,1871,1821
1889,1892,1889
1895,1891,1849
1855,1882,1830
1886,1890,1856
1883,1879,1874
1875,1856,1853
1850,1856,1819
1863,1857,1843
1855,1871,1850
1829,1907,1895
1874,1890,1879
1840,1846,1840
1905,1887,1899
1872,1904,1872
1865,1894,1811
1876,1866,1854
1937,1892,1903
1863,1866,1862
1821,1865,1841
1828,1858,1840
1840,1855,1833
1872,1890,1868
1888,1894,1867
1864,1871,1840
1883,1864,1857
1887,1889,1889
1870,1866,1851
1831,1843,1823
1879,1886,1857
1921,1907,1878
1920,1909,1870
1876,1872,1856
1863,1853,1857
1920,1899,1882
1866,1879,1835
1895,1861,1851
1840,1897,1877
1861,1899,1859
1903,1857,1805
1889,1840,1850
1838,1875,1877
1866,1914,1904
1831,1878,1850
1860,1868,1840
1887,1884,1867
1899,1889,1884
1945,1902,1894
1951,1882,1860
1821,1865,1831
1817,1859,1823
1840,1858,1836
1875,1863,1840
1902,1890,1872
1856,1876,1847
1841,1863,1840
1877,1870,1842
1915,1861,1863
1885,1899,1921
1815,1873,1856
1843,1853,1812
1871,1874,1848
1882,1903,1872
1817,1874,1845
1875,1872,1841
1831,1844,1839
1917,1863,1824
1866,1871,1840
1895,1840,1813
1908,1850,1870
1897,1874,1879
1931,1873,1843
1904,1867,1845
1869,1889,1875
1857,1919,1859
1875,1904,1845
1898,1839,1825
1955,1887,1902
1913,1891,1860
1921,1879,1818
1823,1856,1818
1882,1854,1853
1938,1887,1873
1922,1877,1843
1882,1877,1872
1847,1863,1850
1846,1881,1824
1907,1910,1835
1917,1904,1853
1901,1881,1869
1892,1872,1871
1838,1897,1853
1840,1872,1839
1846,1872,1833
1884,1899,1857
1927,1892,1860
1840,1849,1813
1812,1856,1847
1831,1889,1861
1877,1883,1839
1904,1861,1840
1858,1873,1821
1895,1873,1840
1915,1884,1833
1845,1857,1809
1854,1891,1837
1895,1897,1861
1861,1860,1841
1875,1861,1840
1895,1867,1866
1968,1890,1847
1856,1881,1842
1867,1861,1856
1891,1863,1858
1926,1881,1856
1828,1840,1763
1819,1835,1765
1887,1872,1845
1882,1898,1898
1878,1876,1853
1861,1877,1859
1875,1877,1835
1889,1894,1874
1904,1881,1866
1837,1870,1842
1833,1859,1818
1849,1866,1807
1863,1845,1776
1919,1873,1840
1929,1887,1882
1815,1875,1861
1916,1882,1851
1865,1871,1835
1849,1845,1825
1870,1865,1845
1856,1878,1827
1895,1862,1804
1925,1854,1839
1919,1858,1851
1850,1877,1851
1808,1867,1792
1868,1869,1847
1863,1848,1831
1866,1851,1843
1874,1849,1851
1891,1874,1858
1904,1900,1873
1862,1863,1808
1855,1833,1808
1856,1883,1835
1849,1881,1823
1850,1871,1840
1887,1857,1833
1889,1865,1856
1843,1861,1815
1850,1856,1818
1826,1835,1820
1878,1881,1872
1937,1917,1917
1887,1883,1834
1835,1833,1787
1855,1840,1825
1883,1873,1882
1855,1895,1850
1891,1867,1807
1945,1849,1851
1854,1849,1869
1798,1839,1807
1827,1843,1822
1898,1872,1844
1925,1878,1860
1887,1899,1869
1831,1850,1779
1903,1859,1840
1888,1869,1883
1849,1887,1868
1853,1862,1790
1872,1855,1817
1891,1890,1891
1879,1898,1891
1853,1850,1806
1853,1850,1776
1871,1887,1825
1870,1859,1821
1901,1871,1857
1889,1872,1871
1901,1904,1842
1871,1883,1862
1849,1881,1837
1887,1862,1819
1881,1881,1829
1849,1862,1822
1845,1873,1843
1887,1909,1900
1926,1897,1859
1877,1849,1808
1835,1821,1803
1877,1893,1856
1872,1889,1856
1847,1881,1825
1895,1895,1840
1976,1907,1875
1872,1857,1835
1828,1854,1804
1832,1859,1823
1872,1899,1887
1925,1925,1908
1856,1870,1808
1862,1857,1802
1940,1887,1878
1874,1879,1859
1838,1875,1845
1911,1921,1867
1936,1919,1853
1887,1850,1821
1837,1831,1826
1827,1851,1854
1876,1871,1851
1927,1915,1875
1902,1891,1854
1841,1840,1826
1856,1859,1832
1894,1904,1901
1894,1899,1875
1936,1904,1861
1975,1922,1840
1915,1892,1805
1830,1835,1866
1815,1827,1851
1883,1865,1835
1920,1904,1854
1881,1886,1872
1878,1881,1845
1947,1936,1857
1927,1872,1859
1867,1827,1848
1911,1878,1855
1903,1881,1858
1872,1867,1872
1872,1862,1885
1874,1863,1849
1894,1889,1825
1894,1872,1807
1891,1878,1859
1829,1849,1871
1859,1866,1855
1911,1935,1876
1959,1943,1855
1907,1819,1877
1851,1798,1851
1876,1863,1854
1857,1895,1839
1859,1877,1833
1890,1872,1849
1901,1883,1830
1902,1906,1824
1856,1833,1819
1839,1837,1867
1851,1859,1876
1865,1894,1819
1861,1863,1797
1948,1933,1929
1899,1881,1925
1834,1846,1855
1835,1851,1801
1875,1847,1842
1865,1894,1854
1853,1891,1854
1917,1866,1870
1862,1830,1831
1837,1855,1810
1871,1875,1833
1914,1881,1826
1867,1840,1850
1871,1847,1875
1866,1867,1849
1854,1847,1831
1839,1856,1847
1840,1873,1849
1871,1885,1837
1872,1859,1829
1889,1840,1872
1886,1815,1866
1879,1906,1847
1858,1841,1862
1872,1857,1838
1901,1930,1888
1861,1793,1814
1808,1808,1823
1858,1879,1872
1895,1870,1885
1862,1856,1863
1845,1820,1829
1888,1882,1840
1870,1884,1840
1896,1896,1871
1897,1857,1851
1888,1889,1857
1913,1889,1873
1839,1802,1865
1822,1827,1866
1871,1856,1884
1916,1872,1881
1866,1863,1828
1840,1853,1772
1905,1875,1892
1887,1873,1887
1830,1808,1830
1840,1865,1789
1863,1879,1872
1877,1888,1872
1877,1838,1820
1836,1829,1829
1843,1875,1857
1877,1822,1856
1856,1845,1868
1859,1852,1821
1872,1903,1831
1867,1886,1840
1840,1873,1808
1874,1852,1823
1872,1835,1871
1936,1887,1942
1895,1808,1840
1840,1794,1828
1875,1840,1834
1853,1872,1861
1849,1853,1860
1860,1831,1815
1915,1873,1847
1890,1847,1851
1854,1857,1815
1871,1819,1810
1922,1839,1940
1883,1910,1893
1819,1842,1827
1881,1888,1858
1958,1901,1882
1856,1839,1845
1791,1863,1780
1841,1803,1835
1915,1826,1905
1967,1873,1891
1961,1891,1917
1829,1808,1823
1807,1823,1808
1827,1845,1840
1896,1850,1850
1894,1855,1890
1863,1862,1865
1871,1858,1837
1826,1806,1815
1857,1872,1872
1859,1856,1884
1905,1895,1898
1904,1888,1836
1870,1855,1840
1879,1841,1840
1901,1897,1903
1815,1826,1899
1838,1817,1891
1901,1901,1876
1906,1887,1870
1890,1833,1834
1832,1827,1823
1824,1831,1833
1851,1850,1895
1862,1827,1856
1902,1809,1835
1930,1885,1872
1887,1856,1853
1835,1853,1813
1840,1781,1845
1910,1901,1914
1925,1841,1849
1824,1851,1839
1858,1855,1892
1850,1727,1898
1856,1875,1840
1840,1840,1825
1867,1840,1841
1895,1843,1869
1884,1883,1863
1872,1898,1867
1894,1854,1884
1843,1817,1811
1837,1854,1834
1840,1872,1835
1856,1858,1840
1905,1815,1845
1919,1834,1874
1898,1894,1891
1801,1809,1819
1822,1856,1808
1883,1853,1855
1883,1874,1809
1904,1882,1798
1916,1823,1872
1833,1808,1872
1798,1858,1840
1819,1809,1832
1931,1908,1840
1899,1887,1862
1830,1893,1840
1823,1857,1872
1859,1854,1856
1879,1935,1856
1853,1814,1817
1870,1835,1817
1891,1796,1808
1872,1820,1869
1825,1831,1893
1815,1857,1834
1873,1870,1847
1948,1895,1903
1937,1888,1900
1808,1805,1787
1806,1833,1804
1851,1867,1840
1856,1835,1849
1879,1759,1855
1846,1840,1862
1838,1837,1857
1840,1852,1831
1840,1856,1824
1851,1922,1824
1862,1914,1856
1905,1835,1855
1943,1910,1890
1905,1863,1840
1837,1857,1814
1789,1784,1817
1829,1791,1865
1867,1843,1888
1849,1902,1824
1858,1865,1810
1856,1831,1828
1853,1918,1837
1893,1893,1876
1867,1859,1839
1862,1822,1856
1878,1861,1877
1885,1871,1873
1931,1886,1863
1877,1856,1836
1901,1887,1872
1894,1907,1885
1901,1862,1820
1855,1827,1805
1833,1886,1877
1856,1902,1901
1872,1888,1851
1946,1837,1807
1893,1872,1884
1850,1904,1906
1887,1887,1863
1873,1863,1825
1858,1898,1846
1856,1870,1855
1901,1874,1834
1881,1860,1829
1853,1878,1829
1869,1893,1865
1882,1911,1884
1852,1831,1836
1936,1890,1895
1953,1906,1906
1872,1885,1834
1838,1868,1798
1831,1882,1828
1877,1901,1868
1879,1898,1873
1886,1903,1840
1915,1907,1872
1910,1874,1885
1840,1855,1842
1859,1876,1850
1873,1888,1852
1873,1903,1840
1883,1883,1808
1969,1910,1843
1923,1891,1808
1869,1913,1893
1865,1904,1872
1849,1872,1845
1868,1904,1842
1885,1918,1822
1887,1885,1850
1947,1879,1886
1899,1887,1875
1873,1907,1875
1863,1906,1841
1840,1875,1808
1888,1894,1842
1936,1915,1855
1922,1899,1835
1904,1903,1857
1899,1917,1862
1894,1914,1890
1859,1885,1826
1853,1863,1843
1907,1883,1879
1920,1903,1907
1904,1914,1877
1847,1891,1823
1860,1883,1811
1913,1886,1885
1968,1903,1873
1893,1895,1872
1846,1875,1835
1856,1895,1839
1867,1899,1834
1861,1891,1855
1889,1913,1908
1884,1895,1866
1885,1869,1809
1889,1869,1837
1882,1903,1872
1930,1899,1846
1952,1889,1826
1862,1902,1856
1872,1911,1872
1853,1871,1840
1874,1869,1808
1885,1872,1847
1856,1855,1842
1887,1891,1874
1904,1895,1868
1840,1886,1826
1853,1882,1850
1867,1887,1851
1895,1901,1862
1877,1869,1808
1911,1871,1819
1887,1905,1862
1879,1904,1881
1889,1915,1883
1891,1903,1841
1872,1875,1865
1872,1845,1807
1837,1857,1808
1901,1915,1862
1919,1900,1891
1845,1870,1840
1840,1876,1841
1871,1895,1843
1924,1926,1873
1936,1906,1858
1904,1853,1779
1903,1888,1857
1909,1955,1923
1809,1887,1821
1817,1837,1779
1867,1869,1845
1902,1883,1871
1913,1895,1827
1903,1872,1850
1917,1890,1872
1905,1909,1857
1826,1867,1802
1840,1851,1810
1879,1898,1826
1906,1936,1889
1860,1878,1823
1855,1844,1795
1918,1875,1815
1941,1899,1839
1817,1858,1794
1819,1861,1827
1874,1888,1856
1889,1897,1849
1909,1895,1828
1871,1891,1853
1846,1872,1824
1872,1872,1840
1911,1891,1826
1895,1869,1793
1822,1867,1824
1829,1872,1844
1869,1887,1843
1860,1888,1840
1886,1904,1870
1840,1883,1818
1855,1863,1815
1871,1878,1842
1874,1872,1852
1867,1872,1857
1861,1872,1819
1927,1904,1840
1907,1858,1835
1861,1873,1824
1871,1869,1799
1857,1837,1792
1863,1875,1792
1887,1904,1866
1867,1886,1808
1850,1885,1822
1859,1891,1847
1895,1894,1853
1869,1881,1822
1857,1867,1840
1868,1850,1831
1886,1886,1898
1892,1864,1801
1866,1847,1840
1887,1895,1831
1920,1923,1851
1851,1889,1846
1818,1856,1840
1872,1879,1831
1891,1917,1885
1877,1901,1842
1858,1854,1837
1861,1875,1840
1904,1891,1872
1879,1862,1862
1854,1853,1859
1875,1889,1847
1904,1895,1877
1888,1867,1814
1872,1872,1813
1837,1844,1825
1851,1862,1840
1853,1892,1843
1904,1890,1822
1931,1891,1841
1898,1891,1863
1821,1858,1834
1819,1849,1851
1855,1863,1840
1858,1857,1840
1872,1845,1805
1863,1849,1838
1875,1867,1842
1885,1891,1818
1914,1898,1828
1870,1839,1789
1859,1868,1847
1876,1893,1898
1885,1882,1890
1836,1856,1808
1872,1886,1822
1904,1857,1795
1895,1851,1790
1853,1847,1839
1851,1862,1840
1835,1873,1839
1828,1867,1817
1873,1882,1870
1940,1893,1851
1904,1878,1798
1808,1861,1792
1822,1866,1873
1907,1878,1889
1940,1911,1941
1875,1887,1869
1886,1877,1823
1931,1878,1829
1873,1850,1817
1810,1834,1802
1853,1877,1796
1909,1904,1859
1905,1921,1890
1900,1900,1835
1870,1858,1787
1851,1856,1835
1897,1907,1920
1888,1881,1896
1862,1867,1853
1884,1917,1889
1921,1936,1815
1904,1881,1850
1861,1835,1808
1870,1831,1807
1892,1867,1908
1856,1873,1830
1847,1865,1845
1882,1869,1858
1915,1896,1891
1889,1856,1839
1867,1866,1798
1874,1877,1858
1902,1894,1895
1851,1852,1840
1859,1865,1833
1936,1914,1886
1910,1866,1862
1824,1840,1808
1821,1847,1822
1842,1866,1867
1882,1879,1847
1904,1877,1856
1901,1861,1834
1889,1879,1873
1883,1908,1893
1853,1856,1866
1893,1851,1799
1872,1874,1858
1856,1877,1854
1861,1866,1858
1904,1877,1813
1999,1907,1869
1904,1886,1766
1847,1881,1883
1819,1840,1840
1863,1834,1829
1904,1881,1840
1882,1873,1819
1934,1888,1883
1886,1875,1854
1862,1870,1867
1828,1855,1805
1872,1872,1808
1920,1885,1840
1894,1883,1882
1874,1885,1883
1873,1868,1869
1904,1893,1863
1873,1902,1845
1873,1878,1841
1862,1859,1829
1858,1840,1782
1867,1904,1879
1863,1863,1847
1903,1857,1851
1918,1875,1843
1855,1894,1842
1857,1839,1799
1905,1872,1807
1910,1877,1857
1901,1925,1925
1826,1874,1839
1827,1850,1825
1869,1856,1845
1904,1872,1878
1885,1865,1808
1856,1840,1796
1883,1867,1910
1874,1877,1875
1853,1856,1805
1870,1871,1824
1872,1872,1856
1855,1867,1862
1840,1856,1838
1846,1870,1840
1902,1913,1895
1917,1905,1878
1878,1819,1804
1862,1829,1808
1861,1872,1877
1872,1873,1874
1839,1869,1840
1862,1861,1837
1872,1857,1815
1857,1850,1820
1872,1882,1826
1866,1871,1855
1865,1889,1879
1895,1895,1883
1894,1882,1833
1824,1845,1782
1833,1869,1831
1889,1915,1890
1901,1857,1881
1906,1876,1859
1868,1874,1823
1872,1863,1831
1863,1844,1840
1856,1856,1853
1895,1876,1850
1872,1872,1862
1829,1849,1850
1840,1872,1863
1886,1919,1872
1903,1905,1840
1851,1857,1808
1840,1810,1797
1872,1850,1854
1897,1904,1891
1891,1872,1840
1893,1878,1862
1827,1879,1856
1843,1867,1851
1858,1851,1847
1791,1834,1824
1870,1872,1855
1847,1884,1861
1822,1869,1840
1883,1878,1849
1915,1899,1873
1828,1869,1838
1894,1858,1802
1903,1846,1827
1851,1861,1862
1856,1873,1856
1872,1862,1855
1855,1856,1777
1853,1872,1840
1900,1870,1872
1843,1851,1813
1836,1826,1807
1840,1870,1852
1853,1890,1875
1838,1886,1840
1899,1873,1839
1955,1904,1874
1861,1911,1834
1790,1843,1802
1837,1837,1840
1905,1867,1869
1873,1853,1837
1858,1821,1808
1854,1863,1808
1897,1897,1833
1828,1872,1853
1843,1853,1804
1855,1842,1799
1871,1874,1852
1875,1888,1908
1843,1890,1877
1904,1871,1785
1822,1827,1829
1884,1856,1857
1905,1872,1860
1857,1840,1835
1863,1872,1858
1943,1887,1845
1847,1863,1808
1807,1827,1818
1798,1838,1829
1824,1857,1818
1822,1872,1827
1856,1903,1869
1889,1847,1837
1889,1856,1847
1824,1822,1789
1905,1841,1829
1898,1872,1901
1837,1874,1874
1824,1841,1833
1837,1823,1797
1922,1869,1843
1924,1872,1849
1826,1855,1855
1841,1853,1851
1837,1869,1823
1888,1872,1811
1899,1855,1859
1846,1842,1818
1837,1847,1807
1895,1882,1850
1981,1872,1887
1867,1885,1841
1808,1886,1840
1826,1855,1822
1829,1825,1809
1913,1841,1840
1927,1929,1898
1877,1925,1869
1838,1834,1815
1815,1815,1790
1909,1868,1865
1906,1893,1876
1859,1844,1798
1853,1862,1859
1852,1888,1863
1856,1894,1839
1776,1874,1813
1885,1870,1847
1902,1859,1853
1851,1872,1867
1833,1899,1872
1840,1881,1822
1904,1856,1878
1872,1872,1885
1825,1866,1808
1866,1847,1806
1918,1867,1858
1872,1855,1827
1836,1867,1859
1844,1887,1856
1827,1888,1839
1775,1869,1840
1831,1859,1829
1880,1862,1840
1938,1872,1863
1826,1871,1874
1843,1863,1846
1768,1867,1826
1885,1867,1843
1939,1899,1874
1910,1875,1863
1984,1872,1861
1849,1883,1840
1806,1872,1867
1782,1853,1840
1826,1834,1799
1879,1854,1829
1919,1903,1887
1903,1901,1869
1933,1851,1823
1879,1842,1863
1803,1870,1883
1852,1869,1852
1846,1840,1806
1879,1871,1874
1867,1898,1891
1936,1893,1859
1889,1861,1809
1885,1871,1828
1839,1870,1832
1866,1887,1866
1875,1870,1871
1858,1847,1855
1882,1870,1872
1827,1858,1847
1829,1855,1822
1883,1900,1883
1915,1891,1862
1902,1882,1859
1803,1874,1835
1829,1871,1854
1861,1863,1857
1892,1853,1843
1900,1857,1855
1905,1903,1899
1904,1889,1853
1939,1879,1819
1845,1895,1856
1882,1853,1855
1831,1845,1857
1798,1869,1833
1837,1871,1839
1884,1910,1870
1889,1916,1878
1866,1861,1835
1874,1842,1835
1883,1902,1872
1872,1904,1862
1819,1843,1806
1839,1855,1837
1928,1904,1898
1913,1904,1881
1831,1874,1811
1856,1857,1827
1881,1859,1807
1889,1857,1806
1863,1870,1856
1841,1893,1899
