1889,1867,1895
1899,1863,1856
1938,1873,1846
1872,1887,1840
1877,1890,1862
1959,1840,1783
1902,1850,1775
1775,1865,1858
1745,1867,1916
1803,1833,1808
1802,1870,1793
1904,1927,1903
1985,1955,1946
1919,1819,1789
1920,1802,1711
1860,1827,1811
1781,1840,1857
1798,1825,1781
1785,1813,1759
1827,1857,1856
1839,1847,1856
1808,1813,1801
1901,1848,1790
2000,1885,1840
1904,1890,1906
1827,1821,1805
1806,1834,1803
1840,1881,1855
1939,1888,1889
1989,1870,1834
1907,1853,1761
1806,1859,1857
1920,1857,1889
1868,1846,1831
2087,1890,1758
2113,1844,1679
1803,1823,1783
1808,1909,1921
1983,1831,1824
1759,1722,1600
1687,1786,1770
1558,1776,1846
1706,1836,1819
2036,1951,1962
1870,1901,1923
1948,1867,1855
1837,1855,1810
1762,1910,1814
1654,1816,1776
1761,1798,1827
1796,1843,1826
1907,1853,1776
1792,1843,1811
1823,1921,1867
2113,1887,1786
1885,1856,1922
1802,1824,1771
1591,1772,1683
1535,1811,1719
1845,1902,1951
2055,1878,1871
1871,1825,1857
1753,1811,1761
1863,1878,1879
1759,1893,1881
1826,1882,1771
1857,1789,1710
1936,1897,1958
1935,1891,1893
1731,1738,1663
1532,1754,1725
1604,1835,1837
1739,1873,1895
1842,1862,1854
1905,1883,1935
1793,1866,1899
1959,1889,1845
2032,1875,1841
1620,1776,1793
1555,1805,1840
1756,1847,1936
2000,1872,1869
1897,1872,1825
1925,1905,1872
1829,1933,1906
1887,1911,1930
1823,1814,1815
1740,1806,1799
1651,1814,1840
1821,1831,1856
1922,1857,1865
1799,1863,1889
1730,1915,1905
1729,1833,1820
1904,1821,1823
1899,1814,1854
1728,1858,1867
1696,1857,1858
1780,1883,1858
1930,1933,1935
2027,1914,1934
1793,1825,1824
1771,1862,1827
1846,1925,1919
1815,1870,1898
1715,1817,1841
1786,1829,1840
1871,1871,1920
1893,1869,1924
1927,1854,1856
1891,1858,1831
1839,1895,1895
1787,1873,1910
1786,1842,1861
1802,1813,1830
1800,1863,1902
1815,1877,1935
1866,1847,1867
1886,1854,1877
1929,1917,1953
1927,1915,1946
1840,1842,1807
1769,1840,1817
1721,1856,1879
1807,1864,1905
1779,1838,1872
1936,1852,1875
1846,1873,1933
1885,1874,1936
1909,1847,1873
1965,1867,1874
1886,1885,1910
1885,1890,1925
1916,1861,1872
1911,1863,1842
1939,1905,1910
1925,1880,1915
1853,1829,1842
1790,1809,1833
1856,1862,1899
1874,1891,1933
1903,1869,1872
1918,1865,1857
1914,1916,1924
1859,1910,1935
1885,1899,1879
1907,1875,1840
1901,1901,1887
1925,1922,1918
1898,1911,1872
1954,1918,1847
1919,1951,1910
1936,1968,1936
2000,1931,1853
1904,1933,1825
1919,1969,1887
1905,1998,1918
1891,1962,1830
1937,1963,1834
1939,2011,1920
1872,1993,1907
1872,1970,1836
1915,1999,1833
1938,2063,1920
1927,2059,1929
1904,2006,1854
1938,2019,1854
1923,2047,1908
1921,2073,1941
1913,2005,1853
1910,1984,1820
1935,2044,1902
1881,2006,1888
1952,2032,1887
1947,1993,1810
1898,1985,1811
1867,2011,1886
1853,1974,1866
1903,1981,1859
1936,2031,1920
1915,2016,1916
1929,1996,1857
1952,2005,1853
1983,2046,1921
1922,2032,1920
1887,1980,1843
1901,1967,1811
1899,1989,1872
1908,2000,1904
1928,1984,1859
1935,1991,1845
1920,2006,1901
1936,2032,1930
1925,1973,1849
1943,1978,1814
1936,2014,1891
1885,1971,1889
1899,1953,1839
1942,1987,1852
1924,1987,1886
1895,1978,1874
1922,1967,1837
1950,1978,1839
1939,2001,1895
1941,2010,1920
1916,1937,1822
1935,1955,1822
1936,1984,1895
1918,1964,1888
1909,1936,1837
1938,1963,1851
1942,1996,1914
1963,2031,1954
1975,1995,1895
1948,1936,1821
1909,1958,1858
1889,1963,1893
1921,1943,1855
1963,1981,1862
1937,1975,1895
1905,1962,1895
1904,1930,1826
1934,1943,1838
1915,1969,1893
1892,1970,1889
1889,1937,1832
1938,1958,1837
1961,1994,1904
1942,1999,1916
1935,1977,1844
1945,1969,1827
1920,1983,1872
1886,1966,1877
1939,1963,1854
1985,2005,1881
1923,1975,1882
1840,1921,1841
1874,1922,1814
1921,1941,1822
1936,1987,1904
1920,1974,1904
1909,1939,1839
1936,1950,1833
1936,1978,1886
1919,1972,1899
1931,1947,1838
1925,1947,1808
1920,1978,1875
1904,1980,1904
1904,1931,1830
1897,1905,1795
1920,1945,1872
1936,1953,1904
1949,1963,1880
1894,1903,1793
1891,1931,1856
1878,1945,1897
1897,1916,1840
1916,1919,1825
1931,1968,1905
1930,1973,1935
1904,1917,1839
1901,1898,1802
1889,1933,1858
1898,1941,1903
1910,1915,1846
1931,1925,1840
1904,1938,1879
1901,1933,1894
1920,1919,1841
1904,1898,1818
1891,1921,1873
1902,1931,1905
1908,1915,1855
1875,1869,1777
1870,1889,1835
1878,1913,1879
1887,1871,1823
1891,1860,1796
1899,1908,1867
1917,1944,1919
1911,1895,1841
1906,1878,1806
1887,1895,1850
1869,1892,1872
1882,1872,1829
1904,1872,1810
1905,1908,1877
1907,1925,1918
1915,1891,1855
1911,1876,1823
1883,1872,1857
1885,1894,1902
1899,1878,1855
1902,1870,1827
1873,1867,1858
1859,1867,1874
1879,1847,1822
1940,1893,1858
1898,1873,1871
1853,1843,1860
1881,1845,1825
1901,1856,1821
1902,1895,1891
1872,1887,1898
1891,1872,1846
1904,1854,1821
1878,1872,1854
1856,1872,1872
1856,1822,1803
1890,1761,1802
1907,1845,1883
1901,1896,1912
1885,1840,1825
1871,1821,1779
1879,1847,1846
1878,1863,1881
1895,1917,1839
1888,1777,1792
1872,1820,1840
1851,1858,1853
1869,1790,1805
1887,1819,1802
1902,1869,1877
1887,1853,1897
1884,1799,1833
1888,1828,1797
1871,1809,1842
1859,1802,1873
1883,1874,1835
1907,1829,1825
1894,1904,1869
1881,1845,1879
1872,1812,1814
1893,1830,1810
1933,1923,1910
1927,1903,1939
1808,1781,1763
1807,1730,1725
1845,1765,1833
1867,1847,1883
1890,1843,1843
1875,1799,1802
1861,1797,1852
1863,1846,1891
1885,1829,1843
1874,1776,1802
1872,1829,1859
1863,1840,1891
1867,1809,1838
1883,1811,1811
1891,1854,1875
1877,1894,1896
1860,1797,1820
1882,1775,1808
1875,1821,1862
1872,1835,1888
1885,1827,1839
1904,1863,1833
1889,1837,1872
1840,1814,1849
1838,1757,1790
1857,1776,1782
1872,1801,1849
1889,1851,1885
1856,1767,1805
1857,1829,1785
1842,1838,1843
1845,1835,1870
1855,1849,1819
1872,1807,1808
1872,1789,1872
1869,1857,1899
1894,1788,1855
1868,1796,1792
1849,1802,1837
1854,1855,1882
1879,1859,1851
1851,1759,1786
1850,1827,1843
1840,1840,1861
1866,1823,1818
1840,1706,1763
1845,1813,1838
1849,1803,1875
1859,1821,1827
1882,1779,1803
1859,1776,1854
1837,1811,1872
1830,1744,1796
1858,1775,1791
1873,1818,1861
1841,1808,1868
1844,1787,1808
1858,1792,1794
1870,1821,1859
1854,1822,1879
1871,1795,1833
1874,1814,1811
1847,1723,1843
1837,1807,1859
1841,1793,1811
1853,1783,1788
1883,1859,1865
1871,1936,1899
1808,1751,1779
1801,1712,1745
1827,1792,1835
1849,1830,1877
1840,1776,1811
1857,1783,1782
1872,1833,1856
1856,1841,1887
1858,1809,1826
1899,1831,1838
1822,1795,1829
1782,1776,1820
1840,1770,1809
1917,1914,1840
1847,1807,1821
1795,1754,1808
1815,1774,1787
1838,1771,1789
1857,1806,1856
1849,1796,1872
1840,1773,1809
1855,1713,1792
1874,1872,1872
1843,1831,1872
1817,1766,1793
1851,1808,1799
1862,1854,1875
1838,1807,1879
1831,1808,1811
1858,1842,1805
1854,1879,1865
1856,1823,1896
1841,1765,1814
1841,1856,1789
1847,1839,1859
1838,1834,1883
1859,1877,1840
1871,1803,1812
1856,1826,1856
1867,1866,1904
1877,1842,1845
1856,1840,1790
1808,1829,1803
1802,1777,1840
1829,1791,1799
1847,1782,1779
1852,1840,1857
1829,1823,1862
1837,1783,1812
1889,1846,1837
1872,1856,1867
1807,1840,1833
1831,1823,1795
1858,1789,1790
1849,1867,1840
1819,1813,1856
1834,1787,1808
1861,1797,1807
1879,1834,1895
1904,1927,1936
1851,1791,1824
1808,1770,1744
1821,1811,1818
1851,1825,1878
1850,1809,1825
1870,1814,1795
1861,1872,1852
1823,1925,1871
1824,1811,1805
1850,1821,1795
1863,1851,1871
1841,1858,1875
1838,1842,1812
1842,1815,1793
1841,1841,1845
1833,1837,1869
1849,1811,1826
1847,1801,1794
1872,1852,1875
1843,1846,1883
1813,1792,1789
1841,1808,1790
1873,1872,1887
1849,1859,1893
1823,1802,1791
1840,1807,1780
1855,1847,1851
1840,1845,1872
1870,1839,1838
1876,1835,1814
1840,1840,1851
1827,1842,1874
1844,1831,1826
1878,1847,1826
1861,1864,1873
1843,1856,1883
1859,1847,1842
1873,1844,1818
1858,1858,1870
1823,1853,1872
1827,1831,1812
1843,1824,1795
1840,1847,1845
1846,1855,1883
1861,1834,1843
1877,1846,1829
1823,1828,1839
1776,1803,1821
1824,1791,1783
1857,1816,1798
1881,1875,1894
1847,1861,1886
1843,1833,1820
1875,1856,1822
1847,1857,1850
1818,1841,1856
1815,1807,1795
1840,1815,1782
1853,1861,1850
1847,1877,1875
1836,1836,1808
1841,1837,1786
1839,1857,1846
1824,1846,1862
1845,1840,1820
1875,1856,1821
1869,1890,1878
1845,1889,1891
1803,1805,1777
1798,1776,1744
1823,1849,1845
1856,1893,1900
1833,1838,1803
1855,1839,1792
1871,1878,1867
1837,1863,1872
1808,1824,1793
1835,1830,1783
1833,1857,1838
1834,1901,1869
1847,1840,1822
1854,1834,1803
1855,1882,1871
1871,1915,1916
1867,1868,1830
1835,1820,1767
1838,1862,1836
1829,1872,1861
1840,1845,1811
1893,1883,1827
1896,1922,1893
1807,1842,1846
1791,1795,1776
1856,1837,1798
1856,1873,1868
1825,1855,1866
1838,1838,1809
1829,1815,1776
1853,1854,1843
1866,1887,1890
1859,1850,1815
1863,1853,1786
1840,1856,1829
1830,1850,1857
1847,1835,1812
1903,1870,1826
1874,1879,1865
1831,1864,1854
1830,1838,1795
1862,1843,1787
1866,1883,1861
1861,1899,1889
1890,1887,1845
1863,1855,1802
1809,1845,1819
1808,1857,1850
1847,1862,1831
1872,1873,1824
1870,1891,1866
1847,1879,1871
1847,1850,1805
1851,1840,1792
1852,1869,1855
1859,1888,1893
1869,1881,1840
1856,1860,1805
1802,1827,1801
1808,1843,1842
1840,1846,1804
1883,1861,1810
1911,1930,1911
1841,1877,1879
1805,1813,1783
1840,1818,1773
1835,1856,1837
1831,1867,1871
1842,1854,1818
1865,1857,1808
1859,1886,1861
1846,1893,1887
1853,1872,1825
1856,1842,1795
1855,1886,1866
1839,1877,1875
1808,1823,1785
1828,1835,1778
1841,1872,1853
1846,1883,1889
1851,1856,1822
1859,1859,1802
1859,1872,1859
1840,1875,1872
1871,1863,1830
1843,1827,1782
1844,1862,1841
1840,1874,1872
1856,1869,1823
1899,1901,1839
1855,1882,1865
1829,1874,1863
1843,1851,1808
1857,1855,1793
1867,1904,1862
1854,1904,1885
1828,1842,1799
1866,1858,1840
1856,1877,1856
1826,1866,1870
1835,1842,1819
1865,1861,1815
1872,1902,1907
1859,1904,1909
1856,1863,1791
1829,1825,1778
1824,1847,1822
1859,1881,1936
1879,1872,1835
1901,1879,1840
1847,1879,1823
1801,1853,1840
1810,1826,1797
1847,1840,1761
1862,1886,1831
1883,1922,1913
1856,1863,1821
1838,1840,1805
1851,1886,1826
1851,1903,1911
1841,1850,1799
1839,1842,1776
1839,1872,1846
1851,1897,1855
1883,1872,1840
1880,1885,1824
1851,1889,1870
1844,1898,1897
1852,1869,1818
1867,1855,1770
1873,1907,1870
1873,1920,1919
1842,1872,1840
1847,1862,1803
1854,1887,1861
1854,1898,1889
1843,1853,1826
1858,1860,1794
1893,1920,1896
1862,1902,1898
1863,1878,1825
1867,1856,1799
1821,1846,1833
1805,1863,1830
1834,1859,1808
1867,1874,1821
1879,1905,1881
1865,1897,1931
1856,1862,1794
1875,1862,1802
1873,1895,1894
1868,1910,1872
1886,1899,1846
1870,1869,1819
1877,1909,1890
1869,1923,1903
1835,1873,1776
1844,1857,1748
1835,1887,1846
1824,1893,1863
1829,1866,1795
1872,1888,1792
1878,1921,1850
1838,1890,1899
1870,1889,1867
1877,1881,1843
1834,1875,1863
1813,1878,1859
1813,1851,1799
1841,1856,1793
1872,1904,1870
1899,1934,1920
1886,1895,1847
1861,1873,1808
1824,1870,1840
1823,1866,1859
1843,1856,1809
1870,1870,1807
1861,1899,1865
1861,1908,1888
1855,1868,1815
1867,1869,1797
1883,1915,1856
1811,1881,1849
1835,1871,1809
1895,1888,1811
1856,1906,1872
1805,1887,1867
1792,1823,1840
1840,1840,1789
1862,1898,1904
1871,1922,1895
1855,1886,1831
1840,1853,1788
1840,1885,1840
1850,1892,1881
1859,1870,1831
1857,1856,1792
1855,1893,1855
1883,1932,1929
1918,1907,1872
1869,1889,1810
1815,1888,1825
1756,1835,1742
1799,1827,1776
1845,1847,1787
1859,1903,1840
1887,1917,1903
1922,1904,1836
1856,1875,1822
1872,1936,1911
1842,1919,1899
1815,1855,1753
1807,1825,1718
1782,1845,1803
1808,1877,1808
1863,1890,1808
1872,1895,1792
1867,1906,1862
1833,1910,1877
1839,1904,1833
1885,1941,1813
1861,1934,1819
1824,1920,1863
1840,1919,1870
1837,1904,1836
1840,1943,1835
1840,1959,1947
1840,1920,1824
1841,1898,1788
1866,1944,1840
1822,1936,1808
1754,1872,1775
1776,1883,1786
1818,1950,1839
1840,1966,1948
1846,1940,1840
1856,1945,1810
1857,1984,1835
1867,2013,1942
1868,1980,1827
1855,1968,1789
1852,1995,1885
1814,1981,1921
1814,1956,1792
1835,1957,1749
1830,1979,1840
1821,1982,1863
1840,1957,1811
1902,1986,1839
1904,2016,1877
1808,1978,1875
1802,1945,1805
1818,1936,1766
1830,1981,1872
1815,1967,1854
1856,1961,1830
1904,1981,1856
1842,1967,1885
1806,1956,1836
1807,1931,1795
1852,1953,1805
1840,1971,1851
1840,1968,1871
1857,1957,1827
1855,1935,1791
1858,1968,1869
1862,1984,1909
1828,1929,1802
1840,1920,1783
1898,1968,1869
1877,1970,1895
1857,1925,1840
1853,1908,1786
1842,1936,1833
1795,1914,1833
1814,1897,1777
1898,1937,1835
1987,2015,1936
1997,1982,1930
1827,1856,1753
1739,1855,1705
1809,1926,1814
1845,1925,1857
1865,1888,1734
1934,1923,1779
1978,1952,1863
2075,2010,2000
1809,1917,1848
1804,1942,1837
1819,1936,1860
1974,1965,1795
2193,2010,1822
2323,2036,1878
1861,1872,1798
1963,2053,1915
2031,2091,1984
2202,2110,2078
2180,2122,2037
2283,2095,1994
1968,1843,1793
1533,1605,1439
1394,1573,1389
1803,1750,1600
1968,1853,1760
1786,1899,1921
1867,2000,1903
1998,1930,1821
1923,1884,1713
1765,1845,1707
1680,1815,1770
2005,2045,2055
2030,1970,1911
1830,1724,1581
1847,1841,1792
1665,1871,1843
1612,1871,1703
1904,1937,1767
1890,1867,1725
1769,1847,1807
1750,1846,1827
1876,1932,1843
1967,1953,1963
1895,1900,1934
1991,1889,1877
1774,1872,1723
1699,1911,1787
1905,1937,1811
1815,1889,1776
2015,1931,1877
1602,1755,1766
1626,1798,1687
2095,1950,1904
1920,1859,1789
1506,1808,1792
1521,1813,1871
1933,1871,1824
1872,1843,1775
1799,1875,1807
1750,1837,1777
1781,1822,1787
2118,2027,1919
1720,1867,1840
1421,1823,1802
1700,1813,1805
2066,1872,1883
1917,1862,1823
1840,1881,1846
1648,1764,1662
1689,1799,1697
1867,1907,1867
1934,1996,2032
1775,1843,1939
1667,1759,1706
1592,1745,1665
1643,1791,1883
1766,1808,1837
2007,1846,1790
1982,1819,1680
1879,1897,1811
1965,1802,1959
1441,1647,1755
1479,1774,1826
1693,1825,1936
1847,1781,1789
1968,1794,1774
1906,1834,1806
1813,1827,1703
1680,1773,1866
1822,1720,1874
1683,1648,1701
1711,1779,1851
1855,1787,1834
1790,1827,1729
1915,1798,1790
1456,1647,1625
1657,1775,1839
2092,1676,1798
1591,1715,1803
1507,1794,1847
1630,1699,1867
1936,1769,1879
1856,1776,1889
1811,1831,1815
1889,1725,1626
1667,1688,1713
1658,1686,1819
1715,1741,1914
1700,1728,1882
1828,1734,1837
1774,1729,1801
1779,1751,1830
1884,1759,1898
1906,1737,1744
1593,1729,1792
1728,1743,1870
1875,1675,1746
1815,1665,1873
1500,1657,1872
1584,1711,1782
1904,1771,1862
1790,1717,1792
1793,1767,1753
1885,1781,1964
1782,1664,1851
1643,1627,1664
1635,1703,1847
1811,1771,1919
1918,1754,1862
1900,1718,1971
1827,1753,1855
1792,1735,1662
1627,1651,1719
1503,1613,1791
1575,1677,1906
1877,1739,1914
1889,1697,1785
1946,1808,1929
2038,1857,1985
2090,1828,1953
1726,1621,1587
1345,1582,1623
1955,1771,1978
2098,1633,1872
1505,1663,1674
1806,1813,2033
1871,1697,1914
1524,1695,1663
1489,1661,1641
1938,1787,1879
2333,1821,2086
1774,1661,1731
1334,1655,1666
1611,1714,1770
1817,1789,1953
2171,1911,2106
2167,1776,1980
1523,1627,1703
1429,1680,1664
1648,1712,1811
1936,1711,1761
2055,1783,1910
1870,1808,1994
1603,1771,1905
1766,1734,1782
2137,1807,1895
1840,1734,1839
1606,1707,1821
1661,1711,1840
1958,1745,1835
2216,1793,1967
1685,1783,1909
1443,1698,1695
1877,1786,1859
1919,1761,1967
1706,1737,1808
1625,1680,1695
1995,1755,1825
1950,1797,1935
1707,1837,2028
1799,1845,1938
2000,1769,1827
1904,1744,1951
1770,1809,1931
1841,1791,1767
1936,1744,1760
1788,1743,1925
1719,1783,1789
1805,1765,1793
1875,1789,1856
1894,1792,1937
1916,1839,2077
1997,1843,1927
1693,1694,1693
1644,1744,1776
1785,1829,1946
1907,1798,1943
1961,1792,1843
2032,1851,2045
1755,1763,1877
1642,1751,1713
1938,1840,1853
2014,1808,1858
1751,1764,1912
1585,1738,1819
1885,1820,1870
2115,1838,1920
1997,1776,1924
1871,1795,1851
1755,1823,1799
1872,1873,1968
1759,1841,1950
1754,1765,1786
1869,1749,1746
1871,1806,1851
2033,1882,1939
1920,1735,1808
1701,1747,1826
1679,1841,1947
1915,1861,1963
2013,1835,1919
1925,1776,1823
1864,1795,1884
1718,1772,1839
1702,1772,1733
1840,1846,1871
2102,1933,1965
2233,1921,2114
1675,1730,1718
1535,1737,1698
1769,1805,1872
2096,1895,2021
2190,1841,1939
1920,1807,1851
1746,1886,1936
1753,1845,1839
1883,1774,1746
1985,1821,1883
1867,1828,1930
1697,1822,1897
1920,1807,1913
1943,1861,1856
1840,1866,1865
1951,1857,1927
1808,1818,1821
1786,1807,1753
2071,1911,1914
2320,2010,2113
2012,1735,1820
1441,1664,1698
1437,1763,1728
1833,1872,1862
2119,1939,1958
2215,1946,2063
1750,1774,1725
1733,1838,1731
1929,1840,1814
1941,1797,1881
1838,1838,1991
1680,1847,1847
1930,1921,1842
2126,1870,1840
1973,1911,1990
1934,1897,2066
2511,1922,1984
1808,1706,1575
1180,1740,1653
1429,1823,1797
1892,1861,1853
2101,1917,1947
2203,2000,2086
1934,1907,1909
1733,1815,1747
1874,1825,1883
1968,1834,1949
2081,1834,1767
1825,1792,1687
1641,1863,1871
1749,1887,1970
2132,1958,2076
2311,1901,2000
1822,1809,1717
1621,1844,1760
1808,1917,1904
1983,1901,1855
1968,1863,1879
1858,1818,1863
2053,1919,1939
2046,1826,1738
1664,1803,1856
1749,1890,1965
1904,1914,1957
1848,1848,1827
1827,1846,1785
1921,1892,1870
2286,2000,2055
2117,1842,1845
1601,1745,1743
1604,1844,1846
1822,1890,1904
2140,1890,1857
1941,1866,1878
1829,1907,1945
2026,1984,1949
1883,1843,1709
1791,1835,1791
1963,1894,1957
1888,1908,1924
1858,1895,1903
2133,1947,1857
1953,1904,1839
1686,1829,1903
1699,1824,1778
1974,1901,1834
2463,2032,2068
1938,1840,1829
1485,1786,1700
1577,1831,1785
1911,1921,1927
2329,2037,2176
1968,1848,1816
1665,1782,1637
1728,1872,1770
1882,1927,1961
2256,1915,1973
2275,1837,1819
1721,1821,1743
1499,1872,1950
1793,1933,1904
1965,1937,1875
1968,1957,1984
2031,1895,1807
1986,1791,1650
1802,1867,1840
1866,1919,1915
2004,1853,2000
1737,1830,1813
1707,1823,1780
2147,2031,2095
2145,1904,2018
1623,1723,1638
1667,1792,1672
2064,1963,1985
2054,1837,1942
1819,1871,1847
1753,1866,1795
1895,1898,1808
2173,1970,1969
2161,1898,1932
1728,1813,1702
1628,1776,1714
1717,1875,1872
1844,1926,1951
2240,1955,1907
1957,1923,1856
1682,1875,1916
1756,1855,1871
1970,1865,1842
2149,1967,1953
2083,1974,1856
1781,1765,1690
1941,1904,1822
1812,1902,1862
1682,1823,1857
1877,1904,1947
2022,1914,1962
1813,1894,1872
1936,1955,1857
2112,1886,1732
1907,1838,1627
1827,1872,1889
1758,1961,2090
1946,1870,1968
1958,1842,1780
1712,1863,1763
1932,1906,1897
1957,1945,1895
1815,1857,1847
1770,1933,1806
1856,1835,1773
1937,1840,1812
1867,1871,1795
1883,1845,1902
1908,1946,2017
1854,1906,1927
1904,1935,1848
1888,1933,1862
1856,1808,1808
1952,1853,1798
1884,1842,1861
1831,1874,1840
2045,1920,1869
2114,1904,1872
1773,1853,1807
1781,1862,1831
2023,1999,1965
1941,1947,1902
1947,1946,1841
1939,1914,1903
2128,1936,1885
1758,1768,1699
1535,1795,1734
1733,1871,1872
2123,1905,1930
2057,1884,1849
1735,1837,1792
1808,1883,1943
1872,1882,1899
1878,1904,1807
2003,1892,1827
1976,1836,1855
1793,1931,1895
2027,1903,1933
2096,1864,1862
1763,1844,1786
1733,1878,1807
1833,1849,1765
1983,1906,1834
2083,1921,1921
1993,1972,1951
1990,1857,1875
1795,1791,1794
1590,1831,1680
1778,1876,1843
1901,1865,1754
1872,1839,1863
1879,1925,1968
1921,1941,1970
2150,1905,1870
1836,1787,1724
1574,1840,1801
1792,1925,1957
2037,1872,1911
2066,1904,1854
1851,1872,1853
1717,1911,1908
1725,1879,1776
1857,1833,1723
2003,1937,1875
1891,1949,2000
1968,1870,1894
1979,1826,1767
1761,1921,1920
1802,1895,2011
1917,1908,1837
2042,1872,1757
2091,1907,1843
1803,1931,1972
1763,1919,1904
1830,1867,1829
1984,1920,1893
2065,1940,1914
1968,1925,1790
1758,1879,1776
1871,1841,1907
2187,1955,2036
1875,1884,1900
1778,1823,1734
1663,1811,1727
1835,1912,1847
2143,1878,1794
2176,1882,1931
1648,1779,1774
1514,1794,1727
1781,1829,1803
2092,1919,1907
2085,1937,2031
1739,1842,1933
1657,1838,1794
1930,1913,1791
2160,1934,1909
1917,1862,1859
1771,1893,1810
1958,1989,1825
2034,1930,1783
1808,1883,1952
1828,1911,1953
1898,1863,1728
1910,1871,1808
1889,1769,1866
1761,1751,1824
1758,1771,1822
1967,2011,1964
1998,1905,1935
1870,1835,1757
1869,1794,1752
2034,1872,1907
1770,1893,1922
1811,1914,1879
1901,1840,1802
2005,1959,1932
2180,1954,1925
1666,1765,1648
1578,1835,1744
1714,1911,1948
2047,1932,1959
2110,1865,1810
1972,1858,1872
1702,1874,1852
1722,1894,1879
1859,1808,1763
2196,1923,1792
1967,1881,1968
1586,1771,1874
1616,1795,1778
1969,1875,1809
2225,1918,1833
1956,1876,1947
1697,1876,1901
1664,1874,1808
1825,1872,1770
1975,1899,1837
1969,1883,1879
1907,1856,1911
1957,1936,1889
1786,1886,1855
1766,1807,1776
1815,1796,1804
1887,1870,1977
2128,1936,1962
2087,1899,1787
1839,1889,1811
1712,1856,1929
2003,1936,2014
1996,1869,1813
1767,1806,1658
1843,1881,1890
1827,1856,1931
1705,1842,1871
1805,1875,1867
2139,1936,1939
2087,1874,1825
2061,1920,1833
1749,1855,1851
1706,1898,1972
1797,1858,1868
1869,1774,1776
2102,1867,1889
1974,1922,1829
1638,1873,1794
1629,1779,1680
2034,1873,1815
2102,1914,1953
1803,1857,1879
1675,1808,1791
1825,1854,1810
1963,1904,1889
1978,1939,1967
1899,1907,1815
1751,1803,1743
1808,1823,1870
2160,2016,1985
2044,1895,1907
1715,1805,1732
1755,1796,1840
1669,1858,1877
1878,1892,1921
1872,1875,1817
1761,1906,1894
1799,1917,1949
1918,1906,1910
1895,1855,1840
1905,1872,1920
1899,1934,1825
1774,1801,1681
1973,1856,1857
1990,1871,1808
1936,1874,1885
2082,1890,1876
1986,1831,1647
1584,1838,1797
1789,1950,2043
1903,1830,1886
1838,1808,1741
1686,1836,1744
1765,1891,1891
1978,1923,1918
2009,1893,1891
2056,1879,1741
2075,1836,1872
1797,1887,1987
1637,1871,1919
1782,1878,1872
2009,1872,1878
1915,1776,1791
1735,1830,1782
1899,1856,1742
2119,1935,1978
1963,1827,1830
1617,1806,1669
1810,1909,1834
2038,1896,2031
1776,1837,1842
1650,1872,1838
1872,1963,1969
2073,1936,1872
1975,1835,1753
1836,1790,1790
1869,1861,1846
1710,1888,1909
1891,1916,1882
2287,1926,1914
1854,1806,1803
1553,1809,1792
1654,1846,1791
1884,1890,1808
1869,1895,1892
1893,1868,1950
1756,1805,1767
1840,1817,1699
1927,1920,1862
1765,1863,1936
1737,1825,1902
1887,1863,1815
2059,1878,1863
1991,1915,2034
1885,1899,1887
1835,1915,1775
1861,1909,1823
1973,1871,1823
1886,1842,1822
1763,1878,1872
1773,1886,1915
1775,1841,1842
1854,1814,1794
1913,1850,1859
2025,1953,1967
2029,1911,1901
1787,1851,1805
1761,1856,1813
1850,1895,1889
1856,1897,1929
1983,1878,1920
2192,1910,1825
1908,1870,1789
1535,1781,1745
1648,1825,1805
2021,1885,1883
2129,1908,1899
1825,1872,1869
1680,1872,1808
1924,1856,1759
2017,1910,1849
1899,1877,1830
1846,1853,1859
1770,1819,1875
1755,1856,1927
1853,1879,1957
1733,1807,1743
1853,1895,1776
1891,1873,1840
1794,1841,1856
1919,1879,1878
2214,1902,1926
1874,1778,1819
1609,1799,1775
1873,1883,1908
1938,1869,1840
1759,1840,1787
1681,1856,1863
1779,1879,1904
1927,1876,1824
2311,1965,2031
1841,1840,1795
1633,1845,1755
1749,1838,1763
1921,1895,1886
1874,1889,1910
1779,1884,1878
1907,1872,1877
1917,1909,1839
1921,1915,1907
1959,1874,1841
1890,1835,1904
1726,1873,1828
1767,1888,1828
1904,1855,1793
1974,1883,1922
2240,1968,2063
1696,1776,1744
1485,1782,1709
1729,1855,1855
2331,2018,1999
2075,1851,1922
1566,1786,1771
1664,1840,1782
1838,1872,1810
2288,1997,2002
1877,1754,1803
1574,1810,1680
1794,1903,1803
2123,1980,1957
1911,1829,1842
1663,1802,1813
1754,1888,1899
2195,1930,1862
1941,1814,1878
1743,1862,1925
1712,1920,1882
1776,1866,1754
2256,1903,1810
2003,1777,1715
1506,1817,1840
1571,1883,1984
1935,1871,1782
2191,1887,1799
1855,1804,1795
1655,1859,1888
1659,1857,1846
2053,1933,1950
2227,1951,1962
1824,1852,1811
1587,1802,1759
1678,1811,1775
1922,1914,1882
2017,1933,1954
1968,1874,1901
1857,1860,1821
1753,1872,1873
1749,1861,1835
1791,1862,1843
2079,1906,1877
2187,1894,1873
1766,1845,1822
1589,1813,1795
1719,1811,1806
1986,1878,2039
1989,1859,1911
1837,1886,1823
1761,1875,1837
2112,1995,2059
2120,1904,1934
1776,1789,1661
1555,1766,1631
1665,1865,1903
1936,1949,1968
1990,1904,1871
2005,1875,1843
1929,1839,1913
1664,1793,1850
1807,1823,1758
2094,1921,1915
1791,1845,1856
1792,1897,1840
2102,1897,1819
1974,1817,1709
1680,1853,1862
1607,1850,1879
1795,1838,1856
1819,1845,1838
1816,1904,1871
2140,1879,1831
1949,1843,1852
1743,1898,1923
1720,1893,1837
1788,1857,1920
1765,1818,1840
2016,1895,1759
2330,1946,1872
1807,1856,1955
1591,1781,1799
1841,1840,1778
2014,1830,1830
1721,1821,1834
1642,1840,1803
1810,1859,1824
1939,1919,1952
2071,1962,2012
1904,1880,1831
1733,1857,1809
1829,1847,1811
2106,1859,1898
1949,1808,1778
1727,1887,1819
1682,1909,1875
1776,1840,1866
1775,1736,1712
1907,1851,1830
1899,1901,1927
1781,1856,1834
1883,1849,1801
2010,1823,1715
1967,1893,1885
1783,1893,1989
1772,1839,1867
1827,1843,1824
1904,1862,1959
1833,1869,1927
