1696,1813,1715
1842,1928,1856
1941,1878,1808
1843,1844,1846
1752,1837,1919
1921,1886,1802
1958,1946,1823
1834,1911,1915
2064,1893,1901
2035,1877,1809
1819,1938,1874
1875,1933,1840
2089,1871,1874
1690,1767,1745
1805,1859,1818
2038,1936,1829
1858,1882,1808
1977,1956,1889
1959,1959,1956
1747,1839,1912
1904,1823,1760
1898,1840,1702
1807,1881,1823
1952,1952,1945
1968,1879,1901
2058,1949,1909
1872,1902,1790
1825,1906,1776
2101,1948,1780
1993,1883,1903
2227,2090,2109
1940,1840,1819
1499,1680,1616
1751,1846,1830
1951,2010,1948
1837,1866,1837
1817,1771,1806
2039,1846,1796
1979,1887,1746
1879,1963,2000
1984,1873,1915
1637,1756,1686
1809,1900,1874
2322,1986,1948
1814,1840,1832
1698,1840,1764
1706,1872,1877
1920,1904,1894
2114,1872,1858
1982,1836,1783
2063,1853,1738
1648,1840,1873
1520,1807,1827
1872,1894,1909
1931,1895,1931
1907,1909,1870
1930,1808,1745
2046,1826,1835
1760,1775,1657
1621,1885,1854
1831,1913,1932
1937,1825,1745
2112,1907,1873
1859,1874,1935
1526,1715,1744
2117,2003,1984
1808,1817,1802
1603,1715,1786
1899,1754,1526
1892,1763,1508
1773,1874,1907
1680,1911,2231
2134,2015,1973
2405,1916,1653
1366,1646,1634
1296,1808,1805
1754,1902,1824
1890,1787,1699
2150,1905,1983
1938,1808,1841
1642,1779,1749
1516,1678,1759
2743,2232,2005
2090,1834,1691
1012,1599,1616
1173,1686,1810
1693,1843,1910
2067,1910,1936
1876,1823,1699
1784,1809,1705
2033,1904,1872
2014,1892,1814
1626,1773,1859
1392,1749,1791
1570,1839,1885
1754,1859,1881
1792,1799,1774
1822,1825,1767
1795,1872,1847
1782,1860,1882
1792,1840,1807
1917,1875,1772
1847,1866,1797
1697,1815,1824
1662,1790,1799
1744,1797,1807
1795,1924,1873
1795,1855,1845
1824,1863,1819
1824,1877,1807
1794,1878,1887
1765,1831,1840
1783,1770,1758
1808,1780,1746
1806,1875,1840
1808,1875,1882
1817,1837,1822
1833,1879,1808
1793,1835,1845
1802,1847,1867
1853,1815,1822
1868,1895,1816
1793,1822,1821
1779,1835,1837
1816,1777,1793
1851,1868,1815
1858,1841,1879
1862,1890,1904
1845,1825,1798
1825,1824,1765
1867,1861,1886
1841,1843,1886
1838,1744,1818
1851,1794,1817
1854,1830,1881
1871,1835,1914
1872,1802,1837
1901,1806,1856
1909,1874,1943
1915,1865,1958
1887,1808,1856
1894,1801,1831
1926,1869,1938
1904,1857,1929
1893,1778,1853
1903,1770,1859
1920,1844,1968
1936,1823,1977
1910,1803,1882
1923,1870,1889
1920,1841,1963
1934,1843,1980
1936,1808,1909
1950,1829,1911
1950,1862,1969
1935,1840,1985
1921,1808,1909
1936,1827,1917
1962,1917,2000
1959,1904,1991
1950,1818,1905
1937,1839,1889
1966,1916,1991
1931,1856,1983
1898,1811,1876
1924,1837,1890
1954,1869,1985
1957,1879,1998
1942,1827,1924
1957,1889,1931
1957,1919,2009
1958,1894,2000
1970,1885,1931
1991,1898,1949
1966,1902,2003
1958,1936,2011
1978,1894,1957
1979,1920,1951
2014,1977,2047
2015,1986,2045
1906,1841,1873
1904,1826,1873
1949,1898,1981
1982,1936,2023
1989,1918,1957
1983,1917,1950
1965,1921,1993
1953,1920,2000
1977,1897,1948
2018,1938,1974
1985,1959,2020
1961,1904,1988
1979,1893,1936
2001,1886,1967
1991,1930,2023
1978,1899,2025
1995,1935,1963
1983,1917,1953
1998,1959,2035
1968,1943,2016
1957,1931,1935
1997,1913,1967
1961,1853,2000
1971,1955,2023
1968,1933,1939
1961,1919,1925
1953,1920,1981
1945,1910,1984
1971,1904,1935
2007,1942,1951
1998,1968,2006
1968,1942,1995
1971,1874,1933
2006,1937,1950
1991,1961,2002
1967,1951,1991
1970,1922,1921
2011,1984,1967
2021,1986,2047
1936,1875,1968
1904,1846,1873
1945,1893,1910
1964,1908,1997
1959,1985,2000
1968,1934,1936
1999,1986,1952
1983,1947,2007
1957,1951,1986
1966,1885,1925
1970,1946,1927
1955,1889,1978
1947,1877,1984
1967,1913,1925
1977,1860,1936
1973,1955,1997
1968,1966,1995
1984,1923,1939
2032,1985,1981
1984,1974,2000
1885,1937,1919
1900,1847,1868
1958,1843,1904
1984,1977,2004
1947,1933,1972
1930,1881,1895
1967,1905,1916
1964,1939,1973
1965,1951,1988
1956,1923,1911
1950,1895,1898
1942,1965,1955
1951,1933,1970
1969,1857,1910
1959,1903,1897
1953,1936,1957
1955,1930,1969
1968,1885,1911
1989,1902,1909
1952,1943,1947
1915,1874,1920
1939,1881,1874
1968,1872,1903
1987,2003,1995
1969,1945,1982
1923,1843,1870
1926,1871,1872
1936,1990,1939
1939,1913,1945
1951,1899,1888
1953,1885,1887
1936,1906,1937
1937,1915,1941
1960,1903,1892
1984,1936,1908
1964,1957,1962
1951,1917,1958
1906,1840,1840
1920,1853,1854
1934,1903,1938
1937,1910,1953
1962,1904,1903
1968,1920,1904
1894,1901,1917
1901,1883,1921
1949,1904,1904
1936,1876,1877
1935,1920,1937
1925,1930,1931
1887,1852,1840
1888,1839,1835
1902,1879,1909
1915,1906,1943
1957,1911,1917
1930,1899,1872
1894,1903,1898
1890,1904,1904
1891,1864,1855
1917,1886,1873
1923,1933,1946
1909,1913,1926
1922,1882,1861
1926,1899,1863
1888,1907,1915
1887,1888,1913
1904,1879,1856
1943,1915,1879
1902,1904,1901
1886,1893,1892
1904,1879,1847
1936,1920,1885
1874,1883,1882
1855,1858,1866
1883,1862,1835
1922,1897,1856
1927,1933,1931
1911,1920,1920
1887,1857,1824
1881,1849,1811
1899,1909,1902
1926,1939,1934
1922,1903,1867
1886,1867,1819
1915,1934,1907
1851,1865,1858
1856,1821,1787
1884,1854,1823
1902,1895,1899
1904,1909,1910
1906,1887,1854
1893,1861,1829
1869,1873,1871
1871,1879,1880
1873,1846,1819
1899,1879,1837
1895,1919,1904
1876,1895,1888
1887,1872,1829
1894,1890,1837
1915,1953,1911
1855,1881,1869
1853,1834,1792
1879,1867,1825
1867,1889,1882
1845,1861,1857
1850,1837,1789
1895,1874,1829
1881,1909,1885
1863,1892,1875
1867,1859,1807
1901,1877,1822
1899,1921,1901
1881,1904,1888
1851,1856,1806
1867,1879,1810
1903,1942,1911
1856,1893,1867
1815,1824,1763
1838,1847,1786
1857,1898,1872
1858,1890,1874
1861,1869,1806
1888,1919,1825
1873,1906,1872
1839,1875,1862
1833,1841,1787
1867,1869,1811
1868,1915,1887
1858,1914,1883
1861,1873,1815
1837,1855,1779
1857,1920,1875
1836,1893,1861
1797,1808,1757
1839,1856,1790
1839,1898,1867
1823,1886,1857
1836,1856,1788
1859,1872,1807
1856,1906,1873
1855,1904,1875
1857,1875,1803
1855,1867,1798
1838,1886,1845
1810,1864,1831
1829,1842,1777
1861,1865,1803
1853,1905,1865
1870,1939,1899
1890,1921,1843
1805,1808,1749
1791,1840,1807
1831,1878,1853
1850,1858,1796
1847,1856,1793
1830,1882,1847
1811,1876,1843
1824,1849,1786
1866,1883,1808
1872,1926,1883
1853,1910,1872
1825,1847,1787
1838,1858,1791
1815,1874,1831
1811,1869,1827
1830,1846,1782
1843,1860,1803
1853,1927,1893
1845,1913,1883
1818,1839,1780
1811,1838,1770
1822,1886,1854
1840,1930,1884
1824,1857,1782
1822,1839,1776
1827,1886,1862
1821,1879,1851
1812,1847,1778
1824,1856,1791
1813,1889,1846
1816,1898,1888
1834,1865,1801
1835,1872,1847
1830,1904,1870
1816,1893,1856
1830,1869,1774
1858,1904,1876
1840,1897,1914
1779,1851,1808
1804,1856,1796
1837,1874,1856
1819,1898,1872
1803,1886,1872
1838,1883,1767
1839,1882,1780
1840,1910,1862
1801,1872,1853
1811,1867,1777
1833,1877,1798
1853,1931,1872
1824,1917,1863
1783,1834,1741
1798,1845,1757
1830,1915,1859
1817,1891,1841
1807,1857,1778
1844,1903,1808
1808,1895,1856
1793,1896,1783
1808,1856,1782
1836,1875,1798
1845,1936,1903
1813,1901,1878
1798,1851,1781
1809,1859,1774
1819,1905,1862
1805,1902,1844
1808,1874,1795
1815,1877,1801
1799,1894,1866
1803,1888,1869
1826,1869,1852
1853,1904,1881
1847,1934,1968
1800,1897,1952
1808,1872,1890
1824,1869,1901
1826,1920,1970
1779,1883,1951
1798,1855,1904
1837,1872,1937
1840,1922,2025
1829,1920,1991
1859,1906,1968
1905,1936,1991
1765,1860,1909
1754,1861,1936
1790,1857,1915
1793,1860,1937
1807,1904,1962
1795,1883,1968
1810,1867,1910
1826,1887,1883
1820,1920,1941
1815,1917,2014
1837,1909,1936
1815,1888,1907
1830,1927,2000
1839,1939,1995
1791,1862,1885
1766,1840,1840
1787,1890,2000
1808,1904,2000
1841,1898,1933
1859,1918,1937
1840,1939,1941
1783,1882,1929
1795,1856,1837
1821,1872,1879
1839,1946,1993
1795,1891,1933
1813,1872,1867
1840,1901,1882
1810,1907,1929
1793,1894,1922
1811,1859,1877
1849,1897,1878
1829,1942,1914
1791,1899,1911
1789,1853,1829
1840,1897,1874
1867,1968,1965
1840,1955,1947
1744,1822,1712
1761,1840,1792
1801,1898,1839
1810,1904,1923
1835,1888,1851
1830,1894,1829
1827,1931,1904
1837,1939,1920
1826,1885,1850
1824,1895,1843
1793,1900,1877
1806,1903,1883
1838,1891,1840
1835,1904,1843
1828,1926,1911
1830,1937,1905
1855,1936,1855
1838,1901,1859
1771,1868,1863
1774,1872,1822
1793,1837,1771
1822,1861,1795
1812,1904,1872
1799,1889,1855
1838,1884,1840
1832,1875,1840
1817,1904,1931
1810,1893,1886
1809,1867,1782
1834,1875,1799
1830,1911,1904
1840,1911,1873
1822,1871,1855
1823,1875,1788
1811,1895,1856
1827,1904,1881
1852,1891,1873
1811,1848,1748
1795,1872,1831
1811,1894,1841
1825,1863,1797
1840,1874,1827
1826,1906,1858
1810,1904,1852
1808,1852,1703
1858,1895,1885
1839,1904,1861
1811,1886,1850
1828,1889,1788
1847,1903,1813
1811,1879,1840
1808,1866,1873
1819,1847,1780
1853,1893,1869
1863,1941,1914
1811,1887,1844
1804,1837,1790
1841,1883,1855
1817,1909,1855
1802,1909,1830
1783,1830,1769
1808,1840,1776
1819,1894,1859
1819,1903,1869
1838,1871,1808
1840,1872,1813
1829,1904,1855
1840,1918,1839
1847,1878,1792
1812,1862,1760
1809,1887,1872
1810,1877,1840
1838,1851,1821
1837,1871,1797
1838,1909,1856
1834,1900,1859
1835,1860,1795
1853,1871,1810
1840,1904,1862
1808,1872,1850
1803,1827,1765
1843,1872,1794
1870,1930,1902
1799,1861,1840
1798,1850,1779
1827,1869,1804
1855,1913,1882
1829,1929,1879
1808,1872,1778
1825,1839,1782
1819,1858,1850
1815,1866,1858
1838,1858,1815
1873,1897,1827
1814,1904,1856
1797,1865,1849
1830,1834,1799
1891,1895,1866
1822,1881,1872
1776,1851,1840
1822,1849,1791
1837,1867,1808
1829,1933,1887
1853,1883,1867
1849,1822,1783
1817,1872,1823
1841,1877,1854
1830,1847,1833
1840,1834,1791
1821,1862,1811
1845,1899,1899
1852,1869,1870
1845,1840,1793
1872,1872,1819
1781,1891,1874
1863,1878,1865
1870,1887,1822
1872,1929,1845
1830,1870,1857
1829,1873,1869
1843,1842,1813
1838,1821,1831
1831,1856,1872
1813,1841,1825
1808,1831,1761
1823,1845,1810
1870,1909,1902
1840,1862,1854
1799,1796,1754
1829,1831,1783
1825,1899,1872
1840,1858,1863
1840,1820,1802
1893,1856,1830
1891,1904,1923
1811,1892,1870
1867,1861,1786
1843,1918,1824
1814,1872,1831
1808,1840,1855
1819,1783,1799
1854,1808,1826
1845,1850,1866
1839,1883,1906
1812,1831,1793
1813,1840,1778
1823,1862,1840
1840,1859,1858
1843,1827,1794
1857,1840,1808
1865,1869,1856
1875,1895,1892
1855,1845,1815
1839,1854,1809
1844,1909,1898
1845,1890,1873
1874,1840,1797
1890,1835,1799
1842,1902,1858
1785,1929,1847
1792,1815,1775
1842,1765,1791
1809,1872,1871
1825,2096,1937
1841,1872,1872
1776,1693,1815
1795,1730,1867
1833,1824,1911
1879,1819,1862
1813,1813,1856
1827,1888,1967
1776,1867,1933
1811,1824,1859
1872,1854,1878
1826,1872,1895
1788,1871,1950
1805,1856,1921
1817,1855,1904
1799,1847,1920
1818,1856,1975
1830,1837,1946
1843,1872,1946
1861,1937,2018
1838,1910,2000
1815,1800,1926
1857,1863,1943
1824,1902,1994
1873,1861,1943
1851,1884,1914
1904,1808,1927
1936,1821,1995
1856,1823,1967
1808,1776,1904
1907,1872,1982
1878,1840,1969
1791,1776,1968
1833,1778,1983
1881,1862,2069
1834,1919,2223
1800,1813,2335
1933,1925,2403
1923,1986,2429
1803,1776,2441
1734,1744,2475
1774,1945,2490
1865,2001,2529
1856,1753,2530
1894,1795,2623
1762,1814,2533
1721,1724,2505
1833,1828,2642
2000,1891,2704
1856,1835,2533
1968,1921,2558
1910,1886,2677
1701,1728,2512
1502,1711,2407
1680,1795,2547
1877,1967,2734
1996,1934,2707
1779,1759,2474
1689,1809,2415
1869,1960,2591
1808,1973,2622
1814,1872,2459
1788,1903,2445
1955,2034,2602
2155,2080,2656
1776,1882,2365
1746,1936,2307
2060,2154,2544
2383,2128,2559
1855,1922,2355
1558,1975,2355
1786,2096,2471
1680,2031,2401
1716,1999,2320
1933,2236,2514
2018,2269,2658
1713,2133,2399
2326,2325,2588
2085,2103,2318
1829,2166,2305
1968,2217,2279
1633,2034,2349
1563,2043,2204
1829,2142,2363
1911,2179,2491
2197,2313,2542
2035,2288,2299
1814,2177,2066
1757,2025,2096
1627,2035,2365
1791,2225,2363
1931,2155,2289
2066,2115,2234
1568,2005,2102
1707,2138,2250
2159,2304,2271
1872,2256,2021
1607,2084,1798
1966,2215,1926
2032,2131,1781
1675,1895,1442
1669,1995,1424
1636,2086,1424
1835,2114,1488
1810,2141,1443
1771,2090,1171
2272,2303,1346
1995,2067,1136
1627,2000,1279
1584,1996,986
1854,1991,946
1947,1927,1177
2214,2288,1522
2320,2160,1009
1465,1937,719
1457,2014,942
1591,1913,955
2148,1900,959
2209,2040,1077
1705,2081,1040
2135,2288,1412
1783,1795,497
1222,1747,555
1479,1984,843
2101,2096,1069
2144,1887,671
1691,1837,467
1645,1872,790
1967,2090,1117
1793,1815,755
1780,1805,371
2351,1951,755
1819,1883,699
1295,1776,492
2419,2117,896
2046,1844,687
1116,1681,614
1445,1772,738
2301,1886,767
1935,1815,592
1359,1827,769
2112,1997,1110
2141,1839,669
1873,1904,614
1813,1741,727
1703,1616,707
1763,1839,870
1655,1776,710
1740,1829,903
2037,1698,671
2191,1657,619
1570,1738,953
1518,1726,994
1936,1730,790
2178,1846,1055
1672,1669,876
1504,1745,863
1882,1744,946
1987,1657,891
1703,1654,818
1707,1763,1073
2220,1603,885
1563,1662,754
1872,1892,1252
2031,1765,1233
1614,1564,1089
2263,1732,1228
1535,1517,721
1225,1719,842
2219,1744,1068
2084,1535,976
1141,1562,1132
2117,1963,1585
2708,1697,1045
1364,1367,655
1099,1503,1103
2382,1851,1460
2039,1699,1105
1252,1570,989
1705,1727,1296
2081,1628,1316
2148,1711,1283
1763,1483,1041
1626,1658,1136
1835,1600,966
1403,1593,1470
1505,1583,1393
2102,1701,1226
1906,1689,1251
1939,1569,1117
1863,1632,1378
1991,1652,1407
1423,1589,1403
1432,1535,1568
1595,1664,1307
2055,1791,1392
2448,1679,1325
1813,1521,1383
1070,1424,1270
1770,1743,1466
1872,1616,1345
1615,1527,1414
1563,1605,1554
1887,1678,1403
1854,1625,1423
1808,1535,1332
1743,1619,1503
1778,1709,1683
1872,1680,1434
1712,1562,1335
1505,1511,1451
1535,1591,1517
1881,1666,1627
1827,1584,1392
1799,1535,1443
2282,1711,1599
1799,1609,1424
1360,1504,1424
1520,1584,1591
1594,1618,1736
1778,1770,1598
2161,1750,1476
2171,1697,1424
2065,1657,1587
1370,1428,1346
1377,1535,1366
1819,1639,1478
1931,1646,1766
1522,1606,1588
1824,1712,1523
2191,1766,1614
1952,1695,1511
1637,1607,1712
1732,1598,1469
1953,1670,1413
2095,1611,1451
1527,1648,1811
1385,1629,1626
1507,1681,1583
1872,1761,1728
1845,1664,1567
1602,1653,1553
2097,1817,1775
2559,1812,1719
1469,1489,1390
965,1584,1615
1330,1648,1718
1898,1785,1763
2105,1778,1681
2160,1726,1772
1527,1494,1429
1379,1593,1637
1589,1755,1802
1945,1824,1783
2245,1798,1664
1858,1631,1639
1516,1649,1961
2034,1778,1979
2235,1714,1674
1462,1712,1623
1423,1728,1682
2635,2006,2045
2095,1665,1755
1338,1729,1663
1571,1634,1658
1827,1688,1815
1777,1802,1885
1989,1878,2164
2304,1878,1957
1979,1701,1504
1215,1577,1713
1357,1754,2053
1984,1838,1966
1849,1693,1712
1793,1699,1680
1801,1798,1996
2367,2035,2224
2064,1808,1910
1727,1773,1712
1479,1744,1777
1605,1733,1847
1648,1775,1981
1855,1770,1939
1958,1878,1978
1691,1789,2030
1680,1728,1908
1872,1805,2047
1822,1831,1874
1837,1838,1911
1733,1786,1914
1661,1727,1936
1700,1769,2099
1904,1782,2022
2173,1904,1947
2335,1903,1949
1789,1895,1918
1491,1794,2032
1584,1680,2091
2093,1901,2146
1963,1920,1903
1741,1890,2079
2273,1853,1985
2188,1711,2042
1634,1840,2022
1319,1853,2099
1498,1796,2021
2096,1918,1997
2613,1959,2149
2054,1751,1863
1477,1722,1872
1711,1883,2151
1967,1917,2139
1735,1835,2209
1814,1822,2043
1862,1828,1971
2026,1999,2061
2342,1913,2067
1751,1751,1936
1430,1845,2131
1698,1894,2176
2127,1914,2237
2685,1872,1923
1936,1750,1947
1281,1776,1958
1206,1762,2076
1843,1886,2144
2221,2043,2275
1919,1972,2160
2214,1973,2173
2319,1793,1920
1535,1728,1817
1394,1840,2161
1859,1906,2217
2305,1844,1958
1936,1826,1969
1823,1946,2226
2094,1859,2126
2125,1921,2176
1644,1759,1876
1523,1925,2016
1955,2006,2186
2545,2000,2347
2000,1682,1941
1264,1792,1957
1490,1774,2160
1792,1843,2128
2019,1940,2077
2223,1938,2064
2021,1947,2146
1667,1869,2001
1712,1888,2085
2160,1989,2182
1992,1892,2015
1662,1813,2021
1743,1828,2126
1990,1863,2150
2033,1805,1958
2074,1829,1827
1798,1930,2171
1746,1905,2215
1937,1915,2095
2021,1970,2115
2147,1833,2002
1744,1986,2134
1703,1981,2161
1951,1936,2118
2022,1921,2133
1711,1872,2057
1739,1899,2019
1904,1769,1936
2126,1981,2175
1850,1866,2202
1969,1921,2065
1962,1856,1933
1843,1870,2065
1863,1947,2077
2133,2078,2165
1894,1840,1872
1680,1905,2047
1839,1927,2207
1840,1969,2110
2178,1927,2064
2319,1965,2102
1815,1968,2140
1648,1895,2155
1616,1851,1953
1968,1911,1972
1905,1803,1978
2106,1909,2083
2039,1946,2234
1821,1875,2046
1727,1873,1941
1887,1945,2179
1945,1840,2054
1857,1891,1930
1931,1866,1943
2325,1958,2112
1902,1833,1943
1600,1867,2119
1775,1871,2074
1687,1905,1991
2001,1907,2142
2510,1986,2105
2026,1846,1792
1608,1858,1986
1600,1831,2029
1858,1982,2032
2004,1947,2115
1855,1921,2121
1926,1839,1988
2022,1798,1799
1811,1791,2023
2201,2093,2298
1857,1871,1902
1702,1870,1970
1775,1855,2005
1881,1904,2084
2063,1915,1963
1991,1868,1965
2126,2002,2094
2123,1883,1954
1581,1785,1892
1834,1881,2171
2239,1877,1911
1776,1782,1914
1488,1831,1947
1875,1917,1995
2250,1861,1990
1753,1815,2037
1506,1909,2090
1811,1938,2009
2201,2002,2057
2009,1920,1901
1991,1914,2039
1765,1770,1955
2100,1937,2000
2181,1908,1917
1710,1798,2029
1599,1725,1885
1557,1867,1973
1991,1937,1984
2090,1887,1963
2017,1942,2021
1779,1835,2017
1856,1909,2032
2067,1882,1886
1753,1823,1911
1929,1883,2023
2406,1963,2077
2318,1932,1921
1553,1856,2017
1565,1840,1971
2096,1877,1971
1695,1713,1797
1678,1859,1901
1825,1881,1959
2047,1936,2017
2067,1839,2042
2110,1931,2081
2405,1926,1808
1602,1778,1699
1239,1739,1856
1767,1857,2035
2226,2014,2026
2017,1854,1873
1846,1769,1840
1694,1863,2000
1904,1929,2032
2118,1856,1961
1792,1748,1844
1678,1847,1859
1809,1949,2034
2215,2009,2096
2092,1883,1864
1808,1792,1911
1776,1802,1847
1813,1826,1782
1933,1906,2032
1715,1849,1984
1809,1899,1958
2203,1941,1937
2160,1847,1911
1758,1761,1870
1607,1870,1991
1665,1794,1759
1852,1792,1869
2236,2032,2091
2417,1934,1889
1520,1776,1783
1345,1786,1886
1973,1926,2179
2090,1899,1951
2064,1847,1855
1806,1754,1807
1668,1823,1973
2059,2027,2140
1997,1814,1717
1661,1786,1686
1947,1909,1963
1881,1911,1984
1859,1883,1995
2037,1811,1984
1995,1866,1875
1666,1915,1948
1728,1973,2016
2057,1872,1872
2460,1905,1871
1749,1806,1872
1341,1847,1945
1707,1853,1888
2259,1871,1839
2057,1830,1929
1808,1856,1942
2059,1849,1796
1985,1909,1889
1613,1891,2030
1456,1801,1840
1835,1805,1771
2417,2035,2055
2282,1998,2128
1840,1839,1729
1580,1712,1703
1530,1881,1962
1776,1898,1984
2042,1920,1921
2237,1902,1955
2120,1958,1904
1841,1857,1701
2128,1905,1779
1763,1812,1863
1535,1890,2039
2221,2068,2190
2255,1756,1535
1937,1759,1618
1535,1904,2002
1618,1904,2161
1999,1878,1993
2112,1886,1846
2139,1952,1808
1941,1865,1813
1577,1767,1902
1989,1889,1919
2087,1877,1834
1663,1897,1891
1731,1847,1837
2138,1911,1967
2122,1927,1941
1601,1802,1780
1710,1877,1808
1835,1819,1807
1955,1847,1855
2077,1970,2076
1973,1861,1893
1678,1811,1785
1939,1883,1786
1997,1936,1949
1811,1907,1931
2016,1901,1954
2197,1749,1591
1732,1810,1838
1768,1887,1918
1946,1863,1798
2535,2014,1999
1739,1921,1889
1349,1962,2148
1685,1774,1748
2005,1851,1843
1877,1799,1791
1910,1890,1899
2103,1955,1867
1774,1843,1755
1456,1838,1936
1680,1866,1934
1904,1886,1823
2128,1939,1958
2369,1933,1818
1667,1809,1735
1414,1828,1871
2038,1938,1980
2055,1801,1602
1776,1779,1646
1794,1942,2019
1879,1974,2191
2123,1950,1941
1834,1786,1520
1617,1831,1633
1861,1830,1856
2027,1968,2173
1757,1847,1809
1840,1802,1678
2029,1895,1802
1950,1952,2098
1659,1891,1904
1685,1911,1861
2058,1903,1728
2241,1839,1741
1885,1829,1841
1535,1779,1883
1854,1872,1959
2004,1855,1711
1744,1893,1822
1727,1903,1925
1873,1890,1933
2343,1874,1744
2750,2007,1853
2066,1755,1774
1058,1740,1784
1136,1888,1893
1698,1877,1936
2149,1799,1875
1872,1883,1909
1879,2003,1877
2073,1883,1643
1981,1794,1713
1786,1840,1874
1844,1919,1937
1868,1889,1856
1583,1851,1934
1762,1904,1989
2134,1849,1815
2983,1922,1762
1485,1719,1614
989,1712,1726
1653,1948,1919
2371,1934,1830
1831,1865,1907
1775,1875,1871
1748,1903,1842
2038,1882,1904
1725,1766,1714
1857,1894,1807
1862,1888,1856
1797,1825,1682
1996,1892,1854
1872,1813,1763
2289,1968,2007
1764,1823,1766
1447,1786,1750
1522,1846,1949
2276,1920,1941
2217,1840,1631
1584,1766,1712
1793,1887,2013
2645,2025,1961
2227,1961,1904
1387,1722,1634
1223,1756,1797
1904,1993,2086
2073,1919,1936
2113,1872,1818
2145,1843,1811
1530,1808,1839
1374,1789,1642
1744,1837,1792
2157,1861,1850
2059,1921,2022
1844,1913,1984
2062,1830,1775
2072,1794,1680
1648,1889,1874
1585,1875,2029
1951,1895,1873
2228,1910,1824
1675,1814,1818
1623,1850,1835
1726,1825,1742
2105,1930,1865
1980,1935,1907
1716,1849,1879
2071,1798,1782
1797,1851,1909
1983,1933,1921
1839,1760,1735
1693,1872,1839
1707,1815,1776
1725,1876,1921
2067,1902,1869
1973,1903,1871
1946,1879,1981
1941,1891,1819
1904,1874,1840
1936,1890,1940
1579,1825,1774
1486,1883,1891
2064,1930,1863
2107,1811,1708
1633,1772,1840
1639,1915,1979
2126,1940,1952
2032,1849,1654
1648,1845,1796
1715,1919,2037
1691,1872,1957
2309,1920,1739
1929,1804,1669
1613,1895,2035
1741,1890,1983
2192,1915,1808
2241,1933,1755
1584,1742,1740
1407,1794,1920
1810,1838,1921
2070,1835,1675
1904,1914,1994
1888,1990,2061
1795,1872,1840
1703,1831,1802
2019,1856,1806
2199,1935,1930
1904,1776,1794
1635,1793,1808
1833,1872,1962
2053,1919,1837
2133,1935,1830
1712,1862,1943
1819,1970,1979
1878,1902,1773
1863,1819,1607
1907,1872,1767
1725,1809,1920
1717,1830,1955
1888,1894,1947
2032,1854,1822
1968,1910,1819
1757,1808,1745
1918,1923,1968
2316,2037,2045
1919,1862,1815
1675,1795,1855
1721,1769,1767
1781,1897,1819
1899,1948,1814
2000,1956,1951
2205,1899,1789
1767,1811,1801
1818,1894,2030
1729,1797,1724
1869,1853,1835
2262,1831,1843
1755,1807,1863
1622,1872,1799
2031,1978,1931
2091,1790,1689
1707,1815,1846
1584,1879,1941
2019,1903,1856
2039,1902,1872
2061,1904,1921
2234,2000,1939
1852,1808,1686
1408,1762,1808
1588,1840,1856
1879,1855,1855
1934,1854,1825
2163,1835,1733
2071,1839,1825
1671,1892,1986
2051,1936,1954
1769,1763,1639
1535,1894,1851
1856,1894,1962
1809,1806,1770
2001,1875,1834
2579,1950,1818
1870,1767,1744
1331,1779,1801
1522,1856,1821
1883,1854,1771
1943,1952,2034
1872,1860,1840
1971,1947,2032
1958,1844,1858
2080,1808,1648
1682,1747,1661
1629,1926,2045
1905,1998,1983
2079,1830,1818
1922,1725,1619
1632,1933,1872
1716,1958,1935
2010,1863,1951
2244,1737,1535
1901,1886,1861
1579,1872,1959
1650,1903,1885
2310,1888,1818
1975,1865,1845
1680,1840,1747
1581,1870,1850
1995,1809,1748
1877,1869,1950
1765,1895,1902
1603,1802,1746
2083,1967,1930
2637,1997,1899
1746,1739,1705
1260,1771,1777
1803,1876,1839
1918,1909,1949
1962,1834,1849
1789,1806,1806
2156,1904,1801
2047,1862,1808
1583,1813,1942
1643,1849,1933
2115,1984,1869
2134,1807,1616
1764,1858,1845
1917,1875,1866
1762,1907,1967
1743,1938,1920
1853,1869,1975
2597,1827,1775
1978,1721,1411
1268,1827,1793
1333,1914,2190
1829,1920,2010
2707,1872,1649
1915,1794,1666
1594,1888,1967
2461,1824,1711
1739,1909,2003
1403,1936,2061
1585,1840,1747
2027,1823,1703
2261,1921,1871
1869,1869,1820
1779,1887,1851
1827,1793,1709
1992,1850,1869
1744,1869,1915
1776,1835,1766
1732,1817,1723
1855,1935,1984
2021,1886,1904
1859,1943,1935
1967,1917,1871
1891,1802,1719
1557,1867,1840
1817,1876,1780
2053,1937,1963
1767,1870,1838
1712,1808,1803
1877,1826,1820
2019,1904,1915
1908,1878,1717
1557,1840,1772
1804,1885,1797
2192,1897,1823
1998,1854,1839
2345,2032,1993
2111,1906,1883
1388,1773,1798
1456,1777,1855
1600,1851,1831
2363,1927,1746
2455,1911,1653
1326,1758,1853
1269,1781,1927
2032,1938,1948
1986,1905,1968
1823,1817,1794
1820,1885,1721
1888,1923,1862
1975,1892,1914
1808,1893,1831
1835,1872,1883
2083,2021,2054
1735,1834,1694
1608,1654,1669
1613,1888,1965
1977,1971,1926
1973,1875,1620
1958,1871,1827
1679,1822,1925
1641,1849,1936
1783,1906,1863
2230,1975,1866
2715,1924,1923
1554,1767,1718
1056,1827,1837
1554,1849,1790
1957,1909,1876
2480,1988,1927
1949,1824,1840
1314,1746,1840
1506,1859,1869
1927,2011,1991
2224,1877,1776
2181,1904,1906
1899,1718,1751
1382,1775,1792
1798,1913,1799
2327,1907,1765
1904,1911,1997
1477,1865,1911
1751,1858,1798
1936,1818,1855
1691,1863,1887
2009,1946,1883
2150,1856,1840
1600,1733,1695
1579,1842,1846
2103,2001,1947
2053,1835,1837
1406,1735,1798
1574,1887,1951
2966,2143,2208
1909,1639,1515
1072,1680,1648
1389,1803,1821
1855,1887,1958
2119,1968,2031
1856,1819,1791
1808,1808,1813
2003,1873,1878
2220,1943,1942
1986,1821,1814
1516,1758,1691
1601,1871,1890
2045,1865,1938
1747,1785,1833
1580,1809,1853
1895,1842,1954
2254,1853,1814
1934,1869,1776
