1826,1794,1791
1840,1822,1849
1841,1846,1889
1813,1827,1841
1850,1853,1837
1842,1846,1859
1829,1821,1866
1791,1763,1776
1807,1779,1776
1859,1842,1853
1831,1840,1872
1814,1805,1808
1830,1808,1785
1840,1851,1857
1852,1877,1904
1841,1834,1809
1826,1788,1758
1813,1834,1838
1819,1867,1895
1834,1831,1827
1849,1812,1776
1839,1851,1846
1831,1872,1889
1814,1813,1792
1833,1811,1775
1854,1862,1851
1838,1853,1877
1783,1780,1782
1809,1789,1763
1837,1849,1845
1829,1859,1872
1830,1823,1809
1818,1817,1775
1840,1858,1851
1820,1857,1873
1840,1856,1840
1846,1840,1789
1853,1873,1839
1795,1843,1834
1790,1810,1776
1847,1840,1780
1853,1871,1839
1823,1873,1859
1807,1859,1822
1792,1830,1779
1816,1862,1827
1820,1881,1862
1871,1915,1855
1783,1794,1740
1765,1800,1772
1807,1849,1841
1809,1849,1807
1849,1866,1803
1859,1907,1871
1808,1875,1856
1817,1857,1808
1841,1865,1785
1804,1866,1807
1791,1869,1830
1822,1854,1786
1853,1858,1770
1808,1869,1808
1807,1882,1842
1803,1856,1788
1823,1853,1766
1827,1887,1827
1809,1889,1855
1821,1870,1799
1831,1866,1774
1839,1894,1830
1826,1893,1859
1806,1868,1799
1816,1840,1744
1840,1886,1821
1840,1907,1861
1817,1858,1793
1825,1830,1744
1849,1861,1786
1794,1866,1824
1776,1839,1773
1819,1858,1759
1840,1904,1837
1837,1920,1874
1828,1866,1794
1784,1849,1755
1773,1861,1808
1786,1875,1841
1806,1849,1781
1840,1863,1769
1818,1870,1808
1802,1872,1830
1807,1861,1835
1833,1868,1790
1824,1890,1843
1818,1905,1853
1847,1886,1789
1835,1845,1728
1804,1877,1777
1781,1891,1882
1808,1870,1821
1830,1875,1769
1855,1921,1841
1800,1885,1851
1781,1840,1738
1797,1845,1743
1867,1927,1858
1821,1905,1825
1739,1805,1727
1775,1810,1725
1792,1869,1807
1827,1902,1857
1809,1858,1780
1831,1879,1737
1819,1883,1816
1787,1881,1842
1810,1858,1791
1821,1856,1733
1835,1906,1874
1843,1941,1856
1813,1867,1791
1792,1839,1731
1796,1871,1803
1808,1883,1835
1846,1871,1801
1837,1856,1743
1817,1882,1808
1779,1879,1875
1759,1841,1774
1804,1851,1792
1819,1885,1827
1806,1895,1882
1795,1869,1778
1835,1872,1776
1827,1886,1819
1806,1892,1854
1813,1861,1808
1831,1869,1777
1827,1892,1854
1833,1904,1855
1829,1874,1846
1809,1851,1808
1844,1903,1893
1812,1885,1810
1788,1828,1835
1798,1824,1759
1847,1893,1845
1854,1931,1935
1787,1840,1799
1781,1828,1734
1822,1871,1801
1808,1877,1827
1811,1850,1801
1824,1843,1808
1811,1866,1830
1779,1873,1836
1808,1879,1822
1847,1879,1791
1819,1872,1822
1777,1850,1778
1803,1837,1776
1837,1858,1789
1840,1887,1852
1813,1881,1843
1822,1856,1793
1829,1840,1771
1837,1872,1826
1856,1909,1857
1827,1878,1833
1776,1835,1759
1798,1865,1814
1781,1854,1826
1799,1830,1785
1828,1840,1760
1859,1909,1865
1808,1889,1874
1808,1857,1824
1808,1843,1754
1818,1878,1850
1841,1887,1849
1845,1865,1811
1826,1867,1885
1824,1885,1825
1801,1873,1865
1795,1838,1787
1826,1840,1769
1874,1898,1856
1834,1901,1878
1810,1868,1815
1805,1854,1776
1805,1874,1837
1792,1870,1851
1813,1850,1811
1855,1872,1773
1838,1888,1840
1789,1876,1843
1807,1854,1766
1826,1853,1789
1831,1891,1851
1830,1916,1922
1840,1886,1808
1834,1851,1772
1840,1879,1871
1839,1885,1849
1848,1867,1785
1827,1865,1754
1837,1899,1856
1801,1895,1877
1793,1856,1809
1823,1849,1733
1833,1894,1834
1839,1910,1889
1814,1857,1787
1822,1854,1835
1845,1917,1850
1866,1940,1930
1808,1855,1808
1825,1867,1802
1824,1873,1839
1796,1871,1834
1813,1846,1839
1841,1857,1784
1853,1893,1830
1811,1886,1894
1819,1853,1806
1851,1872,1808
1871,1915,1866
1812,1892,1872
1786,1840,1781
1839,1860,1781
1871,1903,1887
1850,1889,1856
1827,1858,1795
1817,1870,1804
1831,1907,1845
1829,1910,1885
1840,1881,1824
1854,1882,1794
1861,1934,1883
1821,1904,1909
1808,1858,1795
1872,1886,1779
1817,1872,1842
1810,1867,1828
1818,1866,1826
1840,1872,1798
1869,1907,1873
1831,1893,1843
1811,1846,1778
1821,1840,1772
1821,1878,1783
1810,1894,1871
1826,1872,1825
1845,1865,1763
1850,1893,1847
1838,1902,1881
1854,1888,1835
1872,1890,1825
1869,1916,1879
1879,1926,1902
1827,1871,1809
1779,1830,1753
1808,1877,1836
1825,1887,1882
1840,1867,1826
1852,1856,1795
1862,1904,1874
1835,1899,1892
1808,1859,1810
1823,1854,1777
1851,1904,1866
1850,1904,1894
1837,1847,1808
1837,1852,1789
1840,1887,1841
1854,1897,1885
1883,1874,1828
1885,1847,1780
1795,1850,1818
1779,1879,1871
1834,1899,1856
1866,1900,1836
1834,1881,1840
1826,1872,1857
1829,1871,1811
1904,1887,1821
1813,1904,1863
1863,1902,1875
1821,1870,1818
1905,1899,1827
1904,1919,1874
1831,1890,1871
1871,1871,1811
1882,1880,1810
1883,1914,1879
1857,1901,1875
1837,1847,1790
1840,1856,1786
1905,1907,1871
1871,1920,1902
1792,1872,1824
1840,1872,1802
1875,1908,1872
1866,1916,1891
1846,1886,1834
1871,1879,1811
1863,1894,1862
1807,1883,1869
1872,1879,1829
1840,1881,1824
1856,1907,1883
1851,1898,1885
1851,1871,1811
1819,1838,1767
1802,1875,1840
1811,1881,1872
1872,1864,1821
1884,1879,1810
1869,1904,1860
1847,1921,1886
1881,1877,1824
1862,1872,1805
1835,1883,1845
1791,1879,1858
1817,1871,1829
1841,1859,1807
1846,1886,1861
1861,1916,1894
1869,1877,1833
1856,1842,1785
1845,1873,1840
1827,1882,1874
1827,1856,1825
1894,1871,1811
1872,1891,1862
1853,1897,1883
1836,1862,1815
1899,1863,1808
1840,1885,1858
1781,1888,1875
1871,1872,1828
1899,1890,1811
1853,1920,1883
1797,1879,1871
1804,1856,1797
1842,1869,1803
1872,1904,1875
1840,1897,1880
1830,1853,1797
1858,1856,1794
1872,1917,1881
1875,1897,1884
1808,1843,1791
1852,1850,1775
1900,1884,1845
1843,1899,1887
1841,1845,1797
1830,1846,1776
1830,1881,1854
1835,1882,1869
1855,1858,1818
1890,1887,1837
1856,1904,1875
1808,1862,1842
1811,1839,1792
1845,1855,1798
1878,1906,1887
1865,1905,1895
1859,1877,1838
1728,1841,1791
1805,1856,1826
1785,1863,1858
1851,1856,1827
1887,1870,1818
1879,1920,1891
1839,1889,1881
1830,1831,1794
1844,1839,1791
1840,1875,1856
1858,1902,1904
1856,1875,1842
1839,1841,1776
1835,1865,1839
1815,1869,1871
1842,1857,1838
1874,1872,1828
1904,1929,1904
1855,1894,1884
1883,1826,1783
1810,1840,1782
1850,1885,1867
1806,1889,1893
1904,1853,1823
1939,1879,1837
1831,1904,1885
1857,1888,1887
1842,1837,1800
1889,1856,1804
1867,1904,1887
1766,1882,1887
1797,1840,1808
1838,1855,1805
1866,1885,1872
1859,1883,1889
1866,1846,1808
1826,1834,1789
1821,1862,1851
1893,1871,1874
1840,1843,1812
1879,1858,1806
1882,1889,1872
1850,1881,1888
1861,1844,1818
1871,1856,1809
1873,1873,1870
1841,1855,1866
1851,1843,1818
1849,1853,1809
1887,1877,1872
1843,1885,1891
1835,1840,1812
1862,1842,1802
1886,1901,1891
1891,1927,1931
1865,1840,1811
1851,1814,1776
1904,1844,1837
1806,1856,1863
1836,1836,1808
1872,1856,1815
1869,1877,1867
1855,1869,1875
1902,1842,1823
1856,1840,1806
1831,1872,1863
1823,1871,1872
1841,1856,1833
1865,1856,1808
1856,1870,1855
1877,1882,1879
1826,1867,1834
1840,1839,1790
1855,1871,1861
1872,1886,1898
1901,1872,1848
1883,1882,1834
1836,1850,1827
1824,1840,1851
1854,1840,1819
1875,1835,1809
1857,1858,1860
1866,1872,1878
1868,1851,1823
1894,1872,1819
1872,1889,1857
1813,1851,1839
1826,1825,1807
1855,1825,1801
1871,1867,1871
1875,1882,1893
1861,1853,1817
1876,1855,1798
1856,1872,1861
1844,1872,1887
1844,1838,1808
1858,1840,1799
1863,1879,1869
1859,1887,1897
1872,1857,1834
1889,1880,1826
1856,1872,1857
1812,1840,1837
1835,1830,1789
1872,1858,1813
1876,1893,1885
1856,1887,1885
1855,1854,1812
1887,1861,1817
1867,1889,1869
1845,1875,1879
1857,1856,1827
1862,1859,1824
1833,1863,1846
1823,1858,1859
1853,1845,1819
1892,1872,1830
1907,1911,1910
1809,1856,1861
1821,1830,1800
1857,1849,1802
1867,1860,1862
1842,1856,1881
1842,1835,1808
1838,1815,1770
1856,1861,1855
1860,1878,1883
1847,1840,1808
1873,1855,1811
1876,1889,1887
1858,1873,1888
1850,1840,1814
1849,1824,1790
1856,1853,1857
1857,1869,1883
1872,1861,1837
1877,1855,1808
1879,1877,1867
1856,1872,1882
1843,1837,1820
1854,1831,1799
1865,1872,1872
1871,1891,1898
1891,1873,1857
1856,1825,1793
1826,1837,1826
1825,1839,1851
1838,1821,1808
1857,1835,1803
1873,1875,1867
1858,1875,1887
1853,1836,1809
1859,1838,1803
1856,1869,1867
1859,1876,1887
1867,1840,1819
1871,1840,1798
1855,1873,1871
1868,1893,1910
1842,1827,1822
1846,1820,1787
1867,1865,1857
1872,1877,1899
1877,1847,1840
1897,1871,1829
1889,1909,1895
1815,1845,1866
1826,1808,1790
1865,1838,1808
1851,1863,1863
1878,1893,1920
1859,1847,1819
1850,1830,1779
1875,1861,1855
1821,1840,1855
1835,1831,1808
1889,1854,1836
1883,1879,1883
1849,1872,1872
1840,1836,1811
1871,1857,1819
1879,1904,1903
1856,1871,1886
1875,1840,1824
1884,1841,1801
1862,1879,1874
1843,1883,1904
1847,1848,1831
1885,1872,1828
1911,1920,1911
1894,1909,1913
1851,1847,1808
1819,1802,1753
1850,1867,1863
1862,1879,1894
1878,1861,1840
1889,1870,1831
1860,1879,1858
1850,1875,1875
1866,1847,1824
1877,1857,1808
1881,1903,1895
1865,1897,1897
1844,1845,1819
1869,1856,1810
1890,1899,1888
1875,1878,1891
1902,1877,1862
1904,1890,1853
1839,1871,1859
1803,1840,1850
1855,1853,1832
1904,1870,1842
1856,1871,1863
1835,1863,1872
1840,1837,1815
1871,1840,1810
1886,1883,1886
1873,1893,1905
1886,1856,1857
1889,1856,1824
1882,1895,1888
1858,1886,1891
1846,1823,1808
1863,1840,1819
1890,1893,1904
1847,1866,1877
1856,1840,1814
1880,1829,1825
1879,1872,1889
1865,1927,1894
1854,1886,1813
1902,1855,1835
1920,1881,1908
1856,1919,1885
1869,1865,1798
1899,1889,1818
1891,1887,1917
1869,1893,1926
1853,1858,1840
1870,1776,1789
1869,1855,1845
1841,1922,1875
1877,1931,1826
1904,1939,1806
1875,1882,1878
1865,1821,1888
1840,1805,1779
1887,1846,1821
1936,1887,1865
1870,1894,1887
1839,1888,1855
1831,1872,1868
1897,1895,1926
1929,1839,1930
1829,1829,1872
1807,1808,1875
1814,1837,1936
1820,1872,1938
1841,1818,1901
1872,1853,1908
1889,1852,1978
1876,1834,2000
1842,1762,1924
1844,1913,1899
1889,2017,1999
1866,1875,1988
1806,1814,1872
1878,1772,1844
1953,1771,1981
1822,1857,2034
1775,1810,1931
1870,1780,1872
1905,1830,1970
1883,1923,2033
1840,1805,1947
1836,1744,1911
1921,1838,1961
1962,1808,1978
1908,1808,1889
1821,1845,1939
1910,1913,2075
1941,1871,2096
1799,1803,1961
1785,1772,1909
1811,1821,1990
1880,1824,2032
1840,1762,1942
1828,1744,1967
1835,1776,2043
1841,1810,2075
1869,1840,1985
1891,1809,1998
1879,1827,2055
1855,1789,2070
1853,1760,2009
1856,1807,2013
1862,1791,2091
1888,1834,2094
1904,1712,2045
1923,1702,2075
1799,1819,2153
1899,1879,2204
1865,1776,2160
1791,1808,2181
1773,1707,2244
1814,1719,2306
1878,1740,2263
1886,1779,2255
1854,1799,2336
1852,1808,2391
1885,1808,2384
1885,1761,2391
1824,1744,2442
1807,1776,2491
1870,1883,2501
1906,1763,2496
1937,1787,2557
1858,1755,2601
1808,1728,2559
1915,1788,2631
1917,1797,2637
1813,1697,2551
1761,1616,2513
1808,1678,2597
1891,1828,2704
1970,1844,2759
1893,1738,2599
1792,1653,2487
1806,1698,2545
1773,1718,2586
1771,1706,2529
1834,1735,2581
2067,1904,2819
2095,1879,2813
1776,1707,2501
1676,1702,2387
1734,1770,2555
1840,1600,2707
2032,1738,2800
2034,1790,2756
1857,1755,2742
1781,1795,2770
1858,1725,2832
1815,1806,2704
1826,1767,2725
1887,1744,2703
1706,1689,2731
1683,1753,2829
1767,1666,2886
1867,1660,2893
1834,1708,2765
1813,1775,2736
1974,1853,2881
1948,1799,2856
1735,1655,2672
1722,1702,2670
1806,1735,2725
1891,1731,2782
1835,1745,2662
1785,1681,2554
1827,1711,2697
1793,1821,2758
1829,1810,2722
1685,1707,2539
1747,1750,2557
1825,1847,2631
1930,1847,2619
2035,1903,2608
1820,1775,2630
1663,1782,2546
1741,1821,2546
1807,1813,2529
1906,1868,2583
1863,1819,2513
1870,1845,2499
1851,1857,2480
1783,1856,2510
1775,1882,2497
1808,1888,2397
1831,1834,2371
1758,1867,2402
1825,1921,2453
1853,1786,2375
1803,1914,2286
1862,1855,2367
1902,1991,2339
1943,1957,2242
1938,1915,2293
1744,1887,2255
1711,1915,2250
1718,1903,2129
1821,1947,2132
1935,2027,2235
1845,1983,2199
1777,1907,2118
1839,1936,2111
1995,2080,2271
2122,2106,2288
1946,1952,2016
1827,1856,1887
1735,1904,1971
1799,1951,2094
1778,1908,2023
1697,1925,1943
1750,1983,2042
1811,2002,2039
2192,2103,2129
2182,2036,1993
1701,1920,1760
1534,1911,1799
1714,1958,1916
1885,1995,1945
2009,2000,1958
2064,2086,1941
1908,1987,1863
1673,1902,1797
1726,1944,1816
1943,1942,1797
1843,1963,1812
1879,1998,1945
2097,2135,2106
1747,1951,1887
1594,1904,1663
2128,2069,1946
1982,2002,1859
1705,1911,1654
1632,1915,1535
1781,1993,1627
1934,2032,1724
1909,2018,1767
1840,1937,1647
1793,1934,1535
1881,1997,1754
2016,1997,1747
2063,1910,1461
1773,1851,1437
1577,1955,1601
1893,1983,1799
1953,1903,1621
2026,2004,1395
1971,2011,1584
1777,1946,1694
1514,1894,1648
1514,1872,1436
1847,1907,1581
1955,1906,1575
1802,1939,1417
1970,1963,1616
1950,1921,1510
1584,1912,1344
1534,1889,1344
1730,1911,1503
1825,1911,1636
1889,1860,1581
2139,1933,1568
2245,2026,1437
2018,1929,1514
1424,1834,1486
1366,1786,1239
1653,1855,1216
1763,1952,1378
1787,1963,1408
1901,1872,1171
2398,1967,1371
1901,1895,1311
1531,1871,976
1445,1808,780
1622,1833,794
1697,1904,1023
2187,2127,1244
1787,1894,811
1569,1818,707
1939,1850,942
1799,1820,902
1509,1815,768
1689,1841,726
1937,1898,805
2032,1856,976
2035,1949,853
1568,1815,576
1526,1856,700
1670,1883,640
1783,1802,594
1732,1855,698
1936,1935,886
2096,1869,778
1842,1834,574
1925,1879,720
1744,1803,610
1507,1792,458
1567,1794,390
1809,1919,498
1754,1904,599
1672,1823,558
1874,1762,432
2181,1933,525
2119,1878,656
1811,1739,491
1473,1798,302
1840,1769,319
1611,1781,487
1482,1843,387
1728,1836,338
2243,1936,740
1957,1840,710
1535,1712,396
1766,1859,420
2020,1837,786
1729,1840,563
1642,1809,384
1717,1793,390
2107,1938,862
1808,1797,613
1611,1757,613
1593,1788,593
1893,1837,728
2043,1851,772
1740,1834,608
1689,1798,624
2258,1947,999
1776,1785,599
1479,1755,686
1485,1763,656
1883,1783,813
1994,1819,929
1837,1810,843
1757,1783,881
2275,1931,977
1939,1690,811
1249,1743,687
1449,1835,787
2034,1910,997
2267,1792,1274
1660,1755,1019
1389,1826,709
1808,1939,848
2017,1807,1088
2000,1751,1212
1668,1743,1009
1775,1808,1105
1998,1854,1183
1707,1751,1018
1831,1792,931
1722,1830,970
1691,1851,1220
1946,1792,1437
1862,1741,1194
1711,1776,1154
1874,1827,1093
1847,1815,1154
1714,1794,1346
1781,1838,1354
1958,1795,1354
1859,1838,1387
1671,1787,1200
1813,1820,1201
2026,1825,1418
1890,1758,1276
1741,1755,1310
1798,1794,1513
1773,1853,1454
1650,1831,1364
1763,1820,1351
1811,1827,1466
1810,1776,1520
1815,1801,1567
1983,1862,1654
1995,1778,1522
2070,1829,1429
1607,1777,1444
1575,1814,1581
1921,1785,1535
1840,1775,1651
1754,1763,1658
1692,1815,1555
1829,1876,1535
1978,1871,1593
2439,1977,1902
1905,1654,1606
1315,1667,1502
1446,1757,1579
1990,1843,1723
2081,1757,1836
1744,1775,1779
1638,1819,1679
1878,1805,1682
2279,1840,1683
1920,1841,1787
1588,1707,1778
1658,1712,1722
1904,1790,1744
1911,1806,1856
1817,1806,1904
1774,1836,1837
1919,1806,1777
1870,1776,1775
1853,1827,1946
1854,1844,1860
1840,1821,1875
1728,1772,1762
1906,1794,1760
2173,1879,1964
2109,1883,2023
1702,1776,1843
1575,1741,1769
1602,1749,1879
1771,1774,1891
1856,1789,1953
2000,1851,2019
1999,1803,1955
1857,1788,1926
1887,1808,1938
1901,1811,2007
1770,1808,1920
1810,1837,1913
1937,1815,2064
1939,1850,2065
1986,1898,2039
1916,1783,1872
1714,1745,1905
1718,1839,2047
1790,1837,2085
1961,1835,1952
2023,1818,1935
1787,1826,2042
1744,1877,2088
1858,1790,1955
1920,1810,2005
2017,1852,2095
1911,1840,2111
1867,1810,2023
1984,1822,2063
1841,1839,2109
1808,1840,2097
1914,1834,2015
1809,1759,1991
2065,1899,2111
1712,1804,2018
1665,1772,2004
1821,1779,2087
2173,1883,2288
1947,1840,2069
1691,1789,1969
1811,1847,2032
1936,1887,2118
1952,1874,2089
1873,1798,2062
1827,1765,2187
1949,1872,2144
2094,1856,2145
2095,1820,2091
1978,1831,2060
1600,1803,2114
1577,1808,2055
1796,1814,1980
1959,1786,2023
1930,1903,2251
2267,1954,2295
2002,1741,1935
1635,1742,1877
1573,1808,2102
1786,1862,2192
2077,1867,2149
2064,1817,2138
1991,1986,2240
2181,1857,2065
1760,1711,1936
1743,1812,1979
1675,1841,2064
1657,1838,2148
1831,1863,2209
2126,1897,2235
1959,1875,2122
1843,1841,2128
2090,1909,2187
1964,1878,2012
1632,1801,2031
1743,1835,2112
1863,1840,2130
1905,1862,2103
1941,1891,2158
1978,1883,2140
2035,1865,2083
1941,1841,2131
1837,1898,2218
1907,1883,2223
2105,1890,2085
2193,1872,2103
1744,1856,2199
1554,1847,2080
1648,1772,1958
1824,1810,2047
1995,1936,2197
2094,1904,2183
1887,1787,2150
1828,1840,2099
1875,1910,2171
1966,1911,2175
2001,1893,2182
1961,1833,2145
1802,1842,2058
1808,1862,2059
2080,1899,2099
2136,1851,2046
1821,1906,2096
1680,1913,2111
1859,1875,2098
2168,1872,2093
2002,1829,2114
1616,1822,2113
1655,1839,2074
1863,1875,2089
2000,1909,2090
2239,1905,2173
1983,1813,2055
1771,1858,2053
1691,1887,2096
1790,1871,2117
2058,1911,2153
1949,1887,2094
1983,1920,2041
1986,1867,2079
1862,1909,2110
1836,1857,2015
1728,1818,2062
1826,1857,2081
2130,1942,2112
2257,1994,2223
1907,1847,2106
1605,1776,1922
1733,1807,1936
1849,1835,2007
1877,1901,2133
1839,1903,2093
1981,1867,1990
2130,1891,2033
2034,1937,2117
1715,1920,2160
1753,1878,2086
1983,1922,2096
2214,2007,2191
2110,1887,2000
1627,1742,1857
1670,1810,1923
1871,1882,2064
1872,1887,2123
1872,1847,2058
2091,1951,2082
1955,1890,2025
1782,1855,2019
1798,1856,1997
2121,1907,1962
2091,1929,2075
1756,1859,2098
1606,1826,1965
1794,1879,2003
1977,1921,2094
1952,1919,2109
2064,1889,1987
2493,1942,2070
1840,1838,1990
1375,1806,1968
1612,1843,1937
1957,1901,1990
2013,1922,2065
1923,1905,2094
1971,1897,2020
2011,1925,1934
1953,1901,1925
2202,1870,2000
2026,1840,1959
1535,1783,1943
1582,1856,2022
1823,1926,2059
1998,1891,2013
2000,1859,1947
1936,1915,1985
1914,1899,2035
2179,1941,2018
2012,1878,1963
1690,1873,1979
1774,1891,2041
1869,1877,1885
1950,1897,1894
1891,1906,2029
1823,1891,2034
2032,1863,1965
2011,1968,2031
1953,1941,2021
1834,1863,1969
1852,1834,1840
1811,1855,1899
1813,1915,2026
1963,1944,2095
2399,2023,2112
1936,1856,1847
1639,1826,1838
1671,1856,1942
1881,1877,1971
1956,1930,2000
2216,1993,2069
1998,1856,1949
1712,1812,1851
1749,1878,1919
1901,1944,2032
1926,1939,2043
1979,1925,1973
1966,1923,1963
1909,1943,2023
1885,1870,1957
1867,1856,1905
1932,1895,1935
1988,1947,2030
1995,1951,2076
1881,1869,1904
1840,1831,1845
1936,1904,1968
2219,1952,2032
2014,1882,1836
1718,1856,1841
1694,1875,1941
1842,1876,1955
2128,1872,1887
2089,1936,1925
1810,1950,2000
1778,1904,1985
1874,1870,1907
1972,1907,1934
2035,1946,1984
2041,1904,1921
1849,1844,1859
1848,1910,1909
1927,1936,1971
1904,1904,1937
1940,1890,1904
2057,1914,1880
2000,1887,1851
1837,1904,1891
1819,1849,1831
1875,1864,1846
1933,1909,1925
1947,1907,1911
2064,1920,1895
2081,1923,1876
1881,1911,1854
1782,1871,1829
1920,1840,1788
1867,1874,1822
1968,1936,1909
1963,1887,1850
1859,1875,1808
1979,1897,1841
1918,1923,1903
1949,1921,1904
1904,1845,1749
1895,1841,1765
1908,1898,1885
1987,1939,1910
1938,1871,1799
2054,1903,1808
1936,1901,1844
1904,1885,1819
1920,1869,1792
1989,1863,1762
1943,1917,1858
2099,1980,1918
2064,1865,1807
1808,1841,1729
1783,1892,1785
1914,1904,1819
2020,1910,1818
2101,1909,1855
1948,1902,1861
1846,1899,1813
1899,1888,1750
1930,1898,1779
1959,1909,1873
2037,1938,1874
1947,1858,1789
1930,1881,1784
1990,1968,1922
1955,1951,1882
1843,1866,1755
1975,1876,1753
1902,1904,1837
1894,1898,1838
1870,1904,1807
1919,1920,1840
1950,1942,1888
1981,1943,1869
1971,1895,1803
1859,1872,1792
1838,1875,1792
1826,1904,1826
1895,1897,1799
1984,1888,1767
1965,1919,1835
1968,1935,1888
1913,1904,1827
1974,1932,1827
1915,1927,1833
1916,1934,1857
1961,1904,1805
1905,1891,1801
1938,2000,1903
1935,1991,1904
1863,1869,1759
1847,1858,1739
1889,1921,1847
1915,1958,1881
1917,1930,1798
1904,1889,1766
1904,1927,1837
1917,1953,1887
1930,1923,1815
1934,1936,1819
1926,1978,1885
1909,1965,1878
1907,1920,1798
1936,1914,1765
2001,1967,1846
1889,1943,1845
1837,1903,1769
1881,1939,1821
1904,1967,1878
1949,1981,1904
1937,1950,1822
1890,1907,1778
1863,1905,1810
1874,1925,1840
1899,1901,1791
1942,1939,1821
1904,1940,1855
1866,1918,1836
1904,1916,1806
1946,1936,1823
1911,1946,1857
1936,1986,1911
1952,1942,1819
1936,1906,1778
1873,1922,1808
1854,1936,1829
1935,1936,1787
2091,1990,1840
1905,1967,1863
1765,1903,1811
1817,1881,1755
1903,1925,1801
1909,1965,1863
1915,1968,1856
1939,1968,1815
1901,1958,1806
1873,1968,1849
1904,1983,1882
1917,1953,1809
1917,1979,1808
1945,2022,1890
1975,2033,1932
1877,1930,1772
1872,1947,1751
1909,2015,1839
1871,1941,1817
1829,1877,1745
1882,1945,1804
1921,1991,1878
1901,1965,1840
1929,1937,1776
1904,1964,1796
1877,1972,1871
1889,1968,1872
1923,1937,1810
1925,1946,1810
1872,1959,1847
1872,1954,1870
1885,1934,1811
1907,1954,1827
1934,1994,1894
1945,1999,1903
1913,1949,1823
1873,1927,1797
1840,1936,1850
1857,1937,1865
1891,1927,1806
1935,1961,1830
1983,2053,1943
1895,1974,1878
1834,1887,1764
1840,1883,1764
1872,1947,1854
1907,1959,1869
1904,1915,1776
1888,1927,1805
1867,1959,1879
1843,1953,1877
1872,1920,1807
1903,1942,1819
1930,1991,1905
1905,1970,1900
1870,1918,1793
1906,1949,1833
1895,1966,1886
1877,1957,1872
1903,1936,1827
1904,1922,1825
1915,1965,1873
1905,1968,1886
1881,1933,1830
1837,1887,1783
1843,1930,1851
1867,1926,1841
1929,1921,1814
1906,1935,1833
1821,1913,1842
1814,1911,1840
1872,1915,1808
1910,1942,1838
1917,1995,1907
1879,1975,1889
1839,1866,1766
1883,1906,1801
1902,1945,1874
1915,1966,1901
1840,1865,1755
1818,1858,1745
1845,1918,1851
1866,1934,1872
1897,1915,1829
1921,1933,1824
1868,1939,1866
1883,1921,1845
1905,1899,1795
1907,1941,1851
1861,1962,1899
1919,1978,1905
1888,1891,1808
1806,1857,1758
1808,1909,1840
1843,1923,1877
1866,1888,1818
1891,1915,1837
1898,1935,1882
1926,1930,1864
1861,1849,1776
1850,1890,1822
1903,1984,1942
1840,1920,1871
1781,1818,1743
1823,1840,1771
1869,1895,1876
1897,1929,1919
1913,1898,1840
1937,1889,1807
1875,1882,1840
1793,1855,1824
1807,1850,1787
1849,1897,1823
1860,1963,1895
1853,1873,1881
1919,1912,1823
1981,1934,1847
1872,1977,1890
1777,1851,1821
1841,1840,1739
1858,1826,1765
1781,1836,1863
1803,1901,1882
1842,1841,1815
1904,1883,1840
1891,1914,1895
1872,1911,1875
1877,1871,1823
1867,1871,1796
1859,1896,1843
1869,1904,1856
1852,1842,1806
1859,1901,1831
1865,1923,1904
1862,1915,1893
1894,1880,1838
1915,1890,1845
1994,1958,1938
1946,1920,1863
1722,1778,1696
1715,1819,1738
1807,1879,1859
1865,1906,1899
1907,1923,1867
1908,1878,1832
1871,1910,1863
1838,1892,1866
1858,1872,1818
1891,1872,1851
1872,1904,1890
1830,1875,1855
1823,1860,1778
1863,1875,1812
1867,1906,1899
1883,1920,1927
1895,1936,1850
1894,1879,1825
1873,1888,1853
1843,1823,1846
1827,1828,1771
1869,1842,1844
1886,1936,1930
1872,1915,1921
1843,1861,1827
1820,1871,1791
1839,1901,1858
1867,1944,1894
1920,1870,1855
1904,1911,1839
1888,1968,1915
1811,1861,1855
1794,1856,1758
1845,1846,1802
1872,1933,1903
1874,1910,1909
1915,1856,1840
1889,1862,1808
1873,1900,1870
1839,1953,1882
1781,1835,1773
1842,1827,1811
1859,1903,1869
1861,1879,1872
1840,1862,1823
1858,1893,1827
1870,1921,1901
1856,1897,1887
1862,1858,1811
1872,1878,1819
1860,1911,1881
1856,1921,1892
1860,1872,1809
1892,1895,1831
1854,1891,1872
1818,1968,1857
1856,1870,1814
1946,1971,1839
1867,1905,1872
1775,1845,1840
1776,1904,1776
1841,1845,1808
1870,1936,1884
1853,1887,1871
1877,1888,1826
1895,1910,1841
1904,1937,1904
1842,1859,1840
1807,1830,1759
1886,1895,1851
1857,1889,1882
1783,1845,1839
1819,1853,1808
1831,1855,1808
1856,1879,1867
1874,1843,1884
1885,1898,1830
1873,1891,1835
1855,1946,1890
1831,1893,1877
1858,1870,1833
1872,1905,1835
1844,1930,1862
1812,1851,1841
1853,1794,1791
1888,1891,1823
1882,1921,1890
1878,1867,1907
1913,1841,1839
1846,1807,1771
1786,1833,1834
1807,1907,1870
1838,1815,1817
1885,1913,1856
1895,1911,1911
1845,1872,1873
1851,1838,1818
1891,1760,1827
1904,1893,1894
1807,1879,1842
1794,1810,1777
1839,1851,1813
1813,1902,1863
1840,1886,1892
1847,1850,1809
1876,1835,1808
1854,1857,1875
1788,1837,1856
1794,1808,1789
1856,1850,1838
1889,1886,1919
1862,1814,1887
1887,1859,1823
1842,1808,1817
1807,1853,1859
1823,1840,1870
1904,1853,1850
1935,1888,1855
1854,1814,1838
1775,1759,1808
1790,1869,1786
1840,1847,1833
1878,1941,1927
1808,1856,1868
1785,1677,1775
1830,1753,1795
1854,1869,1876
1860,1884,1888
1877,1849,1841
1863,1877,1808
1831,1854,1852
1819,1856,1863
1835,1823,1808
1870,1849,1825
1856,1874,1885
1826,1854,1857
1833,1826,1793
1887,1854,1818
1886,1849,1867
1838,1846,1872
1850,1864,1831
1854,1839,1798
1839,1843,1855
1843,1837,1856
1877,1878,1870
1840,1831,1827
1808,1827,1833
1821,1824,1840
1824,1791,1793
1840,1814,1791
