1853,1794,1779
1808,1793,1775
1837,1872,1867
1830,1843,1847
1841,1815,1793
1889,1862,1841
1893,1905,1905
1853,1869,1872
1871,1847,1825
1863,1829,1821
1847,1858,1865
1858,1858,1865
1911,1872,1840
1902,1878,1855
1867,1889,1904
1854,1870,1881
1856,1840,1808
1829,1819,1789
1818,1840,1839
1839,1849,1854
1904,1874,1815
1903,1856,1822
1830,1831,1832
1843,1838,1837
1905,1865,1829
2087,1984,1950
1811,1833,1825
1673,1775,1759
1745,1781,1741
1917,1857,1806
1875,1871,1878
1814,1854,1867
1829,1834,1808
1872,1866,1837
1968,1956,1965
1915,1901,1905
1787,1800,1748
1803,1831,1763
1830,1848,1845
1840,1827,1851
1947,1892,1850
1898,1831,1781
1802,1838,1825
1811,1827,1846
1889,1862,1840
1879,1848,1809
1924,1884,1888
1925,1841,1894
1747,1739,1731
1773,1840,1763
1835,1872,1870
1875,1915,1879
1874,1859,1807
1930,1907,1830
1887,1887,1889
1837,1854,1885
1851,1840,1822
1855,1809,1808
1840,1847,1862
1847,1868,1875
1877,1872,1825
1870,1860,1808
1907,1903,1909
1826,1841,1847
1808,1806,1770
1854,1815,1807
1869,1900,1882
1879,1858,1890
1884,1867,1821
1914,1872,1829
1866,1840,1849
1847,1823,1863
1867,1885,1823
1894,1871,1845
1830,1847,1856
1839,1869,1855
1867,1840,1811
1954,1918,1872
1962,1941,1955
1819,1863,1857
1790,1808,1763
1806,1801,1766
1849,1856,1863
1870,1907,1878
1966,1907,1871
1925,1875,1853
1778,1776,1823
1778,1792,1819
1845,1833,1802
1893,1862,1840
1892,1872,1906
1908,1917,1922
1865,1840,1803
1867,1849,1808
1904,1925,1913
1873,1895,1889
1873,1845,1809
1914,1846,1829
1908,1870,1879
1831,1863,1841
1843,1872,1782
1921,1932,1862
1829,1883,1861
1795,1858,1818
1843,1895,1799
1886,1827,1834
1875,1878,1898
1895,1913,1909
1881,1819,1817
1932,1936,1866
1842,1891,1869
1826,1827,1848
1868,1817,1814
1861,1837,1803
1823,1837,1841
1846,1863,1866
1872,1853,1823
1887,1862,1833
1903,1888,1911
1872,1882,1883
1828,1827,1781
1831,1836,1785
1854,1879,1874
1867,1872,1879
1917,1872,1840
1975,1918,1886
1840,1881,1865
1808,1789,1840
1822,1836,1782
1878,1943,1824
1904,1914,1898
1914,1821,1910
1893,1824,1837
1846,1840,1803
1839,1927,1855
1839,1908,1853
1844,1850,1781
1840,1831,1775
1857,1919,1858
1879,1903,1886
1883,1866,1823
1952,1930,1877
1991,1972,1983
1809,1822,1806
1761,1778,1712
1850,1855,1793
1871,1892,1878
1869,1879,1867
1845,1821,1783
1931,1874,1821
1918,1904,1886
1809,1900,1830
1810,1815,1799
1863,1904,1842
1896,1970,1927
1904,1936,1900
1895,1825,1803
1927,1927,1835
1871,1901,1858
1842,1840,1856
1840,1904,1796
1930,1927,1865
1974,2001,1922
1813,1888,1815
1799,1841,1780
1850,1856,1806
1840,1842,1854
1846,1862,1840
1870,1840,1762
1921,1869,1818
1855,1894,1901
1831,1881,1882
1874,1878,1840
1891,1941,1840
1855,1886,1867
1887,1895,1888
1936,1899,1838
1935,1914,1866
1840,1890,1865
1809,1856,1851
1842,1840,1799
1893,1872,1840
1893,1890,1892
1883,1947,1899
1885,1936,1827
1885,1894,1836
1872,1887,1894
1865,1900,1873
1872,1898,1793
1897,1868,1809
1882,1883,1895
1845,1872,1883
1853,1863,1782
1941,1916,1816
1839,1869,1866
1795,1847,1860
1838,1856,1821
1898,1915,1857
1891,1904,1906
1920,1835,1902
1939,1868,1815
1871,1840,1812
1788,1861,1842
1802,1854,1856
1861,1869,1817
1966,1931,1872
2067,2010,1987
1819,1858,1846
1744,1804,1726
1792,1814,1765
1860,1877,1888
1871,1885,1899
1904,1871,1828
1963,1901,1840
1885,1904,1897
1812,1876,1877
1906,1906,1862
1954,1924,1882
1832,1853,1822
1784,1830,1807
1872,1861,1808
1943,1904,1872
1905,1922,1893
1825,1872,1856
1809,1829,1787
1872,1872,1821
1947,1940,1905
1899,1903,1890
1868,1862,1815
1857,1867,1808
1866,1882,1856
1898,1904,1881
1875,1861,1826
1903,1855,1802
1814,1854,1803
1830,1882,1872
1827,1843,1822
1840,1857,1811
1889,1906,1885
1965,1934,1911
1881,1846,1792
1808,1845,1801
1810,1891,1902
1847,1904,1904
1902,1894,1857
1884,1874,1839
1879,1914,1894
1909,1917,1911
1930,1895,1862
1889,1882,1845
1850,1906,1872
1797,1841,1805
1835,1803,1717
1904,1875,1847
1837,1897,1909
1813,1878,1871
1871,1850,1765
1873,1871,1839
1851,1913,1920
1856,1918,1922
1877,1883,1837
1893,1889,1824
1849,1905,1878
1839,1901,1881
1863,1883,1831
1911,1928,1870
1930,1959,1947
1845,1884,1856
1814,1810,1776
1865,1856,1826
1899,1933,1923
1890,1926,1913
1846,1829,1775
1856,1851,1790
1883,1916,1907
1872,1872,1886
1862,1840,1814
1867,1862,1821
1879,1916,1888
1869,1907,1873
1861,1858,1808
1867,1856,1825
1873,1897,1906
1919,1923,1930
1978,1904,1834
1925,1868,1794
1744,1829,1819
1767,1850,1854
1834,1850,1829
1880,1872,1847
1920,1939,1944
1949,1931,1931
1867,1817,1788
1823,1813,1777
1890,1903,1899
1834,1856,1856
1814,1827,1773
1869,1872,1827
1882,1913,1898
1879,1894,1895
1873,1853,1810
1944,1903,1850
1955,1894,1873
1858,1865,1846
1809,1844,1801
1855,1869,1839
1867,1879,1885
1863,1872,1851
1855,1849,1806
1838,1847,1808
1858,1898,1898
1865,1900,1893
1918,1881,1824
1906,1865,1838
1821,1875,1853
1829,1862,1840
1859,1850,1789
1871,1867,1811
1893,1933,1929
1900,1908,1917
1872,1847,1826
1855,1844,1806
1840,1872,1866
1844,1862,1854
1843,1840,1788
1885,1890,1834
1863,1899,1897
1866,1858,1851
1945,1874,1855
1907,1855,1793
1839,1861,1809
1823,1867,1872
1845,1860,1840
1905,1877,1861
1885,1877,1882
1826,1843,1835
1815,1822,1765
1859,1850,1810
1859,1882,1895
1867,1873,1886
1878,1850,1827
1932,1893,1872
1971,1929,1913
1863,1873,1843
1795,1821,1751
1840,1851,1804
1859,1883,1883
1868,1879,1875
1870,1849,1814
1901,1870,1838
1881,1904,1898
1859,1881,1875
1869,1852,1810
1894,1872,1851
1872,1891,1902
1911,1905,1913
1899,1877,1834
1856,1850,1795
1854,1870,1860
1845,1853,1855
1899,1861,1819
1964,1922,1875
1904,1891,1890
1827,1819,1838
1840,1813,1744
1920,1886,1871
1847,1858,1906
1823,1843,1821
1853,1842,1776
1911,1873,1871
1911,1903,1934
1911,1875,1869
1870,1810,1733
1814,1840,1783
1841,1895,1920
1837,1858,1843
1837,1821,1786
1893,1870,1802
1998,1925,1887
1831,1841,1869
1787,1838,1811
1854,1872,1837
1872,1887,1878
1845,1872,1840
1859,1849,1821
1891,1885,1846
1957,1911,1897
1887,1872,1887
1810,1838,1759
1853,1883,1815
1945,1969,1938
1918,1910,1873
1791,1748,1695
1809,1776,1735
1815,1840,1829
1841,1860,1872
1872,1838,1840
1873,1851,1818
1856,1870,1883
1868,1862,1823
1958,1867,1843
1911,1856,1814
1826,1882,1855
1793,1866,1805
1808,1825,1753
1858,1855,1801
1882,1893,1937
1872,1881,1903
1872,1840,1837
1861,1855,1840
1851,1888,1862
1849,1876,1843
1872,1846,1857
1945,1882,1811
1915,1905,1931
1808,1840,1829
1857,1840,1809
1936,1856,1837
1815,1845,1808
1865,1916,1901
1854,1851,1814
1823,1813,1774
1809,1841,1788
1853,1863,1837
1885,1873,1776
1857,1854,1838
1834,1875,1897
1839,1874,1873
1869,1854,1798
1887,1878,1823
1882,1906,1959
1889,1895,1845
1898,1875,1837
1859,1839,1806
1831,1843,1852
1840,1851,1859
1873,1849,1811
1903,1871,1843
1893,1893,1912
1872,1869,1878
1872,1841,1809
1891,1886,1838
1877,1899,1889
1856,1861,1811
1879,1855,1863
1874,1867,1796
1841,1859,1840
1847,1850,1859
1858,1839,1807
1877,1866,1951
1879,1903,1913
1885,1889,1887
1891,1855,1811
1889,1863,1835
1857,1869,1872
1872,1877,1874
1882,1870,1820
1845,1811,1793
1830,1823,1840
1841,1834,1855
1865,1826,1799
1889,1850,1831
1886,1885,1895
1883,1872,1885
1881,1840,1821
1904,1872,1823
1904,1887,1910
1871,1859,1850
1872,1832,1775
1909,1861,1808
1902,1895,1899
1855,1842,1837
1856,1795,1791
1897,1836,1821
1927,1907,1967
1916,1888,1907
1863,1818,1845
1851,1793,1766
1862,1846,1895
1875,1851,1922
1883,1827,1867
1911,1857,1845
1901,1872,1894
1886,1853,1925
1885,1815,1818
1943,1871,1935
1885,1856,1902
1859,1833,1777
1883,1821,1824
1905,1840,1813
1913,1872,1901
1894,1843,1855
1831,1779,1745
1847,1815,1808
1872,1863,1873
1925,1899,1936
1923,1872,1850
1952,1870,1865
1871,1808,1856
1797,1775,1774
1821,1773,1785
1875,1824,1835
1890,1861,1905
1889,1851,1910
1900,1834,1840
1905,1840,1894
1898,1872,1958
1876,1860,1875
1871,1818,1802
1886,1830,1830
1895,1874,1877
1889,1868,1903
1847,1792,1766
1872,1811,1828
1879,1859,1905
1913,1878,1911
1929,1859,1872
1879,1808,1819
1853,1835,1861
1884,1858,1900
1903,1831,1840
1897,1834,1827
1872,1853,1883
1859,1840,1872
1893,1830,1823
1899,1836,1838
1887,1867,1896
1887,1854,1890
1872,1809,1808
1904,1839,1839
1894,1864,1895
1887,1850,1882
1888,1821,1815
1906,1842,1837
1926,1921,1933
1892,1883,1904
1843,1782,1775
1900,1842,1835
1891,1874,1904
1849,1840,1871
1856,1803,1798
1883,1834,1814
1879,1864,1887
1870,1857,1887
1887,1838,1829
1906,1861,1851
1893,1881,1899
1877,1865,1892
1887,1843,1831
2000,1893,1889
1904,1893,1920
1814,1840,1861
1873,1795,1790
1861,1829,1822
1925,1884,1908
1920,1895,1913
1879,1855,1843
1898,1872,1861
1898,1860,1871
1835,1820,1840
1870,1799,1777
1850,1831,1822
1882,1871,1904
1901,1888,1905
1888,1846,1841
1903,1840,1847
1872,1859,1901
1850,1847,1879
1858,1824,1822
1891,1855,1841
1893,1872,1911
1891,1862,1907
1878,1823,1825
1899,1852,1841
1904,1897,1920
1867,1856,1883
1881,1833,1829
1973,1872,1866
1872,1865,1885
1836,1813,1839
1843,1802,1790
1884,1846,1835
1903,1888,1917
1872,1875,1904
1825,1808,1809
1840,1798,1790
1854,1840,1867
1871,1840,1883
1889,1829,1829
1954,1877,1885
1863,1893,1931
1809,1828,1853
1831,1803,1788
1873,1843,1835
1926,1904,1929
1860,1840,1872
1856,1799,1783
1895,1827,1827
1900,1872,1910
1888,1860,1902
1897,1841,1850
1875,1842,1846
1872,1887,1920
1867,1872,1904
1879,1840,1814
1922,1849,1818
1815,1817,1856
1809,1835,1869
1879,1823,1818
1855,1830,1818
1840,1866,1890
1867,1869,1898
1909,1875,1867
1935,1858,1845
1848,1840,1855
1853,1845,1863
1935,1894,1882
1937,1892,1879
1840,1844,1854
1821,1824,1838
1856,1817,1793
1889,1856,1837
1908,1910,1917
1895,1887,1904
1866,1825,1811
1891,1851,1829
1907,1891,1907
1871,1872,1890
1867,1835,1808
1867,1842,1808
1901,1888,1903
1970,1923,1939
1863,1831,1813
1867,1859,1824
1867,1909,1903
1856,1869,1872
1915,1833,1809
1861,1831,1792
1839,1863,1861
1903,1894,1914
1920,1861,1828
1811,1831,1808
1823,1841,1850
1875,1902,1895
1904,1865,1831
1840,1815,1795
1873,1868,1872
1906,1905,1904
1886,1862,1824
1854,1856,1811
1839,1873,1872
1881,1890,1897
1895,1872,1845
1875,1863,1830
1847,1878,1874
1871,1889,1881
1856,1867,1835
1867,1857,1829
1869,1877,1881
1856,1904,1904
1898,1885,1839
1909,1840,1799
1842,1861,1850
1904,1874,1878
1907,1841,1797
1875,1882,1827
1855,1905,1875
1863,1870,1849
1905,1862,1817
1978,1919,1875
1877,1906,1887
1840,1887,1866
1840,1855,1782
1835,1843,1777
1914,1899,1872
1840,1875,1855
1851,1850,1797
1879,1874,1823
1875,1918,1882
1897,1892,1866
1840,1841,1793
1773,1849,1795
1889,1905,1910
1821,1878,1862
1798,1807,1750
1869,1862,1810
1875,1898,1890
1887,1851,1830
1837,1840,1791
1841,1869,1813
1843,1899,1885
1838,1878,1872
1872,1869,1814
1936,1871,1819
1881,1913,1890
1875,1902,1872
1825,1849,1808
1846,1875,1831
1770,1870,1842
1840,1883,1857
2012,1906,1831
2037,1949,1890
1767,1815,1794
1642,1761,1760
1856,1838,1806
1899,1884,1866
1885,1904,1901
1882,1894,1862
1882,1856,1771
1878,1895,1841
1866,1950,1925
1824,1864,1841
1822,1807,1725
1910,1933,1850
1993,2023,1968
1863,1898,1849
1750,1782,1723
1831,1825,1765
1795,1828,1807
1951,1889,1846
2140,1955,1872
1900,1885,1778
1765,1888,1861
1777,1867,1859
1905,1887,1838
1891,1850,1782
1878,1861,1805
1874,1902,1844
1899,1891,1777
1962,1939,1847
1891,1883,1789
1773,1813,1798
1633,1750,1739
1703,1827,1781
1792,1904,1872
1826,1879,1811
1930,1892,1802
1971,1932,1843
1821,1905,1863
1778,1874,1878
1781,1859,1792
1758,1846,1766
1803,1883,1779
1983,1997,1937
1847,1866,1808
1767,1807,1713
1856,1893,1805
1974,1955,1890
2099,1994,1889
2141,1946,1814
1962,1882,1835
1598,1844,1797
1525,1808,1696
1658,1834,1715
1795,1874,1808
1845,1860,1735
1863,1898,1760
1825,1899,1862
1831,1938,1938
1889,1943,1906
2029,1911,1757
1968,1861,1680
1746,1853,1693
1661,1863,1855
1679,1872,1843
1754,1858,1753
1770,1860,1796
1980,1920,1856
1872,1877,1797
1806,1877,1863
1940,1971,1904
1811,1865,1678
1969,1928,1739
1828,1790,1665
1602,1795,1744
1569,1820,1783
1759,1878,1831
1983,1947,1916
1919,1929,1888
1927,1901,1779
1874,1789,1661
1503,1797,1744
1653,1835,1778
1825,1857,1775
1887,1857,1789
1999,1957,1958
1709,1865,1901
1809,1837,1806
1983,1891,1840
2030,1819,1763
1625,1774,1731
1493,1791,1697
1712,1834,1781
1815,1841,1883
1840,1871,1947
1958,1911,1827
1792,1767,1643
1821,1798,1788
1765,1838,1894
1612,1797,1808
1737,1831,1729
1773,1841,1754
2177,1858,1826
2148,1758,1750
1335,1734,1675
1279,1808,1802
1642,1862,1914
1875,1853,1871
1987,1835,1813
1988,1904,1924
1871,1856,1890
1917,1825,1751
2065,1775,1802
1475,1682,1664
1296,1793,1776
1680,1852,1861
2032,1832,1792
1840,1826,1820
2229,2042,2159
2443,1847,1837
1433,1623,1535
1095,1665,1655
1419,1750,1855
1803,1792,1914
1739,1750,1751
1934,1859,1845
2359,2007,2027
1973,1785,1734
1268,1597,1522
1493,1746,1789
2320,1893,2007
1961,1789,1966
1507,1827,1776
1762,1837,1713
2141,1818,1884
1645,1701,1789
1335,1743,1652
1701,1840,1849
2031,1776,1857
1651,1787,1795
1759,1873,1937
1874,1821,1793
2035,1821,1776
1651,1781,1904
1582,1691,1713
1594,1744,1741
1789,1822,1904
2147,1872,1927
1791,1779,1744
1502,1822,1687
1760,1875,1916
1883,1813,1907
1808,1746,1797
1746,1750,1808
1613,1789,1910
1831,1846,2026
1963,1797,1782
1626,1802,1642
1692,1813,1748
1886,1811,1861
1744,1813,1856
1983,1890,1941
2131,1917,1995
1594,1726,1775
1414,1712,1746
1696,1775,1913
2107,1915,2057
1808,1850,1872
1469,1662,1694
1743,1693,1750
2242,1920,2037
1902,1800,1872
1535,1721,1684
1585,1761,1760
1851,1853,1982
1888,1850,2007
1990,1791,1883
1914,1712,1625
1829,1819,1914
1693,1778,1905
1626,1713,1802
1930,1881,1951
2224,1851,1965
1723,1677,1758
1232,1707,1711
1665,1808,1787
2047,1925,1968
1762,1785,1899
1683,1770,1807
2187,1838,1894
1968,1688,1840
1367,1785,1851
1638,1807,1875
1739,1761,1819
1797,1776,1888
1985,1840,1997
1916,1744,1810
1744,1747,1776
1731,1776,1821
1760,1809,1889
1859,1753,1825
1903,1801,1809
1991,1806,1930
1718,1786,2021
1663,1729,1772
1760,1783,1735
1742,1738,1710
1651,1757,1877
1719,1793,1942
1997,1872,2007
2179,1795,1923
1893,1746,1787
1680,1695,1757
1584,1711,1767
1893,1839,1872
1947,1792,2031
1871,1776,1887
1885,1818,1852
1922,1707,1782
1535,1703,1744
1499,1727,1761
1879,1836,1854
2122,1887,2019
1709,1702,1805
1817,1743,1858
1937,1745,1877
1714,1740,1744
1698,1744,1798
1835,1654,1723
1782,1677,1855
1743,1780,1986
2162,1854,1979
1969,1761,1750
1728,1782,1806
1712,1811,1963
1855,1881,2041
2022,1826,1891
1727,1689,1692
1645,1693,1665
1783,1786,1840
1910,1743,1846
2122,1822,1897
1886,1864,1973
1609,1786,1926
1618,1727,1732
2064,1840,1875
2531,1940,2059
1579,1635,1712
1296,1655,1655
1600,1696,1729
2023,1797,1852
2157,1830,2032
1942,1856,1878
1814,1662,1854
1680,1771,1934
1697,1791,1840
1842,1789,1730
1943,1790,1831
1791,1897,1872
1760,1725,1873
1856,1776,1840
1927,1785,1872
2043,1845,2054
2055,1901,1973
1808,1805,1870
1791,1763,1758
1663,1714,1694
1734,1759,1799
1935,1817,1905
2000,1782,1887
2127,1792,1874
1815,1697,1895
1489,1698,1761
1689,1770,1839
2029,1882,1975
2041,1819,1837
1730,1685,1715
1831,1743,1831
2055,1882,1952
1875,1821,1904
1790,1782,1927
1695,1651,1872
1851,1862,1935
2019,1819,1897
2009,1812,1791
1941,1711,1823
1824,1685,1879
1770,1776,1825
1877,1746,1850
2016,1794,1821
1815,1792,1783
1626,1824,1851
1875,1767,1818
2103,1876,1789
1941,1693,1928
1648,1743,1861
1678,1776,1726
2027,1859,1828
2286,1918,2058
1863,1808,1918
1578,1738,1734
1703,1823,1806
1862,1791,1921
1905,1779,1923
2253,1895,2005
1958,1806,1855
1726,1791,1904
1651,1775,1829
1840,1796,1755
2032,1798,1861
1941,1838,1844
2056,1875,1929
1911,1805,1787
1738,1791,1751
1904,1810,2020
1777,1790,1968
1666,1769,1766
1823,1785,1773
2315,1965,2032
2097,1805,1835
1661,1776,1808
1693,1814,1918
1943,1891,1872
2032,1882,1918
1766,1707,1813
1742,1803,1859
1767,1826,1875
1985,1904,1947
2516,1866,1857
2224,1853,1842
1518,1749,1840
1424,1776,1783
1699,1798,1739
1938,1846,1833
1971,1903,1980
1941,1861,1973
2175,1892,1900
1901,1805,1791
1664,1856,1893
1841,1870,1936
2463,1961,1937
1920,1722,1714
1476,1729,1798
1738,1825,1875
1942,1837,1846
2008,1858,1856
2226,1941,2004
2062,1887,1910
1678,1789,1702
1655,1798,1766
1951,1936,1998
2106,1879,1923
1776,1801,1814
1762,1805,1855
2070,1870,1861
2064,1840,1841
1843,1814,1811
1728,1831,1763
1730,1813,1786
1920,1892,1958
2014,1846,1854
2019,1890,1855
1901,1895,1933
1840,1835,1936
1947,1781,1687
1947,1851,1819
1861,1865,1959
1793,1870,1941
1897,1863,1843
1984,1872,1861
1959,1873,1905
2034,1906,2006
1929,1909,1814
1881,1814,1797
1840,1805,1795
1835,1825,1796
1776,1801,1723
1840,1849,1775
1914,1900,1890
1974,1893,1934
1889,1851,1867
1936,1891,1933
1959,1878,1877
1808,1824,1808
1887,1831,1799
1973,1867,1975
2007,1934,1961
1898,1938,1917
1810,1855,1755
1894,1874,1822
2160,1947,1911
2026,1851,1815
1729,1795,1799
1721,1838,1856
1829,1822,1850
2013,1875,1915
2321,1961,1905
1850,1875,1837
1607,1862,1894
1693,1840,1886
1915,1810,1790
2031,1906,1846
2167,1931,1969
1999,1858,1833
1725,1803,1786
1713,1831,1737
1906,1902,1839
2019,1965,1997
1935,1905,1846
1936,1936,1863
2215,1946,1897
1581,1769,1772
1488,1783,1744
1758,1847,1825
2133,1906,1901
2096,1877,1858
1872,1845,1834
1791,1855,1851
2023,1954,1941
2116,1901,1935
1667,1806,1758
1652,1854,1762
1795,1918,1863
1963,1919,1893
2005,1882,1855
2000,1950,1938
1955,1911,1985
1981,1872,1889
1904,1820,1743
1773,1871,1830
1856,1962,1932
1985,1974,1917
1872,1840,1786
1840,1857,1781
2041,1936,2003
1897,1898,1951
1855,1855,1799
2186,1917,1870
1845,1844,1910
1517,1839,1778
1744,1843,1695
2103,1901,1771
1899,1936,1931
1790,1941,1981
1887,1840,1837
2105,1846,1792
2000,1931,1967
1913,1919,1904
1873,1877,1843
1776,1858,1825
1819,1901,1905
1895,1914,1882
2041,1895,1894
1857,1843,1910
1778,1909,1851
1878,1937,1852
2037,1929,1872
2129,1931,1910
1971,1886,1845
1728,1849,1819
1734,1855,1845
1930,1936,1968
2095,1921,1963
1998,1870,1922
1712,1806,1659
1725,1868,1718
1901,1908,1861
1973,1931,1936
2109,1937,1878
1907,1913,1867
1806,1893,1890
1735,1854,1862
1837,1862,1799
1919,1917,1857
2058,1951,1936
2115,1970,1902
1843,1824,1711
1804,1823,1766
1858,1849,1910
1905,1917,1956
1920,1879,1835
1776,1823,1765
1797,1891,1837
1902,1909,1903
2047,1918,1890
2061,1931,1871
1889,1918,1839
2219,1886,1931
1833,1779,1789
1509,1839,1797
1627,1859,1775
2000,1893,1862
1943,1858,1793
1922,1887,1839
1919,1909,1950
1947,1837,1911
1874,1855,1837
1887,1903,1853
1904,1905,1847
1931,1952,1949
1905,1905,1872
1919,1872,1837
1919,1899,1868
1843,1894,1828
1841,1835,1762
1809,1893,1911
1904,1941,1951
1936,1885,1867
1968,1850,1776
1894,1894,1839
1963,1961,1882
1963,1872,1809
1900,1783,1674
1705,1786,1785
1690,1868,1831
1750,1904,1840
1872,1877,1842
2032,1919,1866
2218,1942,1889
1975,1930,1889
1851,1879,1865
1761,1807,1746
1734,1889,1887
1860,1919,1911
1877,1800,1735
1843,1881,1811
2074,2026,1912
2170,1954,1891
1713,1758,1746
1861,1897,1887
1924,1851,1856
1789,1891,1821
1798,1830,1714
1714,1806,1799
1791,1853,1878
2034,1915,1840
2054,1895,1806
1882,1852,1899
1728,1906,1872
1854,1943,1979
1905,1854,1808
1805,1823,1807
1791,1906,1892
1951,1904,1914
1913,1847,1875
1880,1895,1904
2127,1958,1899
2079,1951,1910
1939,1936,1930
1663,1840,1735
1529,1845,1801
1697,1832,1875
1812,1829,1732
1870,1853,1744
1951,1916,1969
2000,1895,1974
1936,1856,1716
2127,1883,1687
2064,1913,1856
2071,1937,2108
1591,1793,1812
1438,1803,1648
1776,1891,1837
2069,1903,1943
2000,1843,1814
1927,1925,1797
1984,1994,1943
1886,1852,1961
1618,1829,1739
1643,1856,1756
1857,1895,1935
2033,1866,1855
1866,1799,1788
1814,1883,1795
1843,1899,1865
1898,1900,1887
1876,1872,1875
1993,1853,1795
2025,1895,1956
1981,1974,2006
1819,1858,1781
1771,1783,1747
1805,1858,1762
2000,1872,1814
1904,1983,1855
1859,1983,1890
1649,1836,1840
1750,1814,1840
1879,1840,1808
2047,1874,1866
2064,1929,1959
2039,1846,1867
1694,1834,1792
1741,1872,1904
1918,1974,1903
2102,1933,1911
1916,1840,1873
1648,1807,1757
1748,1894,1815
1989,1936,1974
2058,1879,1894
1814,1807,1759
1743,1872,1808
1895,1968,1881
1861,1888,1914
2112,1875,1867
2129,1911,2019
1744,1858,1943
1696,1831,1776
2079,1878,1813
1899,1822,1744
1584,1840,1773
1605,1867,1804
2045,1923,1935
2112,1872,1939
2059,1902,1918
1662,1840,1755
1518,1839,1782
1838,1903,1860
1936,1872,1835
1853,1872,1853
1906,1855,1903
2006,1859,2004
1961,1822,1780
1681,1770,1654
1821,1887,1808
2250,1978,2040
1949,1811,1830
1505,1790,1705
1647,1873,1766
2003,1935,2039
2099,1883,2112
1902,1859,1766
1869,1872,1759
2005,1904,1872
2025,1922,1988
1654,1840,1833
1621,1791,1626
1813,1874,1937
2029,1968,1967
1991,1840,1839
1754,1755,1719
1744,1845,1835
1909,1936,1937
1979,1856,1840
2127,1913,2013
1975,1923,1967
1901,1853,1805
1856,1815,1709
1856,1806,1810
1575,1831,1775
1600,1854,1739
1903,1872,1843
2129,1936,1936
1991,1918,1922
1809,1854,1882
1791,1846,1857
1861,1837,1824
1907,1926,1872
1975,1963,2001
1943,1803,1851
1978,1865,1904
2005,1889,1849
1788,1840,1817
1648,1793,1776
1906,1841,1842
2009,1906,1894
1883,1937,1987
1978,1938,1995
1904,1817,1843
1710,1817,1724
1802,1893,1779
1891,1840,1802
2086,1847,1834
1918,1874,1949
1668,1847,1869
1663,1811,1789
2102,1883,1905
2007,1892,1891
1825,1907,1917
1712,1867,1814
1809,1846,1817
1825,1793,1816
1830,1859,1859
2026,1878,1847
1994,1861,1825
1854,1899,1895
1658,1819,1805
1957,1892,1805
2109,1872,1831
1819,1829,1878
1535,1787,1852
1744,1823,1762
2141,1930,1865
2230,1962,2037
1671,1783,1782
1514,1764,1670
1757,1829,1758
1950,1937,1989
1954,1884,1906
1816,1845,1769
1819,1840,1838
1941,1923,1920
2086,1935,1937
1970,1792,1941
1766,1840,1757
1712,1878,1739
1968,1981,1866
1990,1829,1776
1776,1840,1872
2019,1915,1981
1833,1808,1895
1598,1791,1776
1694,1824,1773
1936,1939,1920
2103,1893,1861
2000,1812,1744
1950,1874,1783
1995,1952,1872
1719,1808,1864
1632,1776,1876
1663,1835,1745
2007,1968,1855
2017,1901,1822
1841,1872,1757
1715,1845,1756
1778,1874,1903
1792,1875,1945
1881,1830,1823
1872,1859,1808
1991,1935,1984
1879,1870,1915
2129,1908,1847
1859,1765,1648
1652,1786,1712
1798,1869,1831
1968,1904,1849
1968,1874,1883
1839,1878,1861
1819,1919,1959
1998,1898,1911
1769,1812,1802
1807,1856,1904
1840,1928,1794
1744,1792,1648
1737,1811,1782
1963,1901,1936
1975,1904,1936
1919,1911,1890
1975,1929,1862
1867,1854,1776
1826,1892,1880
1888,1829,1804
1770,1795,1837
2000,1900,1911
1810,1839,1872
1648,1806,1808
1743,1879,1792
1943,1917,1857
2109,1901,1856
1929,1867,1854
1823,1864,1808
1661,1854,1844
1955,1949,1968
1985,1883,1882
2047,1840,1741
1684,1805,1726
1674,1833,1968
1862,1867,1903
1981,1947,1889
2062,1954,1947
1923,1877,1847
1798,1799,1689
1837,1872,1870
1796,1905,1926
1722,1858,1819
1808,1793,1686
1914,1840,1802
2034,1953,2037
1950,1891,1924
1799,1842,1782
1851,1858,1771
2027,1975,1984
2157,1967,1999
1723,1792,1733
1722,1797,1728
1915,1842,1794
1970,1902,1869
2034,1887,1789
1574,1815,1786
1648,1852,1901
1973,1927,1909
1959,1872,1773
1904,1856,1795
1904,1840,1910
1648,1786,1835
1565,1794,1709
1936,1881,1815
2114,2021,2000
2027,1936,1903
1799,1872,1857
1813,1856,1793
1842,1872,1814
1842,1833,1799
1873,1808,1787
1713,1855,1802
1755,1901,1915
2079,1919,1979
1982,1808,1759
1954,1943,1982
1919,1953,1954
1744,1856,1702
1713,1812,1658
1915,1895,1811
1886,1853,1845
1681,1842,1895
1710,1871,1898
2035,1897,1841
2224,2000,1984
1793,1808,1856
1745,1829,1845
1966,1929,1785
1719,1859,1679
1773,1839,1771
1890,1872,1872
2054,1893,1900
1935,1910,1936
1809,1851,1857
1887,1861,1839
1990,1925,1952
1874,1875,1843
1808,1878,1841
1903,1829,1712
1744,1805,1717
1770,1886,1936
2064,1935,1881
1852,1815,1742
1861,1866,1873
2199,1995,2081
2096,1878,2001
1568,1726,1610
1467,1771,1626
1841,1873,1803
1972,1915,1870
1783,1825,1831
1931,1857,1795
1923,1923,1968
2015,1924,1947
1773,1831,1765
1657,1818,1887
1921,1943,2026
1875,1845,1840
1796,1843,1719
2416,1986,1821
1948,1835,1764
1357,1781,1833
1607,1790,1809
2061,1888,1937
2179,2002,2000
1839,1888,1808
1509,1739,1634
1709,1795,1755
1808,1840,1858
1911,1872,1899
1975,1864,1802
2047,1902,1890
1907,1885,1951
1733,1863,1881
1810,1815,1840
1890,1908,1886
1937,1973,1963
1922,1872,1798
1875,1786,1642
1733,1826,1870
2286,1993,2066
1950,1789,1917
1566,1786,1744
1680,1827,1699
1926,1863,1815
1874,1824,1826
1705,1841,1751
1769,1870,1876
1871,1872,1950
1779,1828,1890
1845,1834,1712
1923,1870,1734
1990,1937,1986
1884,1878,1984
1869,1831,1792
1878,1861,1878
2157,1967,2032
1819,1840,1776
1727,1795,1721
1978,1889,1840
1878,1867,1897
1609,1819,1854
1721,1807,1781
1875,1840,1777
1922,1866,1872
1975,1920,1960
1850,1809,1781
