1822,1861,1790
1812,1883,1855
1792,1862,1837
1791,1838,1759
1808,1843,1777
1786,1852,1825
1799,1861,1840
1840,1869,1798
1808,1832,1757
1772,1835,1796
1757,1834,1798
1773,1808,1741
1802,1826,1750
1727,1840,1806
1817,1822,1792
1776,1808,1741
1865,1830,1750
1808,1863,1823
1776,1857,1837
1794,1825,1744
1856,1840,1744
1817,1867,1810
1742,1872,1831
1829,1838,1750
1759,1830,1744
1808,1872,1819
1822,1847,1807
1810,1831,1751
1798,1838,1741
1747,1855,1785
1774,1849,1790
1794,1813,1733
1792,1809,1735
1791,1848,1787
1789,1840,1776
1787,1809,1716
1819,1849,1744
1809,1872,1803
1767,1857,1790
1827,1840,1749
1789,1839,1739
1765,1891,1810
1781,1876,1804
1765,1810,1710
1773,1817,1712
1789,1855,1790
1793,1856,1798
1835,1837,1728
1806,1840,1737
1815,1870,1803
1790,1843,1786
1805,1825,1728
1807,1833,1738
1845,1872,1818
1835,1903,1841
1809,1855,1739
1789,1807,1710
1767,1827,1769
1797,1847,1779
1834,1840,1745
1841,1854,1773
1818,1870,1804
1825,1886,1819
1812,1851,1747
1788,1824,1712
1803,1851,1776
1744,1858,1792
1851,1845,1739
1764,1840,1733
1771,1872,1819
1812,1868,1796
1845,1840,1732
1823,1863,1761
1813,1893,1807
1830,1882,1805
1820,1853,1732
1854,1872,1744
1778,1873,1796
1840,1859,1803
1823,1830,1728
1793,1840,1728
1856,1898,1824
1834,1904,1822
1822,1825,1717
1827,1810,1714
1798,1870,1786
1782,1840,1776
1803,1806,1711
1843,1846,1744
1825,1877,1805
1802,1857,1786
1808,1845,1726
1867,1893,1773
1826,1878,1797
1807,1862,1788
1819,1838,1735
1854,1866,1766
1869,1879,1805
1829,1867,1792
1851,1838,1729
1815,1862,1747
1835,1891,1810
1838,1891,1827
1847,1867,1745
1870,1899,1763
1843,1901,1802
1838,1863,1780
1863,1838,1727
1870,1866,1743
1821,1872,1794
1807,1856,1776
1809,1829,1715
1837,1863,1749
1829,1889,1813
1826,1874,1808
1840,1858,1753
1835,1862,1747
1847,1905,1832
1855,1905,1843
1881,1839,1712
1776,1853,1730
1840,1904,1831
1835,1921,1853
1723,1842,1750
1808,1841,1744
1791,1878,1811
1808,1883,1822
1847,1871,1763
1841,1872,1771
1847,1895,1829
1840,1878,1821
1814,1859,1757
1856,1877,1779
1843,1893,1836
1803,1897,1830
1837,1857,1757
1807,1865,1770
1868,1915,1853
1835,1894,1821
1820,1845,1728
1840,1861,1759
1910,1892,1836
1840,1887,1827
1853,1872,1774
1855,1863,1772
1853,1892,1834
1840,1873,1810
1847,1850,1747
1872,1882,1776
1872,1909,1850
1807,1863,1813
1829,1833,1744
1844,1861,1761
1863,1926,1853
1904,1929,1872
1871,1892,1775
1808,1813,1704
1853,1856,1806
1821,1855,1808
1837,1862,1776
1861,1871,1785
1845,1877,1823
1827,1867,1814
1857,1849,1766
1874,1883,1797
1856,1920,1869
1865,1913,1862
1834,1840,1762
1921,1851,1771
1801,1877,1845
1851,1883,1842
1867,1871,1779
1874,1871,1775
1867,1896,1840
1898,1934,1885
1881,1898,1807
1797,1807,1723
1781,1826,1771
1821,1854,1818
1840,1840,1773
1852,1859,1779
1861,1894,1867
1850,1878,1835
1856,1854,1773
1855,1865,1779
1855,1877,1851
1856,1888,1847
1886,1887,1807
1881,1872,1802
1849,1870,1839
1825,1857,1825
1822,1814,1747
1829,1842,1770
1855,1891,1863
1847,1866,1829
1862,1843,1770
1879,1885,1813
1825,1878,1851
1805,1857,1819
1837,1834,1764
1851,1842,1779
1858,1879,1850
1869,1898,1869
1871,1855,1793
1840,1830,1773
1847,1862,1840
1853,1872,1844
1843,1830,1764
1855,1847,1794
1845,1881,1850
1853,1883,1904
1844,1838,1765
1862,1854,1755
1862,1882,1838
1859,1874,1851
1855,1836,1785
1882,1872,1813
1871,1903,1861
1839,1867,1830
1840,1830,1762
1851,1851,1781
1854,1877,1844
1845,1870,1840
1879,1866,1801
1866,1856,1791
1853,1873,1855
1839,1863,1841
1855,1841,1784
1875,1859,1791
1860,1881,1839
1858,1872,1843
1887,1876,1815
1861,1860,1805
1826,1863,1829
1833,1867,1836
1873,1856,1779
1906,1883,1815
1861,1877,1856
1804,1833,1795
1815,1814,1722
1857,1855,1763
1884,1904,1867
1851,1874,1835
1837,1838,1760
1855,1857,1782
1852,1893,1850
1852,1875,1839
1874,1856,1783
1888,1875,1801
1870,1907,1858
1887,1915,1871
1878,1890,1803
1872,1887,1794
1819,1867,1803
1810,1847,1795
1867,1875,1791
1871,1882,1799
1831,1872,1823
1840,1875,1833
1856,1852,1776
1835,1831,1773
1846,1870,1829
1861,1888,1846
1859,1861,1781
1857,1867,1790
1840,1876,1829
1840,1871,1827
1868,1850,1780
1881,1880,1799
1875,1920,1877
1882,1925,1875
1873,1872,1789
1867,1888,1802
1831,1877,1835
1833,1868,1830
1855,1849,1778
1871,1872,1812
1863,1909,1865
1867,1911,1865
1878,1882,1799
1883,1895,1822
1869,1904,1878
1840,1875,1839
1843,1862,1773
1856,1869,1805
1856,1894,1869
1851,1875,1849
1868,1869,1798
1891,1881,1809
1863,1898,1871
1826,1871,1833
1831,1861,1771
1835,1856,1776
1844,1883,1851
1850,1870,1845
1845,1840,1770
1867,1870,1822
1863,1904,1877
1856,1889,1840
1869,1871,1773
1869,1887,1808
1843,1891,1866
1830,1870,1842
1847,1859,1790
1874,1887,1819
1887,1929,1890
1882,1915,1881
1872,1872,1810
1857,1878,1810
1837,1875,1852
1830,1863,1840
1829,1825,1773
1868,1872,1834
1862,1899,1885
1828,1868,1829
1852,1871,1792
1861,1872,1825
1835,1872,1850
1834,1872,1841
1841,1853,1792
1870,1877,1820
1872,1910,1890
1854,1889,1873
1849,1851,1786
1861,1872,1808
1877,1904,1887
1866,1899,1879
1846,1855,1807
1849,1803,1807
1856,1885,1889
1878,1922,1873
1885,1891,1806
1872,1872,1821
1814,1821,1831
1823,1870,1827
1853,1819,1795
1885,1837,1840
1913,1959,1927
1843,1892,1849
1807,1831,1755
1849,1863,1807
1856,1889,1872
1856,1872,1861
1865,1845,1803
1879,1878,1840
1858,1906,1872
1855,1875,1856
1872,1846,1825
1879,1855,1821
1867,1899,1868
1863,1901,1865
1854,1858,1796
1868,1917,1814
1843,1882,1872
1847,1871,1863
1838,1837,1786
1856,1859,1801
1870,1887,1879
1871,1877,1883
1840,1872,1783
1847,1836,1794
1849,1889,1882
1836,1858,1872
1840,1840,1779
1856,1857,1809
1851,1882,1867
1855,1845,1875
1859,1821,1808
1879,1855,1835
1883,1959,1909
1857,1873,1867
1872,1858,1818
1847,1846,1807
1843,1934,1861
1843,1873,1867
1891,1895,1849
1882,1882,1845
1842,1869,1874
1815,1821,1839
1840,1785,1791
1875,1889,1841
1883,1938,1905
1886,1878,1918
1825,1873,1774
1823,1858,1777
1822,1819,1838
1825,1818,1844
1857,1793,1798
1886,1854,1837
1881,1953,1899
1863,1887,1882
1841,1811,1796
1851,1861,1811
1868,1890,1889
1872,1920,1877
1855,1826,1799
1874,1866,1835
1856,1847,1883
1841,1851,1857
1862,1856,1807
1870,1839,1826
1872,1916,1910
1871,1891,1875
1852,1827,1779
1857,1841,1802
1859,1879,1874
1838,1843,1849
1866,1839,1803
1872,1854,1817
1855,1871,1882
1840,1838,1844
1851,1820,1783
1875,1849,1825
1871,1876,1886
1872,1872,1885
1872,1855,1812
1853,1849,1806
1855,1879,1864
1850,1861,1857
1867,1840,1810
1878,1906,1839
1875,1886,1895
1858,1857,1848
1865,1840,1799
1899,1874,1838
1862,1870,1889
1815,1830,1823
1839,1839,1767
1869,1845,1811
1872,1887,1895
1872,1861,1881
1868,1830,1795
1891,1869,1837
1893,1894,1904
1849,1847,1864
1819,1794,1762
1849,1738,1790
1856,1864,1871
1865,1840,1869
1881,1822,1813
1886,1843,1841
1885,1872,1904
1857,1814,1856
1849,1778,1779
1869,1900,1815
1841,1905,1872
1838,1904,1859
1858,1850,1805
1883,1825,1840
1872,1861,1897
1872,1861,1901
1882,1859,1823
1925,1886,1871
1903,1878,1904
1823,1808,1833
1856,1819,1805
1867,1875,1823
1870,1885,1891
1857,1871,1865
1885,1865,1825
1889,1886,1849
1862,1872,1875
1846,1823,1859
1879,1863,1818
1878,1849,1837
1867,1867,1895
1878,1868,1877
1867,1841,1791
1885,1870,1830
1846,1865,1859
1861,1868,1867
1870,1847,1804
1898,1870,1859
1878,1921,1898
1887,1856,1904
1869,1821,1823
1856,1802,1800
1840,1899,1863
1834,1837,1838
1890,1855,1826
1950,1999,1858
1882,1951,1887
1787,1882,1813
1791,1777,1745
1863,1827,1823
1930,1951,1949
1903,1873,1894
1886,1874,1794
1836,1839,1786
1808,1840,1828
1919,1895,1890
1951,1851,1824
1959,1882,1807
1918,1899,1868
1901,1893,1863
1794,1801,1758
1844,1874,1838
1927,1951,1910
2146,1935,1831
2065,1859,1693
1933,1910,1769
1977,1885,1763
1763,1840,1763
1839,1874,1797
1968,1936,1841
1986,1892,1814
2096,1913,1815
2033,1925,1846
1629,1845,1808
1583,1902,1945
2081,1985,1909
2103,1919,1708
1860,1934,1840
2174,1973,1852
1856,1728,1674
1721,1817,1760
1838,1872,1901
1666,1822,1789
1892,1889,1769
1803,1848,1668
2061,1883,1735
1879,1927,1846
1849,1857,1792
1706,1810,1647
1911,1841,1622
1747,1827,1712
1854,1916,1597
2094,1837,1535
1810,1798,1616
1739,1857,1633
1894,1910,1666
1967,1921,1710
1984,1902,1527
1829,1893,1557
1808,1875,1439
1594,1826,1298
2192,1904,1574
1818,1811,1459
1973,1947,1502
1747,1840,1285
1295,1765,1351
1625,1920,1606
1986,1921,1569
1847,1774,1103
2221,1971,1559
1893,1825,1424
1251,1722,1408
1345,1807,1535
1866,1943,1497
2587,1937,1565
1793,1728,1205
1023,1734,1191
1661,1911,1441
2371,1917,1494
2113,1744,1414
1375,1738,1403
1456,1794,1505
2203,1891,1475
2188,1763,1323
2058,1794,1452
1373,1681,1520
1298,1841,1529
1475,1807,1468
1776,1813,1535
2149,1885,1621
2320,1920,1618
1744,1776,1462
1219,1675,1439
1869,1776,1335
1686,1661,1354
1654,1774,1712
1680,1680,1616
1646,1715,1473
1633,1808,1535
1913,1881,1648
2141,1815,1518
2143,1811,1594
1600,1639,1318
1462,1724,1631
1506,1712,1505
1708,1744,1644
1803,1782,1846
1597,1717,1552
1745,1667,1347
2350,1819,1471
2149,1876,1773
1760,1737,1803
1435,1586,1509
1389,1639,1562
1966,1751,1674
2153,1793,1748
1434,1676,1655
1390,1749,1709
1792,1844,1725
2032,1790,1741
1872,1654,1584
1674,1669,1532
1893,1662,1517
1695,1579,1474
1425,1712,1743
1506,1764,1815
1817,1850,1922
1818,1694,1647
2047,1776,1855
2209,1731,1748
1726,1582,1399
1826,1727,1750
1705,1585,1535
1359,1664,1683
1712,1779,1922
1934,1795,1773
2063,1827,1811
1910,1597,1474
1147,1581,1718
1219,1705,1804
1693,1746,1747
1891,1761,1904
1827,1712,1862
1894,1681,1814
2126,1712,1622
2045,1747,1700
2256,1755,1898
2158,1554,1521
1600,1692,1712
1441,1732,1861
2829,1982,2029
1982,1728,1910
1221,1559,1646
1023,1511,1514
1904,1873,2135
2827,1957,2027
1853,1575,1463
770,1534,1682
1057,1613,1925
2219,1679,1825
2370,1795,2045
1763,1659,1744
1274,1667,1667
1626,1664,1803
1520,1693,1761
1779,1751,1776
2102,1831,1931
2316,1742,1971
1920,1625,1674
1327,1631,1751
1475,1740,1959
1998,1797,2001
1603,1577,1594
1392,1618,1794
1975,1840,2069
2451,1728,2150
2363,1680,1842
1509,1653,1568
1033,1773,1859
1495,1842,2207
1693,1722,1919
1899,1727,1743
1793,1767,1738
1476,1737,1915
1991,1680,1803
2430,1722,1929
1707,1857,2075
1702,1744,1923
1490,1600,1663
2099,1755,1746
1502,1673,1951
1421,1692,2023
1749,1743,2111
2142,1877,1978
2286,1877,1968
1777,1680,1770
1216,1712,1934
1728,1712,1739
1853,1786,1839
1660,1714,1999
1535,1792,2010
2110,1893,2000
2167,1704,1649
1375,1712,1919
1635,1866,2133
2522,1893,2039
1999,1584,1743
1100,1677,1969
1813,1853,2002
1658,1800,1806
1856,1843,1915
1790,1718,1845
2165,1882,2124
2085,1941,2174
1610,1697,1869
1666,1759,1915
1879,1697,1740
1819,1744,1748
1699,1867,2120
1313,1776,2068
1825,1814,1910
2034,1901,2046
2171,1895,2082
2086,1793,1984
1799,1701,1836
1535,1755,1874
1697,1873,2112
2429,2016,2148
2103,1718,1722
2635,1908,1967
2131,1808,1817
1159,1735,1984
1277,1783,2182
1980,1850,2033
1666,1717,1895
1464,1827,1991
2131,1811,1820
1794,1802,1755
1535,1830,2064
2278,1840,2061
1867,1718,1754
1474,1805,1937
1450,1920,2191
1745,1823,2203
1872,1749,2015
1858,1709,1626
1798,1905,1706
1762,1982,2162
2485,1861,2134
2145,1770,1871
1461,1843,1811
1447,1827,2112
1529,1841,2057
1873,1953,2091
2471,1823,1973
2159,1707,1815
1857,1725,1626
1171,1807,2017
1796,1839,2097
1774,1858,1974
1583,1845,1997
1947,1890,1850
1936,1860,2001
1789,1830,2224
1631,1798,1951
1712,1826,1776
1670,1868,1927
2303,1937,2096
2857,1954,1837
1826,1825,1921
1438,1818,2175
1482,1718,1964
1882,1866,2017
1819,1834,1963
1511,1855,1882
1811,1854,1790
2245,1842,1901
1854,1821,1993
1575,1841,2014
1944,1938,1981
1968,1798,1934
2237,1985,2112
2226,1872,2025
1574,1783,1993
1146,1769,1790
1525,1926,2037
2256,1963,2101
2064,1869,1968
1686,1840,1953
1883,1879,1813
2302,1953,1945
2265,1809,1949
1727,1803,1778
1231,1855,1931
1472,1907,2081
2400,1875,1968
2174,1861,2069
2160,1950,2082
1707,1808,1659
1535,1815,1846
1770,1946,2128
1599,1857,2065
2113,1914,1906
2431,1918,1860
2099,1918,1879
2093,2009,2011
1885,1939,2002
1808,1884,2073
1898,1869,1862
1394,1696,1795
1562,1845,2046
2261,1927,1959
1618,1825,1861
1761,1866,1935
1909,1860,2065
2461,1976,2066
1904,1723,1517
1297,1807,1824
1618,1991,2251
1997,1943,2059
1889,1882,1920
1795,1903,1899
1798,1963,2077
2075,1847,1840
2086,1817,1739
1910,1957,1939
1950,1931,2106
1871,1983,2177
2087,1876,1856
1818,1822,1808
1946,1967,1972
1755,1843,1861
1751,1849,1895
2002,1859,1898
1727,1814,1872
2074,1916,1921
1852,1823,1878
1654,1867,1975
2230,2022,1947
2187,1941,1867
1888,1874,2181
1470,1808,1858
1797,1909,1950
2343,1865,1682
1602,1817,1923
1595,1926,2062
1927,2023,2073
1977,1929,1900
2000,1866,1775
1954,1829,1767
2032,1929,2047
2667,2109,2288
1889,1737,1677
1074,1741,1666
1643,1841,2019
2228,1830,2031
2165,2000,2032
2301,2000,1861
1749,1858,1727
1259,1852,1887
2128,1974,2129
2208,1797,1958
1796,1815,1839
1376,1983,1790
1857,1983,1888
2082,1923,1983
1696,1792,1801
1489,1840,1856
1765,1890,1902
3069,2173,2179
2123,1763,1662
1433,1776,1777
1486,1855,1920
1767,1966,2006
2154,1974,1990
1788,1779,1850
1901,1963,1939
2341,1951,1906
1911,1835,1787
1401,1805,1857
1621,1898,1936
2454,2059,2032
2379,1953,2055
1701,1794,1774
1650,1775,1806
1797,1878,1909
1615,1931,1937
1990,1970,1985
1911,1856,1733
1649,1814,1651
2010,1903,1968
1791,1860,1975
1978,1904,2112
1995,1877,1818
2053,1977,1872
1870,1835,1744
1826,1940,1895
1939,2007,2112
2155,1919,2038
2353,1895,1957
2014,1680,1744
1186,1856,1521
1462,2006,1762
2128,1936,1875
1918,1833,1904
2383,2032,2160
2624,1926,1982
1634,1711,1633
1280,1831,1792
2358,1951,2039
1731,1882,1744
1492,1808,1688
1749,1821,1926
1991,1849,2014
1887,1941,1792
2113,1926,1783
2199,1982,2112
1829,1854,1866
1913,1932,1850
1616,1834,1829
2036,1910,1872
2320,1872,1931
1825,1821,1745
1421,1873,1747
1851,1936,1904
2214,1959,2210
2233,1933,1840
1659,1758,1616
1496,1846,1691
1585,1885,1907
1822,1944,2087
2214,1875,2080
2487,1863,1703
1729,1831,1626
1586,1962,1956
2233,2022,2131
1978,1802,1798
1696,1806,1728
1719,1873,1821
1677,1885,1769
1779,1883,1900
2045,1862,1925
2182,1926,1891
1981,1895,1905
1881,1912,2038
1831,1938,1815
1969,1863,1863
2062,1810,1854
2073,1869,1849
2001,1919,1859
1744,1898,1776
1375,1802,1705
1715,1841,1837
2245,1988,1966
2000,1869,1836
1790,1872,1922
2291,1953,1988
2362,1797,1865
1469,1815,1763
1357,1911,1792
1990,1909,1891
2057,1904,1819
1855,1953,1954
1979,1853,1989
1819,1794,1738
1867,1959,1933
2034,1863,1808
1639,1756,1585
1741,1894,1796
2077,2014,2096
2350,1954,2121
2016,1809,1840
1791,1879,1776
1761,1926,1728
1860,1955,1876
1825,1834,1889
1645,1737,1648
1502,1839,1749
2086,1981,2000
2047,1857,1925
2013,1827,1791
1773,1823,1730
2221,1935,1929
2189,1908,1895
1772,1856,1874
1721,1888,1911
1998,1966,1921
1977,1893,1819
2270,1760,1595
1736,1801,1707
1443,1855,1886
1973,1949,2071
2098,1881,1984
1633,1771,1712
1735,1855,1808
1839,1873,1859
2031,1775,1723
1793,1811,1749
2274,2047,1994
2022,1920,1883
1601,1805,1855
1755,1935,1928
2053,1850,1844
2042,1791,1733
2500,1989,2101
2111,1853,1721
1535,1830,1727
1603,1745,1700
1648,1752,1701
1984,1907,1840
2078,1969,1959
1953,1814,1845
1798,1791,1789
2443,1927,2054
1771,1818,1865
1347,1807,1754
1876,1947,1808
2351,1900,1861
1808,1777,1809
1507,1822,1754
1865,1838,1847
2291,1920,1925
2123,1744,1675
1723,1856,1747
1962,1950,2125
2102,1767,1621
1535,1862,1810
1716,1909,1947
2044,1930,1843
1731,1829,1809
2017,1861,2006
2341,1819,1911
1650,1744,1577
1606,1876,1775
1826,1911,1978
2011,1987,2030
2096,1831,1762
1990,1840,1818
1910,1857,2165
1904,1872,1821
1840,1785,1431
2210,1854,1869
1680,1825,2026
1654,1823,1904
1639,1810,1472
1943,1858,1587
1968,1856,1785
1937,1820,1990
1763,1831,1766
2224,1948,1723
1725,1798,1840
1649,1867,1926
2015,1941,1938
2452,1939,1936
1963,1839,1730
2083,1873,1745
1426,1744,1776
1594,1968,1997
1910,1885,1941
1879,1833,1793
1888,1872,1744
2131,1807,1731
1585,1814,1779
1638,1868,1951
2069,1855,1822
2047,1941,1807
1883,1923,2035
2195,2000,2087
1793,1753,1675
1797,1715,1761
2083,1824,1823
1739,1858,1767
1637,1896,1685
1703,1885,1830
1921,1867,2001
2559,1914,2114
1904,1846,1680
1638,1833,1607
2066,1865,1739
1715,1846,1808
1651,1817,1973
1841,1798,1954
2026,1875,1829
2064,1918,2069
1936,1838,1734
1618,1838,1680
1791,1862,1778
1983,1837,1889
1969,1787,1764
1606,1827,1746
1623,1923,1936
2139,1941,2022
2405,1768,1831
1759,1899,1901
1904,1936,1930
1766,1770,1667
1637,1791,1682
1754,1827,1726
2089,2018,1917
1917,1823,1756
1600,1805,1807
1979,1878,2057
1959,1856,1936
1744,1802,1783
1879,1815,1717
1968,1902,1762
1898,1857,1730
1841,1883,2001
1910,1870,1954
1867,1861,1793
2088,1911,1783
2002,1886,2019
2117,1815,1961
2125,1955,1902
1535,1788,1651
1301,1741,1493
1680,1843,1792
2268,1968,2177
2112,1872,1779
1681,1862,1713
1479,1743,1681
1964,1893,1978
2353,1885,2095
1866,1808,1851
1511,1808,1506
1839,1973,1826
2000,1844,1927
1858,1895,1920
2009,1971,1936
2383,1931,2143
1871,1754,1639
1523,1717,1415
1659,1761,1678
2128,1879,1937
2013,1845,1904
1600,1887,1907
1842,1911,1858
2229,1988,1942
1726,1818,1823
1724,1824,1785
1901,1826,1659
1759,1807,1965
1874,1947,2071
1931,1910,1865
1930,1855,1729
1946,1873,1807
2182,1966,2089
2002,1820,2033
1744,1766,1712
2166,1982,1853
1584,1791,1663
1456,1835,1819
1869,1841,1803
2045,1877,1905
1975,1789,1930
2213,2064,1984
1922,1886,1766
1528,1723,1627
1635,1768,1829
2096,1907,2109
1915,1784,1747
1665,1926,1821
2271,2047,2132
2064,1913,1850
1504,1806,1666
2122,1987,2006
1821,1767,1670
1427,1730,1641
1759,1877,1890
2420,2001,2063
1968,1808,1807
1483,1744,1757
1613,1806,1792
1915,1967,2063
2047,1966,1981
2214,1866,1773
1946,1766,1905
1711,1849,1854
1653,1922,1872
1938,1818,1807
2625,1949,1982
2128,1851,1863
1173,1770,1721
1389,1852,1929
2112,1852,1863
2028,1803,1641
1697,1879,1833
1957,1935,1907
1945,1840,1813
1807,1761,1821
1819,1962,1941
1861,1907,1910
2045,1867,1866
2005,1870,1908
1841,1966,1923
1957,1855,1735
1763,1827,1829
1854,1927,1919
1981,1821,1902
1659,1781,1711
1764,1921,1779
1913,1923,1920
1834,1873,1923
2512,1979,1951
2066,1771,1685
1253,1788,1791
1515,1930,1971
2150,2059,2129
2111,1852,1791
1782,1797,1660
1650,1841,1869
1884,1802,1946
2158,1802,1957
2023,1918,1786
1739,1987,1820
1967,1915,1888
1726,1780,1719
1898,1904,1911
2064,2045,2057
2099,1818,1782
1695,1763,1670
1454,1799,1838
1841,1831,1947
1996,1840,1807
1851,1873,1813
2228,2032,2143
1701,1821,1788
1457,1823,1618
1691,1795,1719
2075,1954,1967
2254,1877,1923
1783,1883,1789
1830,1907,1774
1841,1871,1829
1926,1856,1942
1873,1891,1979
1794,1750,1695
1963,1809,1935
2092,1947,2150
1767,1779,1867
1594,1782,1570
2035,1839,1685
1904,1830,1850
2015,1984,2063
2098,1809,1934
1535,1825,1790
1812,1945,1840
2349,1997,1883
2314,1778,1823
1370,1746,1825
1309,1837,1795
1639,1819,1776
1947,1881,1789
2022,1936,1918
1941,1867,1968
1796,1812,1808
2013,1872,1817
2045,1877,1959
2352,2000,2147
1740,1744,1663
1376,1791,1728
1719,1947,1884
2065,1904,1850
1858,1821,1878
1807,1831,1899
2236,1986,2000
2342,1862,1997
1767,1775,1731
1367,1726,1517
1738,1927,1934
1875,1984,2016
1833,1845,1791
1771,1783,1765
1977,1816,1910
2158,1829,1808
2003,1947,1938
1872,1815,1794
1520,1761,1776
1651,1813,1964
1902,1893,2008
2199,1936,1932
2055,1887,1792
2000,1833,1790
2085,1903,1951
2041,1725,1744
1375,1703,1749
1338,1793,1854
1773,1805,1847
2169,1917,1966
2273,1895,2089
1763,1655,1805
1606,1845,1648
1956,1907,1742
1986,1821,1803
2105,1890,1970
1782,1774,1776
1535,1769,1766
1838,1831,2059
1981,1841,1975
2177,1840,1857
1683,1761,1630
1859,1886,1801
2054,1923,1932
1969,1862,1895
1817,1846,1897
1872,1925,2061
1984,1875,2003
1579,1766,1712
1645,1706,1636
2066,1943,1951
2189,1856,1978
1885,1839,1892
1855,1915,1856
1984,1895,2003
1780,1762,1637
1650,1705,1478
1600,1719,1788
1869,1953,2079
1932,1977,2020
2059,1927,2011
2064,1829,1840
1942,1936,1879
1869,1908,1797
2219,1960,1927
2183,1863,1862
1535,1779,1719
1757,1904,1975
2002,1798,1904
1706,1810,1705
1593,1902,1685
1943,1921,1963
2261,1783,1940
1680,1775,1677
1569,1871,1826
2152,1985,1965
1935,1809,1843
1698,1797,1755
1800,1947,1843
2103,1931,1955
1995,1807,1929
1715,1808,1803
2096,2000,1986
1757,1818,1818
1519,1781,1745
2106,1920,1926
2423,1949,1859
1724,1951,1909
1412,1777,1747
2432,2007,2154
2259,1754,1772
1269,1669,1581
1370,1805,1701
1745,1830,1766
2269,1981,2109
2047,1844,2001
1702,1803,1735
1851,1871,1747
1987,1971,1915
1868,1931,1967
1881,1841,1917
1822,1845,1744
1949,1934,1858
1869,1812,1881
1887,1789,1823
1931,1918,1949
1958,1867,1904
1843,1811,1855
1667,1841,1691
1899,1878,1803
2112,1931,1921
1831,1874,1856
1904,1806,1793
1885,1823,1757
1717,1888,1984
1638,1850,1904
1828,1846,1735
2077,1826,1801
2017,1922,2043
1985,1985,2045
2029,1891,1888
1795,1815,1793
1849,1866,1814
1741,1815,1771
1744,1783,1830
1717,1779,1794
1959,1838,1831
2112,1968,1920
1782,1851,1971
1681,1776,1742
1977,1907,1895
1908,1855,1874
2015,1850,1935
2134,1906,1911
2054,1934,1943
1653,1787,1805
1661,1792,1730
1799,1805,1819
1658,1840,1836
1765,1859,1799
2108,1857,1814
1970,1841,1746
1841,1910,1904
2023,1982,2019
1992,1840,1870
1863,1775,1837
1696,1777,1834
1554,1862,1893
1737,1805,1873
1891,1858,1841
1941,1929,1854
2020,1913,1937
1912,1872,1815
1824,1799,1666
1892,1846,1829
2234,2064,2241
2224,1939,1987
1472,1713,1535
1377,1755,1683
1742,1858,1904
1813,1845,1904
1877,1826,1847
2288,1917,1978
2061,1811,1731
1750,1845,1758
1766,1914,1843
2145,1921,1908
1873,1820,1856
1741,1881,1802
1696,1837,1821
1765,1791,1873
1779,1839,1866
1968,1886,1943
2000,1911,1902
1984,1935,1778
1894,1948,1858
2166,1959,2128
1797,1737,1739
1574,1764,1670
1584,1793,1739
1825,1834,1760
2178,1892,1819
2160,1956,1883
1817,1922,1907
1749,1875,1958
1877,1769,1818
1903,1840,1856
1712,1887,1904
1762,1878,1981
1885,1863,1761
2192,1968,1809
1915,1977,1938
1789,1861,1916
1849,1767,1683
1758,1810,1807
1778,1873,1905
2063,1905,1956
2000,1891,1866
1712,1850,1808
1903,1903,1887
2326,1955,1936
1696,1695,1699
1519,1733,1835
1781,1851,1872
1943,1955,1920
2066,1924,1856
2112,1929,1914
1743,1877,1904
1591,1808,1744
1777,1805,1825
2067,1888,1948
2000,1911,1895
1852,1892,1872
1871,1889,1958
2009,1915,1849
1909,1855,1789
1785,1840,1737
1859,1790,1739
1819,1831,1908
1722,1891,1902
1772,1878,1862
2165,1936,1873
2002,1838,1713
1851,1877,1920
1867,1825,1879
1779,1834,1805
1838,1913,1939
1915,1863,1873
1828,1802,1844
1889,1909,1895
1982,1953,1949
2245,1916,1947
1653,1746,1578
1498,1806,1759
1783,1925,1959
1946,1938,2010
1919,1856,1930
1995,1840,1776
2274,1883,1791
1714,1822,1772
1554,1824,1918
1744,1822,1776
1986,1891,1918
2234,1968,1899
1943,1842,1872
1703,1842,1808
1836,1905,1873
2002,1919,1927
2343,1907,1903
1703,1739,1682
1520,1823,1741
1759,1893,1919
1904,1848,1879
2017,1850,1803
1803,1810,1809
1797,1905,1967
1962,1901,1886
1922,1829,1830
2119,1926,1867
2147,1936,1871
1775,1793,1745
1553,1760,1727
1697,1854,1850
1990,1951,1938
2029,1919,1828
1904,1857,1857
1781,1862,1859
1778,1885,1919
1958,1856,1929
2374,1959,2046
1955,1781,1670
1618,1889,1712
1712,1871,1753
1792,1743,1751
1822,1862,1951
1922,1922,1986
2019,1917,1883
2043,1920,1851
1785,1866,1811
1824,1894,1982
1842,1881,1931
1973,1873,1823
1985,1838,1817
1966,1907,1856
1678,1847,1775
1829,1856,1840
2255,1953,1907
1775,1840,1799
1700,1809,1855
1919,1839,1821
1762,1853,1807
1728,1928,1919
1927,1903,1968
2113,1803,1709
1968,1818,1658
1679,1914,1975
1969,1970,1999
1983,1805,1770
1712,1795,1803
1733,1924,1953
1996,1920,1847
1999,1856,1853
1852,1850,1835
1894,1895,1898
1963,1857,1727
1883,1847,1791
1727,1858,1808
1712,1871,1856
1845,1863,1866
2000,1856,1856
1987,1902,1887
2148,2000,1984
1953,1874,1879
1779,1827,1787
1795,1797,1675
1793,1900,1781
1977,1887,1906
1827,1808,1854
1674,1853,1835
1794,1915,1802
2086,1905,1840
2067,1853,1750
1840,1841,1898
1725,1885,1990
1922,1872,1795
2053,1856,1773
1973,1909,1808
1743,1890,1854
1666,1850,1849
1847,1872,1842
2167,1942,1854
2174,1933,1982
2092,1818,1847
1498,1793,1650
1456,1840,1743
1749,1904,1871
1963,1855,1797
2028,1872,1865
2019,1909,1846
2096,1885,1799
1723,1811,1857
1648,1798,1780
1967,1947,1885
2067,1903,1862
1779,1854,1763
1686,1858,1767
1839,1872,1776
1967,1903,1895
2085,1928,1958
1798,1795,1778
1584,1831,1761
1914,1983,2014
2091,1840,1795
1678,1761,1744
1771,1882,1907
2064,1904,1824
1937,1811,1778
1675,1856,1805
1634,1886,1936
2022,1919,1792
2287,1882,1780
1776,1796,1610
1493,1826,1866
1767,1879,1941
1931,1916,1878
1821,1907,1909
2000,1934,1974
