1808,1859,1866
1808,1842,1814
1819,1871,1851
1808,1890,1899
1797,1862,1839
1807,1836,1806
1819,1875,1868
1818,1904,1904
1793,1843,1830
1779,1815,1790
1823,1858,1904
1807,1871,1890
1797,1842,1858
1823,1829,1825
1838,1875,1863
1809,1883,1910
1776,1828,1876
1807,1823,1827
1831,1857,1847
1802,1856,1921
1794,1835,1840
1817,1820,1792
1839,1843,1840
1813,1869,1895
1809,1841,1852
1815,1822,1787
1826,1847,1833
1817,1874,1888
1824,1869,1866
1837,1843,1806
1818,1842,1810
1804,1856,1856
1801,1850,1846
1813,1823,1793
1815,1843,1826
1815,1874,1875
1803,1845,1831
1818,1823,1783
1837,1852,1826
1807,1859,1856
1815,1847,1831
1822,1824,1776
1829,1854,1819
1817,1874,1872
1824,1865,1846
1821,1829,1783
1824,1856,1823
1812,1872,1879
1827,1855,1847
1808,1833,1795
1792,1859,1831
1850,1881,1874
1804,1855,1847
1814,1842,1808
1776,1837,1821
1831,1854,1867
1840,1840,1834
1856,1835,1794
1828,1865,1831
1872,1861,1875
1840,1821,1817
1789,1815,1776
1835,1861,1837
1839,1888,1887
1826,1861,1845
1785,1840,1791
1777,1863,1831
1862,1872,1862
1835,1851,1840
1833,1838,1792
1846,1867,1826
1831,1882,1879
1824,1863,1843
1817,1841,1798
1804,1869,1839
1856,1881,1885
1790,1872,1857
1846,1869,1815
1840,1870,1822
1807,1871,1851
1795,1842,1834
1815,1834,1792
1886,1883,1847
1795,1885,1871
1775,1850,1826
1840,1840,1779
1867,1873,1832
1835,1888,1875
1844,1871,1857
1844,1842,1793
1790,1858,1811
1818,1863,1851
1807,1842,1834
1870,1840,1791
1851,1867,1830
1835,1891,1878
1811,1865,1842
1837,1841,1794
1841,1877,1841
1843,1876,1889
1857,1845,1840
1807,1813,1775
1855,1853,1813
1860,1868,1867
1856,1851,1846
1825,1841,1798
1793,1840,1808
1789,1853,1856
1808,1840,1833
1829,1827,1778
1824,1850,1809
1859,1872,1855
1807,1853,1834
1865,1827,1782
1863,1854,1829
1824,1874,1870
1824,1841,1827
1809,1811,1771
1851,1863,1829
1846,1872,1872
1868,1845,1824
1808,1839,1797
1822,1853,1805
1826,1863,1843
1819,1840,1823
1829,1821,1777
1847,1861,1818
1833,1873,1871
1824,1850,1834
1829,1825,1777
1841,1853,1813
1844,1874,1863
1840,1853,1830
1840,1821,1767
1881,1854,1809
1825,1879,1856
1855,1846,1822
1778,1825,1763
1975,1856,1811
1840,1856,1851
1831,1841,1849
1839,1840,1789
1837,1857,1805
1853,1864,1846
1817,1841,1820
1839,1827,1779
1856,1859,1821
1839,1878,1871
1837,1860,1829
1853,1839,1782
1861,1862,1820
1853,1887,1872
1829,1847,1828
1835,1829,1776
1844,1855,1811
1863,1872,1863
1781,1849,1825
1897,1826,1777
1859,1861,1833
1860,1884,1879
1858,1846,1823
1798,1825,1776
1822,1872,1826
1840,1900,1878
1846,1840,1811
1815,1818,1775
1840,1858,1840
1834,1879,1870
1914,1856,1829
1842,1834,1777
1827,1874,1834
1879,1886,1881
1875,1843,1837
1834,1836,1790
1837,1862,1834
1865,1885,1882
1835,1860,1851
1867,1842,1796
1904,1869,1841
1823,1875,1875
1840,1854,1841
1861,1839,1809
1873,1868,1842
1827,1893,1894
1849,1859,1840
1818,1808,1765
1857,1837,1808
1838,1866,1876
1856,1854,1847
1869,1838,1798
1869,1872,1843
1908,1887,1882
1866,1859,1846
1868,1841,1794
1851,1853,1814
1892,1872,1866
1830,1847,1837
1861,1829,1810
1872,1851,1827
1858,1881,1861
1847,1866,1831
1808,1839,1790
1871,1867,1835
1851,1879,1872
1882,1856,1840
1862,1840,1797
1884,1872,1829
1856,1877,1863
1839,1853,1840
1862,1833,1790
1875,1871,1837
1885,1904,1893
1861,1854,1838
1856,1821,1774
1861,1845,1812
1856,1874,1872
1867,1871,1850
1872,1839,1786
1878,1852,1846
1855,1872,1875
1855,1857,1836
1877,1839,1793
1888,1872,1841
1853,1872,1871
1854,1842,1828
1863,1829,1783
1867,1861,1820
1857,1877,1874
1852,1853,1843
1862,1825,1787
1883,1861,1834
1867,1878,1875
1862,1851,1840
1870,1835,1795
1873,1865,1839
1866,1877,1891
1859,1856,1845
1888,1837,1791
1878,1871,1834
1857,1886,1885
1861,1858,1840
1875,1840,1794
1893,1872,1839
1884,1899,1910
1861,1853,1837
1849,1810,1769
1877,1866,1839
1867,1875,1873
1855,1846,1839
1872,1833,1793
1875,1868,1840
1871,1886,1891
1877,1871,1857
1885,1847,1805
1877,1873,1829
1863,1894,1872
1862,1870,1845
1872,1847,1799
1885,1875,1840
1878,1899,1898
1872,1869,1843
1874,1840,1797
1878,1872,1850
1872,1897,1877
1859,1869,1847
1873,1856,1802
1893,1879,1840
1868,1893,1887
1871,1867,1847
1882,1840,1799
1889,1872,1831
1871,1891,1888
1866,1869,1871
1867,1850,1794
1872,1871,1827
1865,1887,1885
1872,1862,1855
1888,1843,1808
1884,1872,1840
1872,1891,1879
1863,1867,1843
1874,1840,1801
1895,1872,1828
1889,1897,1875
1876,1856,1840
1885,1842,1789
1886,1867,1851
1868,1877,1875
1861,1856,1840
1877,1840,1794
1889,1872,1839
1865,1878,1872
1865,1853,1840
1877,1836,1794
1887,1871,1840
1885,1898,1898
1856,1856,1827
1855,1825,1766
1869,1855,1814
1860,1873,1872
1856,1840,1836
1858,1824,1778
1879,1856,1831
1862,1873,1865
1839,1849,1823
1850,1821,1770
1863,1850,1829
1856,1867,1872
1872,1859,1849
1863,1823,1791
1872,1842,1811
1845,1857,1861
1843,1840,1833
1856,1821,1782
1872,1853,1827
1860,1865,1874
1856,1845,1838
1875,1820,1792
1877,1850,1826
1869,1867,1874
1855,1843,1839
1856,1818,1779
1871,1849,1833
1866,1872,1875
1859,1841,1840
1867,1823,1787
1871,1849,1831
1861,1867,1875
1854,1835,1840
1873,1817,1783
1879,1851,1823
1851,1863,1871
1861,1845,1853
1873,1824,1793
1872,1839,1822
1872,1865,1872
1873,1838,1840
1853,1800,1787
1862,1840,1823
1842,1856,1871
1845,1831,1840
1869,1820,1794
1903,1871,1856
1863,1850,1866
1844,1813,1822
1859,1808,1776
1874,1840,1823
1861,1859,1871
1859,1831,1828
1874,1810,1782
1883,1853,1834
1863,1866,1872
1847,1835,1822
1869,1811,1792
1876,1845,1833
1862,1871,1863
1844,1840,1830
1859,1817,1791
1891,1855,1842
1862,1869,1871
1844,1839,1834
1872,1822,1794
1902,1904,1856
1847,1864,1868
1826,1818,1811
1847,1806,1781
1866,1845,1840
1843,1859,1872
1840,1804,1825
1851,1809,1776
1866,1853,1827
1852,1875,1887
1856,1860,1839
1857,1802,1776
1873,1846,1831
1861,1858,1890
1839,1854,1827
1856,1818,1783
1861,1815,1843
1857,1870,1878
1858,1831,1827
1857,1818,1769
1872,1845,1826
1855,1876,1872
1857,1840,1840
1869,1822,1798
1885,1872,1839
1872,1872,1878
1845,1783,1824
1856,1855,1783
1863,1872,1825
1850,1879,1879
1867,1865,1858
1902,1862,1826
1854,1829,1809
1810,1879,1842
1827,1835,1820
1883,1852,1808
1872,1853,1827
1839,1855,1856
1835,1841,1814
1856,1827,1775
1871,1872,1827
1856,1858,1871
1843,1840,1814
1870,1839,1776
1894,1874,1840
1834,1856,1862
1818,1809,1797
1840,1813,1747
1863,1863,1819
1867,1922,1875
1895,1886,1855
1843,1808,1759
1827,1845,1788
1840,1835,1855
1853,1835,1824
1859,1797,1777
1870,1824,1830
1851,1883,1884
1840,1919,1833
1851,1859,1778
1869,1833,1830
1871,1935,1892
1825,1809,1826
1840,1829,1770
1867,1853,1819
1867,1900,1883
1872,1843,1855
1833,1810,1753
1847,1835,1807
1847,1914,1866
1851,1859,1833
1865,1855,1788
1882,1919,1840
1861,1904,1879
1847,1903,1839
1870,1853,1792
1869,1903,1837
1845,1915,1863
1849,1886,1833
1866,1872,1793
1872,1907,1839
1846,1923,1872
1876,1872,1861
1858,1875,1783
1851,1894,1823
1851,1894,1879
1845,1893,1840
1866,1874,1799
1881,1849,1849
1835,1885,1869
1830,1876,1828
1851,1842,1789
1877,1903,1846
1872,2013,1899
1849,1946,1840
1865,1923,1797
1843,1873,1824
1824,1888,1862
1833,1878,1828
1857,1919,1793
1886,1926,1870
1877,1968,1921
1839,1888,1809
1831,1846,1746
1855,1879,1823
1840,1907,1879
1843,1887,1847
1877,1858,1810
1858,1895,1831
1846,1905,1883
1856,1891,1857
1861,1840,1797
1850,1895,1833
1840,1932,1878
1838,1879,1840
1859,1890,1799
1856,1885,1841
1837,1885,1877
1843,1881,1857
1869,1879,1811
1874,1872,1850
1865,1900,1883
1808,1833,1805
1822,1894,1767
1857,1900,1842
1862,1916,1898
1857,1895,1849
1859,1882,1806
1872,1915,1856
1867,1927,1900
1856,1879,1840
1842,1846,1789
1855,1830,1847
1853,1898,1899
1885,1917,1878
1845,1845,1781
1825,1853,1811
1834,1890,1874
1835,1872,1839
1870,1859,1807
1856,1886,1839
1840,1892,1872
1834,1851,1827
1841,1859,1779
1864,1882,1851
1867,1904,1904
1850,1893,1839
1861,1872,1790
1857,1922,1838
1840,1914,1890
1840,1848,1856
1872,1890,1828
1857,1888,1849
1825,1895,1876
1802,1844,1813
1825,1795,1778
1847,1918,1840
1842,1894,1886
1849,1886,1857
1872,1875,1827
1869,1933,1841
1812,1902,1843
1815,1852,1814
1853,1859,1798
1856,1897,1852
1853,1902,1894
1833,1857,1835
1847,1834,1786
1863,1872,1840
1847,1899,1890
1851,1877,1847
1872,1861,1809
1861,1872,1832
1811,1868,1852
1825,1853,1840
1853,1843,1813
1841,1872,1836
1847,1906,1888
1835,1867,1833
1840,1840,1785
1853,1886,1841
1846,1892,1878
1838,1851,1830
1822,1808,1775
1870,1867,1847
1853,1895,1893
1819,1857,1820
1839,1834,1792
1865,1874,1851
1863,1895,1904
1850,1869,1847
1859,1865,1826
1885,1910,1865
1862,1906,1889
1835,1854,1827
1829,1831,1776
1825,1859,1821
1835,1889,1882
1847,1886,1857
1883,1879,1838
1830,1851,1827
1808,1860,1853
1817,1841,1820
1839,1825,1775
1857,1872,1840
1847,1892,1910
1844,1858,1851
1840,1837,1787
1850,1870,1838
1840,1886,1892
1840,1856,1843
1856,1850,1808
1872,1883,1852
1851,1897,1895
1842,1861,1840
1840,1845,1798
1872,1901,1859
1863,1915,1902
1811,1825,1812
1840,1835,1798
1871,1875,1863
1846,1893,1891
1814,1841,1831
1841,1834,1792
1871,1871,1850
1846,1880,1879
1830,1843,1833
1846,1839,1798
1857,1864,1858
1883,1926,1920
1827,1852,1839
1812,1808,1761
1843,1859,1821
1836,1862,1867
1829,1835,1826
1855,1834,1789
1889,1889,1863
1868,1905,1911
1823,1850,1838
1838,1841,1793
1872,1897,1858
1846,1885,1883
1843,1844,1840
1872,1841,1811
1859,1861,1840
1827,1869,1879
1824,1840,1840
1850,1841,1792
1883,1877,1856
1867,1901,1920
1890,1895,1890
1862,1853,1808
1813,1839,1808
1819,1866,1883
1825,1846,1826
1839,1838,1780
1858,1874,1850
1850,1889,1892
1843,1859,1842
1866,1850,1815
1902,1908,1879
1866,1904,1888
1867,1872,1848
1840,1814,1783
1856,1858,1847
1848,1885,1917
1874,1885,1882
1888,1878,1813
1909,1904,1854
1883,1899,1875
1808,1830,1801
1814,1817,1760
1859,1872,1839
1872,1898,1889
1886,1872,1851
1893,1853,1787
1886,1882,1854
1844,1891,1898
1856,1891,1873
1889,1858,1809
1993,1905,1857
1995,1931,1887
1808,1849,1808
1777,1857,1826
1845,1919,1858
1915,1932,1833
2142,2021,1873
2191,2001,1840
1855,1855,1729
1793,1948,1895
1865,1946,1890
2032,1926,1702
1866,1968,1825
1863,2094,2010
2085,2038,1937
1882,1954,1863
2058,2099,2055
1857,1945,1808
1825,1904,1788
1958,1940,1760
2014,2017,1826
2145,2130,1983
1843,2002,1863
1840,1977,1813
1570,1872,1813
1631,1850,1699
1962,1951,1791
1975,1949,1730
1966,1965,1766
2031,2018,1863
2001,1990,1803
1775,1911,1776
1950,1945,1738
1600,1915,1839
1771,1952,1865
1805,1969,1783
1667,1932,1822
1906,2099,1921
1981,2081,1829
1815,1904,1488
1791,1874,1464
1818,1912,1786
1622,1913,1723
1708,1890,1649
1961,2051,1898
2085,2093,1930
2282,2019,1842
2311,1926,1567
1767,1781,1243
1168,1847,1475
1654,2032,1895
2078,1953,1985
1570,1786,1443
1535,1936,1562
2331,2098,1749
2132,1873,1505
1689,2031,1777
1535,1853,1554
1903,1980,1745
1857,1904,1781
1382,1834,1590
1769,1950,1649
1986,1920,1775
1663,1908,1648
1786,1895,1482
1588,1897,1614
2162,2015,1830
1979,1826,1535
1465,1858,1631
1583,1902,1676
1963,1823,1680
1973,1897,2122
2837,1987,1879
1671,1770,1753
1279,1750,1691
1071,1760,1967
1488,1801,1713
1708,1857,1719
1734,1811,1675
2472,2021,1899
2303,1743,1514
1419,1723,1529
1315,1776,1587
1711,1806,1693
1681,1777,1575
1723,1879,1590
2013,1868,1574
1777,1735,1495
1408,1654,1494
1860,1753,1616
2174,1699,1357
1424,1733,1455
1446,1786,1675
1728,1745,1473
1755,1792,1627
2045,1773,1624
1882,1707,1584
1265,1639,1383
1764,1802,1534
1949,1757,1535
1948,1839,1552
1743,1747,1766
1713,1679,1558
1790,1658,1587
1818,1711,1489
1633,1565,1150
1296,1663,1477
1534,1775,1646
1637,1778,1712
1771,1803,1767
1680,1667,1502
2086,1730,1552
2590,1764,1429
1750,1589,1524
1133,1600,1601
1199,1653,1634
1683,1678,1602
1902,1764,1678
1472,1695,1590
1776,1685,1575
2355,1750,1658
1507,1555,1375
902,1590,1648
1505,1744,1789
2178,1673,1693
1649,1688,1582
1581,1725,1535
2749,1901,1607
1872,1612,1535
917,1529,1607
1152,1681,1744
2407,1904,1931
2189,1677,1791
1127,1571,1472
1408,1596,1435
2076,1649,1563
1983,1783,1855
1393,1644,1808
1171,1639,1711
2599,1975,2020
2243,1610,1633
1182,1565,1535
1234,1652,1501
1553,1666,1756
1949,1745,1922
2032,1634,1612
1662,1643,1699
1763,1817,1890
1838,1803,1819
1595,1535,1535
1495,1661,1777
2001,1759,1745
1902,1616,1697
1386,1645,1719
1311,1683,1808
1911,1819,1882
2192,1739,1775
1511,1609,1670
1556,1622,1616
1744,1712,1825
2082,1850,2010
2039,1737,1650
1635,1492,1525
1694,1573,1781
2112,1838,2096
1786,1751,1959
1114,1585,1677
1441,1689,1802
1818,1696,1820
2055,1839,1959
2141,1733,1853
1795,1584,1722
1667,1718,1783
1427,1697,1810
1815,1870,2074
2319,1675,1728
1569,1599,1795
2117,1801,1947
1309,1535,1591
1371,1611,1669
1669,1806,1996
1712,1838,2064
2126,1818,1983
1951,1580,1695
1831,1787,1878
1662,1706,1785
1444,1709,1807
1872,1757,1840
2416,1807,1950
1798,1687,1945
1492,1751,1988
1641,1687,1763
2034,1791,1906
1455,1667,1827
1363,1663,1747
2072,1717,1851
2026,1699,1872
1949,1920,1979
1790,1724,1745
1486,1690,1917
1746,1783,2009
1822,1746,2079
1781,1678,1811
1967,1781,1859
1696,1767,1968
1648,1766,1931
1764,1786,1989
1728,1682,1771
1727,1685,1764
2140,1793,1962
1703,1712,1901
1659,1743,2013
2127,1866,1994
1814,1711,1723
1614,1726,1859
1565,1727,1938
1819,1787,2111
1936,1791,1904
1959,1776,1933
1964,1773,1777
1738,1824,1831
1439,1670,1879
2000,1799,2087
1827,1713,1872
1834,1887,2157
1712,1790,1903
1858,1798,1922
2221,1712,1725
1462,1748,1882
1535,1847,2076
2064,1910,2111
2496,1770,1778
1325,1602,1683
1345,1750,1963
1813,1827,1959
2178,1872,1963
1919,1811,2010
1797,1808,1914
1671,1831,2032
2126,1878,2118
2368,1825,1821
1797,1698,1587
1150,1685,1845
1682,1851,2291
2135,1844,2071
1629,1872,1838
1520,1777,1854
1764,1803,1908
2253,1890,1976
2127,1823,1790
1456,1741,1873
1664,1819,2066
2507,1918,2014
2106,1854,2015
1651,1717,1919
1333,1728,1825
1773,1830,1787
2119,1887,2004
1711,1902,2126
1792,1927,2079
2054,1853,1949
2077,1760,1870
1899,1779,1840
1663,1805,1830
1627,1858,1987
2131,1907,2037
2093,1798,1839
1489,1793,1909
1872,2000,2165
2160,1761,1919
1979,1828,1874
1835,1872,1857
1771,1831,1902
1481,1815,1927
1867,1965,2163
1934,1826,1943
1855,1841,1973
2367,1918,2003
1938,1734,1624
1663,1857,2020
1671,1923,2082
1975,1876,1983
1978,1806,1973
1744,1729,1806
1601,1847,1978
1750,1851,1897
2493,1903,1936
2013,1882,2010
1581,1943,2077
1807,1843,1929
1886,1812,1855
1909,1871,1844
1778,1872,1955
2178,1936,1980
1984,1807,1807
1696,1779,1981
1922,1920,2125
1791,1840,1905
1779,1823,1795
1840,1892,1911
1851,1883,1963
1943,1955,2145
2099,1791,1883
1877,1825,1770
2125,1977,2037
2383,1936,2000
1569,1743,1802
1267,1807,1862
2160,2076,2146
2100,1853,1840
1820,1765,1821
1713,1904,2032
1823,1876,2047
2074,1927,2030
2267,1851,1766
2128,1840,1807
1904,1884,1955
1719,1968,2030
1795,1752,1794
2029,1872,1968
1649,1846,1870
1664,1939,1995
2062,1855,1971
2067,1729,1731
1927,1886,1901
2042,2030,2171
1986,1879,1887
2095,1894,1845
1788,1939,1984
1591,1916,2030
1938,1968,2067
1936,1799,1751
1985,1876,1838
2219,1892,1859
1958,1894,2164
2053,1778,1934
1869,1846,1685
1648,1963,1863
1872,1983,1959
2114,1859,1872
1846,1901,2080
1586,1839,1923
1981,1856,1904
2135,1895,1862
1945,1929,1966
2553,2115,2094
1792,1841,1779
1462,1776,1841
1647,1872,1965
2143,2031,2141
2111,1808,1805
1594,1785,1750
2083,2015,2063
2267,1872,1955
1713,1874,1839
2267,2000,2033
2193,1819,1873
1485,1776,1770
1535,1887,1905
2274,2031,1974
2214,1805,1693
1735,1878,1904
1763,1883,1924
2061,1911,2028
2181,1907,2000
1523,1834,1869
1729,1957,1947
2353,1967,1936
1863,1813,1697
1662,1858,1937
2358,2001,2096
2130,1718,1568
1619,1883,1978
1481,1939,2087
1968,1936,2026
2456,1905,1885
1843,1840,1748
1920,1906,1878
2143,1933,1901
2352,1926,1922
1645,1870,1815
1520,1816,1830
1997,1865,1968
2327,1883,1872
1680,1838,1912
1535,1902,1993
1856,1897,1904
2073,1845,1823
2161,1872,1939
2113,1923,1919
1964,1845,1821
1738,1904,1927
1885,1955,1866
1825,1890,1821
2046,1862,1794
2199,1904,1889
1678,1883,2067
1669,1914,2062
1871,1879,1818
2181,1782,1633
2147,1925,1856
1872,1968,2005
1731,1833,1927
1783,1799,1779
2442,2043,2015
2412,2096,2075
1641,1811,1728
1344,1703,1737
1966,1907,1911
1943,1895,1888
1775,1872,1873
2031,1825,1840
2044,1869,1824
1718,1934,1956
1968,1952,1960
2406,1937,1840
2291,1945,2037
1745,1829,1838
1467,1777,1744
1996,1969,2076
1965,1894,1858
1791,1847,1788
1755,1776,1664
1813,1837,1846
2240,1968,2125
2539,1936,1907
1845,1851,1930
1268,1774,1779
1565,1854,1821
2095,1968,1958
2343,1983,1921
2046,1814,1712
1744,1947,2015
2045,1965,2071
1941,1840,1776
1699,1839,1904
2033,1963,2000
1743,1790,1708
1610,1829,1794
1772,1873,1887
2007,1948,1936
2134,1959,1921
1915,1818,1870
1791,1861,1848
1915,1949,1968
2017,1969,2043
1972,1862,1933
1941,1910,1841
1898,1871,1712
2047,1963,1891
2278,1970,2000
1951,1827,1818
1871,1971,2057
2103,1957,1902
1578,1749,1754
2000,1894,1916
1894,1842,1718
1638,1841,1757
1867,1875,1849
2018,1943,1893
2093,1954,2001
2037,1920,2008
1783,1816,1807
1797,1862,1776
2010,1915,1919
1817,1917,1959
1984,1937,1934
2059,1865,1739
1953,1914,1895
1900,1929,1914
1842,1887,1856
1907,1872,1871
2267,1961,2029
1919,1873,1920
1750,1895,1790
1813,1834,1691
1898,1827,1917
1883,1931,1974
2137,1961,1951
1942,1815,1715
1941,1879,1782
1931,1947,1962
1755,1792,1969
2005,1866,1824
2192,1915,1739
1966,1893,2009
1746,1892,1917
1705,1849,1827
1872,1915,1843
2160,1943,1935
2354,1840,1831
1745,1779,1702
1531,1850,1911
1755,1874,1991
2027,1876,1898
2009,1827,1711
1856,1898,1866
2153,2033,2096
2342,1907,1801
1773,1825,1756
1787,1821,1950
1894,1875,1987
1670,1886,1755
1769,1866,1836
2005,1861,1845
2064,1936,1873
2260,1939,1846
1851,1792,1764
1803,1866,1904
2000,1905,1976
1771,1839,1841
1759,1854,1780
1867,1913,1870
1917,1949,1971
2117,1910,1903
2112,1799,1875
1775,1862,1886
1991,1950,1874
1875,1847,1799
1839,1916,1823
1906,1907,1838
1968,1948,1958
1993,1854,1822
1920,1842,1877
1872,1935,1897
1967,1991,2005
2188,1962,1936
1812,1856,1613
1635,1984,1853
2015,2045,2042
2124,1875,1842
2000,1862,1778
1775,1925,1832
1696,1968,1985
2006,1984,1942
2011,1930,1790
1961,1991,1872
2238,1973,1904
1974,1957,1821
1645,1923,1858
1733,1909,1873
1933,1912,1878
1971,1915,1889
2047,1968,1867
1898,2013,1863
1838,1991,1954
1984,1882,1743
1875,1808,1709
1890,1898,1867
1879,2043,1934
1839,2000,1936
1985,2019,1850
2063,1929,1727
1792,1887,1869
1831,1949,1935
2231,1973,1967
1915,1966,1904
1627,1968,1811
1728,1877,1779
2039,1935,1808
2133,1973,1937
1966,1991,1931
1838,1916,1741
1891,1861,1767
2074,1999,1904
1853,1997,1904
1702,1935,1850
1855,1975,1911
2277,2000,1961
1904,1910,1851
1772,1922,1808
2058,1947,1757
1897,1828,1683
1712,1962,1984
1815,1963,1968
2370,1937,1708
2029,1941,1858
1571,1903,1963
1808,1956,1917
2335,1926,1750
1829,1855,1857
1627,2000,2023
1939,1961,1783
2119,1901,1680
1789,1918,1973
1666,1903,1971
1869,1968,1899
1987,1956,1808
2031,1984,1913
1888,1920,1707
1968,1895,1763
2185,1802,1759
1797,1904,1877
1582,1955,1968
1766,1985,1941
1997,1975,1859
2004,1901,1895
2002,1959,1878
1932,1875,1712
1749,1793,1694
1786,1934,1919
1984,1998,1981
1942,1954,1874
1919,1779,1739
1751,1834,1813
1783,1862,1873
2032,1877,1810
2201,1989,1817
1764,1905,1909
1872,1967,1927
1938,1815,1776
2065,1951,1902
1699,1904,1766
1696,1920,1855
1904,1882,1776
2085,1890,1808
1985,1911,1837
2003,1922,1826
1872,1869,1872
1670,1783,1857
1665,1879,1770
2249,2000,1890
2078,1872,1763
1796,1865,1856
1868,1913,1879
1713,1891,1938
1799,1778,1774
2130,2000,1783
2107,1872,1729
1791,1911,1926
1573,1873,1907
1974,1969,1957
2305,1904,1801
1710,1739,1781
1594,1808,1826
1786,1810,1739
2352,1975,1847
1867,1849,1761
1623,1890,1893
2110,1934,1904
1801,1808,1729
1706,1861,1876
1872,1811,1882
1790,1743,1904
2082,1940,1795
1913,1972,1716
1808,1953,1792
2026,1814,1726
1949,1879,1827
1712,1881,1949
1755,1808,1978
1956,1933,1895
1872,1879,1890
1984,1942,1818
2238,1982,1808
2471,1874,1840
2084,1762,1727
1534,1821,1731
1698,1934,1910
1670,1851,1811
1873,1808,1898
2101,1842,1683
2114,1936,1811
1840,1888,1849
1675,1919,1977
1931,1895,2080
1810,1754,1848
1790,1789,1535
1744,1872,1767
1791,1888,1953
1985,1863,1814
2090,1872,1714
2071,1882,1777
1728,1923,2011
1567,1840,1883
2145,1879,1918
1989,1872,1808
1803,1850,1868
1936,1781,1712
1840,1759,1695
1734,1822,1895
1807,1856,1844
1749,1855,1810
2078,1916,1871
2233,1935,1994
1611,1728,1712
1488,1825,1661
1950,1808,1808
1713,1792,1803
1715,1883,1815
1984,1742,1735
2419,1974,2007
2017,1971,1941
1459,1734,1834
1535,1753,1699
1953,1773,1703
2024,1822,1872
1635,1891,1860
1746,1901,1847
2355,1904,1947
2119,1771,1713
1422,1778,1722
1393,1831,1857
2032,1929,1986
2304,1895,1857
1671,1837,1790
1498,1827,1866
1971,1834,1882
1795,1792,1731
1739,1904,1911
2121,1840,1840
1972,1793,1709
1935,1808,1785
1927,1889,1934
1565,1714,1712
1490,1744,1881
1850,1850,1994
2220,2016,2007
2458,1973,1863
1531,1670,1563
1317,1708,1701
1854,1962,2041
2241,1918,1874
2347,1845,1774
1609,1713,1728
1425,1771,1921
1913,1802,1846
1648,1771,1675
1535,1823,1776
1772,1819,1871
2055,1884,1858
2029,1847,1664
1919,1872,1971
1794,1877,2131
1553,1754,1739
1698,1805,1725
2064,1895,1877
2279,1947,1857
1732,1806,1730
1517,1770,1914
1780,1765,1744
1659,1809,1879
1731,1889,1936
1969,1790,1691
1777,1793,1901
2133,1984,2081
2014,1762,1655
1840,1745,1631
1535,1830,1761
2288,2018,2034
1750,1747,1787
1266,1739,1782
1667,1943,2105
2319,2053,2110
1950,1719,1573
1345,1623,1554
1744,1783,1765
2036,1879,1728
1853,1915,2019
1751,1856,1911
2160,1895,1935
1875,1740,1770
1462,1712,1776
1963,1918,1911
2160,1854,1651
1468,1798,1742
1360,1776,1904
1802,1834,1881
2143,1919,1849
1851,1883,1856
2202,1895,1920
2240,1797,1648
1708,1814,1791
1291,1889,2136
1996,1949,2034
2199,1759,1535
1502,1748,1655
1450,1815,1818
1925,1879,1946
2042,1746,1674
1637,1748,1794
1873,1909,1943
2285,1940,1891
1829,1809,1828
1567,1840,1958
1533,1819,1811
1860,1750,1710
1841,1814,1709
1909,1893,1819
1823,1914,1950
1895,1838,1831
1763,1814,1726
1869,1893,1953
1873,1914,2010
2138,1846,1713
1584,1717,1693
1581,1843,1935
1869,1904,1999
2399,1968,1915
1732,1758,1519
1519,1854,1835
1649,1796,1889
1824,1798,1849
1755,1810,1790
1886,1840,1877
2141,1938,1955
2131,1852,1805
1662,1766,1716
2117,2001,2110
1874,1807,1756
1701,1826,1859
1582,1789,1774
1701,1873,1920
2135,1863,1794
1772,1771,1843
1973,1818,1766
1664,1856,1856
1735,1829,1828
1840,1840,1816
1837,1799,1843
1856,1882,1938
1808,1890,1851
1776,1822,1786
2011,1861,1899
2464,2023,2042
1984,1827,1712
1494,1694,1648
1517,1712,1850
1693,1866,2067
1854,1987,1999
2032,1937,1757
1936,1826,1680
1968,1858,1892
2162,1932,1934
1667,1766,1714
1472,1743,1779
1835,1909,2043
2005,1951,2037
2151,1927,1984
2195,1815,1675
1693,1771,1579
1710,1909,1917
1633,1797,1901
1664,1823,1967
2240,1989,2033
2245,1907,1827
1723,1741,1667
1371,1782,1705
2086,1982,2027
2165,1914,1965
1712,1871,1910
1413,1761,1728
1635,1834,1794
2012,1904,1940
1993,1904,1917
1858,1840,1851
1861,1840,1824
1695,1875,1962
2095,1905,1922
1962,1873,1808
1981,1885,1849
1795,1827,1776
1703,1845,1904
2210,1879,1810
1876,1862,1803
1531,1820,1903
1616,1823,1931
1715,1840,1878
2128,2027,1927
2064,1922,1779
1767,1801,1853
1898,1900,1802
2096,1919,1879
1717,1692,1743
1671,1795,1873
1915,1946,2128
1959,1872,1859
1808,1808,1709
2240,1876,1738
1891,1808,1771
1735,1831,1785
1443,1810,1948
1715,1813,1925
1939,1830,1853
1835,1892,1904
1734,1904,1897
1898,1866,1855
2286,1959,1897
1925,1886,1918
1797,1897,1940
1734,1791,1779
1670,1738,1669
1860,1879,1883
1907,1878,1925
1758,1798,1878
1943,1941,1962
2350,1873,1780
1822,1764,1741
1446,1788,1759
1899,1884,1774
1977,1883,1939
1891,1878,1985
1993,1884,1977
2139,1829,1922
1661,1834,1774
1424,1855,1743
1834,1872,1705
2163,1920,1805
2177,1821,1795
1621,1775,1863
1693,1876,2025
1769,1855,1966
1776,1819,1712
1806,1863,1839
1847,1835,1911
2618,2047,1966
2121,1871,1641
1363,1789,1777
1510,1797,1855
1788,1834,1970
2220,1952,2016
2329,1920,1890
2058,1820,1628
1951,1840,1895
1626,1805,1808
1290,1778,1827
1885,1914,1926
2318,1805,1666
1636,1735,1763
1402,1829,1968
1655,1850,1975
2096,1927,2044
2512,2063,1984
2093,1815,1723
1410,1681,1642
1711,1841,1829
2406,1954,1936
2271,1834,1786
1289,1803,1819
1476,1841,1899
1939,1881,1836
2126,1958,1767
1994,1825,1723
1456,1750,1820
1751,1856,1891
2025,1900,1905
2065,1920,1981
1839,1801,1766
1818,1871,1896
1872,1825,1837
1744,1829,1771
1770,1835,1719
1983,1927,1748
2127,1902,1866
1839,1810,1806
1909,1833,1795
1579,1813,1809
1743,1927,2084
2057,1875,1904
