1819,1875,1790
1609,1777,1712
1687,1804,1775
2063,1894,1907
2097,1908,1889
1777,1844,1786
1744,1850,1850
1957,1873,1898
1764,1808,1853
1744,1806,1806
1960,1840,1787
1823,1841,1868
1879,1965,1999
1792,1921,1868
1775,1856,1786
2098,1874,1835
1987,1791,1785
1667,1840,1862
1746,1863,1876
1787,1846,1799
1904,1936,1903
2103,1936,1899
2082,1856,1808
1712,1809,1790
1571,1840,1823
1711,1863,1846
1966,1871,1874
2064,1888,1909
1963,1872,1829
1761,1858,1805
1726,1865,1818
1997,1904,1860
1964,1849,1872
1761,1822,1795
1627,1815,1777
1891,1884,1875
2081,1968,1945
1747,1849,1837
1741,1825,1831
2119,1965,1973
1985,1883,1856
1690,1794,1753
1669,1796,1710
1806,1843,1831
1947,1918,1936
1881,1886,1929
1875,1870,1865
1991,1831,1760
1947,1818,1798
1822,1883,1892
1788,1901,1892
1837,1878,1847
2090,1922,1842
1918,1861,1888
1703,1818,1786
1916,1936,1857
2211,1992,1925
1726,1856,1893
1535,1728,1710
1757,1785,1750
1968,1881,1890
2029,1919,1933
1894,1899,1846
1769,1831,1791
1791,1826,1829
1775,1875,1872
1809,1899,1872
2010,1931,1953
2047,1921,1882
1888,1856,1755
1774,1834,1768
1711,1865,1840
1835,1904,1903
2087,1921,1921
1965,1824,1738
1811,1859,1839
1712,1922,1946
1793,1898,1897
1916,1833,1790
1951,1865,1850
1983,1946,1961
2038,1922,1847
1817,1811,1814
1763,1823,1872
1783,1834,1859
1825,1813,1712
1939,1830,1737
1968,1902,1846
1827,1863,1856
1699,1847,1882
1825,1853,1777
1965,1840,1759
2082,1938,1921
1786,1934,1969
1699,1831,1867
1856,1814,1782
1808,1825,1798
1774,1872,1851
1944,1851,1855
2003,1884,1839
2009,1901,1842
1797,1825,1838
1712,1808,1785
1787,1839,1885
1984,1906,1927
2113,1974,1881
1786,1808,1764
1691,1815,1721
1792,1851,1930
2027,1902,2026
2086,1910,1833
1922,1825,1680
1654,1811,1808
1753,1869,1938
1919,1878,1904
2034,1830,1687
1765,1859,1733
1721,1874,1883
1911,1857,1847
1980,1879,1840
1934,1910,1929
1783,1787,1791
1776,1808,1744
1853,1823,1810
2079,1926,1904
1915,1904,1824
1643,1846,1808
1792,1840,1792
1776,1842,1820
1705,1844,1787
1873,1861,1850
1978,1855,1837
1875,1889,1920
1755,1882,1855
1907,1879,1795
1971,1815,1788
1915,1871,1902
1931,1887,1905
1808,1803,1842
1697,1778,1750
1771,1881,1827
1965,1940,1876
2060,1956,1879
1735,1806,1731
1761,1821,1824
1975,1872,1943
1853,1828,1822
1732,1837,1780
1951,1921,1836
2045,1859,1942
1945,1782,1791
1706,1792,1710
1691,1918,1878
1734,1915,1954
1915,1879,1854
2011,1887,1834
1970,1914,1904
1863,1859,1872
1805,1791,1836
2000,1850,1873
1875,1851,1840
1695,1809,1778
1681,1827,1744
1749,1829,1782
1860,1856,1904
2126,1941,1878
1891,1841,1715
1669,1850,1862
1890,1935,1970
1899,1870,1898
1843,1825,1890
1822,1793,1893
1968,1840,1840
1884,1885,1744
1717,1851,1874
1777,1836,1858
1968,1938,1889
1905,1856,1713
1815,1833,1738
1787,1817,1854
1745,1835,1914
1797,1895,1926
1969,1918,1904
2108,1936,1840
1877,1840,1746
1680,1781,1808
1787,1811,1859
1920,1831,1927
1908,1909,1757
1735,1889,1776
1830,1855,1839
2032,1867,1913
1952,1856,1825
1673,1838,1825
1890,1863,1785
1937,1887,1863
1844,1872,1899
1766,1856,1821
1904,1872,1788
1925,1811,1693
1768,1877,1837
2010,1931,1934
2114,1890,1925
1866,1834,1763
1698,1837,1852
1629,1770,1799
1744,1790,1765
1947,1935,1887
2001,1879,1877
1900,1815,1804
1863,1789,1758
1904,1867,1913
1920,1920,1936
1917,1916,1910
1755,1809,1779
1662,1803,1710
1890,1863,1763
1937,1856,1847
1743,1840,1840
1729,1825,1817
1850,1904,1885
2088,1931,1904
2063,1906,1855
1844,1841,1843
1670,1845,1887
1762,1870,1872
1809,1812,1808
1875,1808,1787
1842,1862,1771
2141,1968,1935
1858,1829,1838
1776,1799,1835
1898,1891,1845
1772,1881,1869
1891,1883,1897
1938,1886,1858
1875,1872,1841
1770,1850,1856
1904,1809,1918
1929,1818,1754
1935,1901,1686
1827,1846,1856
1877,1833,1792
1921,1840,1818
1975,1905,1886
1714,1853,1905
1803,1847,1826
1866,1824,1786
1849,1846,1937
1749,1817,1868
1797,1863,1776
1955,1872,1722
1905,1830,1793
1789,1878,1942
1914,1893,1882
2067,1897,1857
1840,1871,1835
1715,1861,1853
1712,1835,1805
1936,1907,1862
2021,1873,1824
1765,1809,1802
1786,1827,1773
1995,1857,1758
1906,1881,1904
1728,1853,1915
1807,1858,1811
2070,1938,1797
1923,1835,1872
1665,1793,1831
1821,1842,1713
1981,1871,1827
1895,1887,1904
1793,1879,1891
1932,1906,1794
2077,1871,1719
1859,1918,1934
1917,1936,1997
1889,1840,1859
1749,1793,1761
1719,1811,1801
1790,1819,1794
1783,1803,1776
1923,1867,1772
2033,1927,1919
1889,1865,1812
1772,1839,1767
1777,1843,1804
1920,1926,1920
2082,1932,1951
2003,1843,1878
1717,1819,1744
1713,1870,1782
1763,1858,1856
1877,1860,1850
2097,1899,1808
1904,1916,1904
1733,1919,1903
1734,1841,1786
1839,1809,1776
1975,1888,1904
1986,1899,1925
1739,1798,1731
1819,1846,1775
1914,1913,1930
2033,1904,1899
1918,1847,1845
1945,1844,1805
1937,1879,1904
1897,1878,1893
1693,1819,1776
1935,1957,1840
2065,1972,1856
1673,1793,1770
1614,1815,1813
1776,1847,1809
1909,1883,1938
2113,1927,1954
1975,1833,1706
1807,1835,1777
1813,1863,1866
1775,1861,1858
1789,1830,1797
1907,1885,1811
1932,1903,1915
1822,1878,1887
1907,1913,1888
1967,1927,1919
1805,1895,1872
1892,1855,1863
2081,1847,1705
1920,1877,1722
1813,1903,1906
1663,1833,1883
1763,1855,1840
1900,1890,1808
1936,1879,1815
2001,1842,1871
1825,1826,1815
1774,1846,1781
1943,1936,1930
1935,1946,1919
1830,1854,1831
1835,1840,1796
1776,1835,1833
1893,1867,1882
1950,1818,1788
1956,1862,1753
1910,1929,1895
1802,1840,1872
1744,1813,1837
1774,1829,1774
1906,1919,1907
1957,1878,1842
1885,1872,1790
1850,1886,1894
1811,1840,1885
1784,1846,1869
1835,1851,1808
1959,1869,1772
1919,1891,1800
1828,1913,1904
1843,1872,1909
1963,1879,1902
2043,1933,1849
1846,1811,1749
1743,1744,1693
1751,1820,1790
2016,1959,1994
1996,1877,1857
1808,1826,1738
1854,1855,1838
1797,1877,1907
1786,1869,1827
2011,1827,1703
1901,1829,1708
1715,1891,1933
1738,1888,2032
1936,1847,1867
1916,1813,1711
1815,1855,1797
1904,1948,1977
2011,1886,1895
1902,1851,1765
1804,1827,1750
1728,1840,1872
1897,1859,1904
1818,1862,1829
1818,1878,1833
1825,1872,1840
1849,1811,1766
1857,1850,1807
1936,1885,1887
1951,1865,1887
2065,1866,1860
1712,1814,1690
1670,1839,1775
1978,1906,1955
2103,1867,1845
1787,1841,1706
1710,1890,1874
1792,1877,1943
1785,1782,1744
1887,1813,1707
2027,1916,1886
1967,1922,1952
1620,1831,1808
1745,1861,1817
1981,1870,1838
1961,1845,1805
1811,1797,1776
1815,1846,1765
1861,1904,1927
1806,1846,1891
1858,1815,1808
2059,1843,1793
1853,1895,1851
1691,1862,1882
1786,1841,1801
1982,1850,1791
1904,1895,1849
1949,1937,1925
1918,1885,1822
1860,1863,1835
1761,1847,1840
1829,1799,1776
1922,1827,1776
1901,1837,1885
2026,1877,1883
1863,1844,1744
1698,1840,1765
1723,1874,1854
1753,1860,1871
1855,1872,1845
2038,1900,1814
2019,1895,1904
1923,1883,1900
1887,1843,1806
1863,1831,1767
1744,1793,1745
1809,1871,1895
1799,1902,1904
1828,1878,1839
1851,1827,1750
1887,1854,1761
2225,1917,1777
1937,1853,1787
1475,1748,1743
1635,1824,1873
1822,1882,1890
1877,1867,1812
1984,1885,1835
2129,1903,1824
1839,1863,1856
1641,1805,1808
1865,1872,1809
2183,1950,1875
1840,1863,1795
1655,1809,1749
1731,1827,1789
1872,1887,1909
1991,1899,1901
1969,1820,1680
1807,1791,1642
1775,1888,1857
1839,1899,1920
1894,1883,1799
2011,1872,1834
1940,1827,1776
1760,1858,1817
1710,1862,1795
1756,1850,1801
1927,1909,1897
2074,1936,1951
1975,1835,1743
1749,1803,1617
1695,1859,1792
1820,1859,1872
2063,1881,1847
1985,1890,1697
1781,1872,1849
1747,1875,1856
1775,1838,1789
1861,1867,1760
2009,1921,1856
2202,1966,1878
1730,1797,1649
1603,1778,1663
1830,1851,1763
1989,1856,1776
1872,1874,1807
1732,1842,1750
1803,1876,1833
1825,1887,1841
1887,1856,1776
1925,1870,1840
2155,1915,1823
1852,1813,1667
1627,1792,1707
1732,1867,1815
1930,1935,1904
1912,1906,1849
1987,1883,1775
2115,1885,1725
1680,1772,1675
1617,1777,1741
1920,1867,1805
1902,1905,1818
1978,1926,1913
1866,1823,1782
1654,1805,1718
1782,1891,1823
2091,1946,1895
2000,1888,1795
1642,1771,1653
1730,1808,1677
1838,1903,1901
2002,1935,1910
1807,1839,1763
1829,1837,1774
1990,1903,1855
1855,1889,1821
1797,1863,1744
1915,1850,1808
1953,1856,1808
1822,1878,1799
1859,1847,1802
1979,1832,1804
1718,1905,1783
1583,1835,1769
1745,1828,1781
2019,1904,1900
1935,1853,1847
1999,1937,1834
2035,1891,1843
1733,1754,1666
1485,1759,1715
1725,1843,1801
2014,1890,1732
2096,1903,1783
1974,1899,1934
1623,1847,1859
1648,1838,1791
1834,1879,1872
1830,1851,1923
1908,1827,1814
1905,1825,1680
1871,1840,1675
1790,1897,1872
1846,1843,1897
1741,1785,1775
1734,1808,1803
1885,1899,1900
2034,1925,1966
1882,1824,1797
1808,1835,1750
2005,1902,1860
1873,1827,1777
1776,1883,1936
1739,1870,1887
1918,1812,1804
1750,1798,1734
1775,1904,1870
1857,1933,1910
1904,1897,1913
1958,1823,1821
2023,1876,1837
2224,1906,1783
1657,1829,1809
1397,1782,1870
1603,1799,1814
1955,1902,1904
2110,1812,1858
1818,1862,1850
1779,1901,1844
2066,1914,1827
2298,1898,1889
1715,1777,1828
1417,1778,1742
1579,1850,1834
1866,1930,1920
2035,1919,1909
1901,1843,1846
1894,1881,1869
1980,1951,1914
1942,1872,1878
1810,1831,1816
2042,1875,1934
1770,1787,1819
1593,1857,1808
2009,1901,1760
2013,1903,1858
1681,1833,1891
1819,1792,1808
1776,1783,1765
1991,1942,1918
2342,1955,1937
1686,1815,1790
1408,1744,1774
1693,1806,1833
1925,1889,1950
2079,1885,1937
1966,1797,1760
1905,1920,1863
1843,1823,1885
1889,1844,1799
2241,1987,1869
2069,1877,1929
1505,1713,1757
1372,1776,1714
1634,1846,1790
1987,1920,1841
2111,1904,1875
1867,1774,1875
1842,1861,1775
2263,1930,1831
1767,1822,1872
1507,1802,1815
1680,1791,1817
1883,1902,1913
1866,1857,1878
1865,1879,1861
1872,1841,1808
1834,1863,1854
1870,1888,1945
1963,1919,1991
1936,1886,1878
2041,1918,1790
2169,1929,1774
1853,1744,1676
1502,1713,1808
1677,1901,1977
1824,1903,1938
1815,1879,1889
1856,1875,1827
1953,1874,1843
1890,1871,1874
1791,1838,1910
1826,1840,1861
2004,1872,1873
2093,1899,1895
1935,1875,1859
1767,1917,1845
2032,1939,1888
2003,1914,1892
1755,1858,1868
1627,1743,1747
1754,1829,1825
1937,1828,1911
2096,1856,1905
1849,1833,1774
1682,1840,1789
1803,1822,1838
1920,1907,1938
1873,1858,1869
1831,1835,1824
1950,1877,1894
1918,1911,1899
1839,1871,1843
1872,1867,1891
1891,1883,1904
2000,1837,1818
1813,1750,1730
1685,1811,1835
1795,1878,1911
1999,1919,1913
1957,1845,1855
1794,1810,1840
1867,1835,1843
1998,1875,1903
1888,1817,1798
1873,1908,1836
1946,1907,1898
1801,1805,1813
1806,1821,1794
1908,1744,1825
1781,1793,1773
1712,1773,1827
1893,1827,1833
1893,1872,1885
1803,1903,1964
1915,1904,1954
2131,1878,1766
1783,1775,1728
1527,1811,1815
1673,1803,1884
1872,1804,1841
1937,1853,1760
1893,1872,1846
1911,1887,1893
2035,1840,1799
1969,1780,1723
1712,1838,1868
1610,1856,1951
1904,1872,1852
1987,1879,1906
1839,1898,1935
1981,1846,1763
1834,1855,1616
1707,1859,1830
1892,1887,1999
2099,1947,1977
1829,1840,1712
1735,1748,1727
1914,1843,1886
1979,1885,1899
1664,1796,1759
1638,1808,1819
1921,1887,1840
2043,1871,1863
1732,1787,1776
1612,1799,1771
1795,1899,1888
2076,1904,1953
2288,1887,1759
2001,1889,1833
1723,1834,1932
1444,1808,1828
1713,1840,1758
2026,1899,1859
1947,1854,1894
1791,1808,1905
1867,1786,1785
1877,1834,1782
1776,1875,1819
2057,1932,1884
2019,1827,1727
1759,1849,1856
1874,1873,1963
1852,1849,1908
1744,1812,1901
1821,1903,1890
1943,1938,1911
1849,1801,1749
1721,1781,1735
1825,1872,1831
1929,1969,1991
1919,1819,1863
1723,1808,1743
1653,1821,1826
1916,1899,1920
2059,1881,1821
1621,1771,1718
1573,1808,1811
1722,1878,1917
1857,1906,1914
2195,1921,1846
2333,1893,1779
1679,1828,1854
1440,1781,1872
1616,1811,1832
1835,1872,1822
2018,1894,1867
2863,2064,1890
2135,1745,1561
1018,1680,1750
1152,1792,1953
1727,1857,1955
2608,1990,1882
2880,1894,1655
1379,1701,1703
916,1798,1904
1584,1925,1910
2223,1915,1827
1835,1808,1823
1587,1840,1935
2430,2064,2063
2179,1788,1696
1360,1808,1822
1347,1809,1860
1778,1769,1783
2010,1839,1743
1787,1855,1822
1810,1872,1927
1985,1829,1872
1958,1851,1810
1824,1983,2009
1998,1982,2043
1930,1776,1696
1634,1749,1655
1799,1857,1918
1673,1836,1867
1706,1818,1808
1851,1820,1757
1844,1867,1920
1835,1905,1986
1879,1854,1904
1977,1847,1795
1924,1873,1926
1905,1874,1915
1917,1801,1779
1810,1830,1875
1711,1872,1940
1859,1904,1918
1926,1825,1792
1951,1918,1856
2124,2017,1977
1852,1797,1806
1591,1680,1695
1612,1744,1847
1749,1827,1921
1854,1887,1955
2062,1906,1840
2188,1862,1694
1904,1774,1798
1647,1810,1977
1646,1840,1920
1840,1857,1850
1973,1887,1823
2100,1951,1947
2146,1851,1765
2311,1809,1565
1587,1712,1840
1032,1680,1878
1584,1795,1847
1975,1847,1847
1827,1872,1853
1789,1886,1863
1954,1879,1872
1950,1799,1733
1854,1873,1863
1747,1854,1901
1705,1799,1837
1978,1851,1840
1967,1845,1868
1877,1929,1958
1894,1885,1885
1840,1815,1835
1779,1854,1840
1841,1872,1815
2278,1902,1785
1815,1757,1737
1697,1830,1964
1680,1808,1850
1859,1871,1770
2000,1932,1856
1933,1901,1950
1733,1795,1776
1810,1843,1799
1911,1793,1813
1762,1759,1729
1877,1893,1856
1964,1843,1765
1765,1855,1870
1759,1936,2041
1684,1821,1861
1890,1844,1810
1827,1813,1703
1997,1925,1889
2017,1970,1987
1677,1793,1713
1787,1799,1717
1938,1837,1889
1845,1795,1795
1713,1840,1807
1823,1875,1981
1879,1872,1954
1844,1893,1743
2033,1904,1733
1886,1825,1771
1744,1852,1921
1838,1825,1904
2064,1846,1804
1892,1866,1712
1857,1965,2046
1904,1971,2005
1783,1753,1648
1687,1801,1712
1687,1830,1822
2000,1920,1945
1961,1843,1885
1645,1761,1735
1808,1881,1856
1837,1863,1799
1796,1830,1808
1856,1872,1866
2069,1950,2059
1954,1879,1922
1759,1787,1815
1911,1869,1757
2012,1910,1802
1823,1869,1870
1925,1929,1917
1874,1887,1889
1898,1877,1808
1766,1834,1791
1690,1759,1753
1823,1830,1749
1899,1883,1885
1938,1886,1939
1843,1813,1603
1787,1852,1790
1671,1866,2016
1728,1855,1968
1946,1850,1885
2093,1888,1887
1902,1899,1895
1792,1880,1845
2010,1917,1840
1843,1856,1792
1799,1852,1791
1805,1869,1861
1862,1862,1852
2096,1873,1919
1887,1840,1959
1811,1878,1816
2000,1930,1839
1899,1837,1783
1498,1755,1648
1597,1827,1869
1885,1853,1873
1921,1811,1766
2000,1873,1794
1969,1949,1975
1863,1834,1872
1721,1854,1868
1824,1857,1921
1905,1883,1808
1739,1797,1686
1744,1829,1802
1908,1872,1911
1935,1906,1894
1857,1887,1857
1841,1846,1746
2067,1904,1970
1869,1885,1936
2062,1952,1996
2007,1789,1712
1482,1754,1663
1483,1839,1781
1735,1874,1863
1920,1856,1899
1949,1871,1979
1982,1918,1926
1889,1875,1842
1793,1873,1862
1866,1942,1899
2032,1904,1871
2126,1856,1808
1962,1846,1897
1722,1902,2084
1829,1903,1953
1949,1835,1712
1651,1776,1641
1694,1829,1840
1926,1894,2011
1963,1865,1849
1831,1856,1778
2259,1967,1812
2023,1840,1739
1622,1802,1904
1648,1833,2000
1750,1883,2012
1895,1889,1871
2080,1936,1772
1939,1839,1774
1766,1815,1797
1734,1811,1793
2348,1895,1742
1836,1793,1717
1401,1792,1904
1677,1873,1995
2043,1881,1929
1855,1872,1828
1725,1853,1825
1902,1920,1810
1931,1899,1730
1809,1817,1786
1861,1878,1981
1957,1851,1882
2099,1855,1773
1909,1861,1726
1858,1904,1968
1802,1870,1891
1747,1845,1901
2099,2000,1959
1941,1851,1680
1599,1749,1627
1574,1770,1776
1797,1872,1970
2224,1982,2035
2201,1909,1869
1600,1810,1745
1621,1842,1787
1743,1825,1806
1883,1904,1897
1978,1906,2023
2160,1941,1936
2056,1881,1749
1771,1877,1915
1611,1840,1854
1807,1886,1872
1995,1919,2000
2064,1819,1787
1830,1791,1744
1738,1889,1892
1854,1922,1967
2027,1904,1920
1925,1852,1728
1975,1811,1680
2021,1907,1990
1887,1939,1958
1535,1824,1739
1607,1821,1776
1872,1841,1946
2215,1922,1937
1931,1840,1692
1743,1883,1855
1849,1904,1949
1982,1879,1939
1995,1857,1783
1765,1840,1810
1694,1897,1866
1902,1936,1923
1905,1874,1865
1863,1840,1818
2288,1955,1776
1953,1777,1733
1637,1777,1781
1663,1851,1918
1783,1942,1961
1898,1925,1972
2177,1904,1913
2311,1869,1808
1710,1902,1897
1535,1872,1957
1742,1830,1839
2155,1887,1732
2000,1810,1755
1776,1845,1777
1823,1966,1941
2084,1906,1872
1822,1744,1710
1670,1838,1845
1834,1926,1872
1879,1904,1891
1948,1887,1936
1990,1902,1902
1892,1840,1766
1763,1843,1806
1779,1902,1929
1939,1897,1913
2286,1965,1922
2038,1808,1779
1571,1810,1749
1506,1823,1772
1744,1827,1873
1904,1851,1869
1998,1952,2065
2512,2069,2071
2417,1943,1875
1513,1714,1633
1247,1739,1694
1585,1847,1847
1905,1840,1808
1932,1872,1889
1898,1904,1931
1851,1874,1818
1810,1831,1779
1847,1872,1883
2007,1938,1989
2317,1933,1862
2066,1819,1767
1706,1819,1889
1637,1868,1973
1797,1955,1949
2045,1947,1835
2127,1865,1756
1938,1794,1733
1531,1837,1808
1531,1787,1817
1776,1839,1871
1939,1915,1935
2293,2000,1970
2061,1830,1769
1602,1776,1776
1587,1827,1904
1762,1876,1895
1930,1885,1822
2043,1889,1776
1999,1951,1936
2039,1915,1920
1782,1776,1761
1742,1831,1831
1817,1901,1942
1927,1908,1889
2013,1885,1872
1973,1907,1854
1820,1845,1815
1776,1884,1888
1829,1869,1844
1916,1845,1776
1897,1840,1804
1839,1923,1936
2059,1926,1869
2031,1810,1700
1659,1854,1851
1639,1895,1936
2157,1933,1901
2303,1810,1789
1619,1799,1809
1476,1841,1788
1731,1822,1761
2042,1870,1829
2082,1965,1926
1939,1936,1954
1891,1885,1853
1928,1824,1840
1711,1872,1942
1771,1885,1872
1803,1797,1715
1949,1854,1791
2106,1856,1808
1939,1858,1878
1675,1890,1884
1837,1950,1895
1882,1904,1922
1936,1842,1885
1811,1744,1679
1814,1809,1704
1895,1874,1898
1756,1856,1858
1811,1843,1808
1911,1904,1936
1987,1872,1904
1776,1829,1815
1784,1821,1793
1962,1929,1904
2068,1954,2086
1903,1867,1935
1761,1792,1637
1843,1813,1701
1884,1898,1945
1966,1886,1925
1967,1840,1753
1898,1867,1808
1753,1900,1941
1741,1835,1864
1760,1791,1773
1898,1839,1859
1951,1888,2031
1979,1939,1968
2015,1879,1767
1853,1779,1739
1743,1867,1846
1750,1899,1860
1874,1867,1841
1872,1858,1853
1989,1945,1875
2087,1978,1988
1888,1821,1879
1833,1771,1728
1783,1844,1795
1767,1874,1879
1746,1782,1786
2128,1842,1843
2038,1872,1826
1525,1855,1842
1601,1837,1803
1901,1859,1808
1962,1890,1918
1949,1904,1904
1888,1866,1907
1856,1871,1943
1860,1917,1999
1870,1879,1871
1997,1829,1766
1861,1809,1709
1859,1842,1830
1852,1867,1855
1809,1840,1846
1976,1904,1907
2203,2035,2017
1775,1838,1840
1594,1750,1763
1762,1796,1840
1908,1877,1883
1867,1884,1875
2037,1917,1926
2046,1808,1760
1650,1856,1805
1671,1865,1887
1872,1882,1839
2059,1957,1920
2002,1934,1883
1898,1841,1830
1872,1807,1765
1905,1866,1808
1939,1872,1865
1867,1862,1872
2034,1869,1878
1979,1894,1927
1789,1840,1801
1780,1846,1860
1795,1863,1904
1869,1911,1831
1995,1915,1815
1932,1834,1746
1904,1808,1787
1764,1826,1811
1767,1901,1856
1918,1907,1887
2018,1879,1917
1840,1855,1903
1811,1878,1950
1838,1877,1869
1933,1871,1744
2147,1888,1737
1866,1936,1943
1712,1852,1907
1806,1791,1763
1824,1835,1729
1984,1935,1939
2034,1951,1968
2022,1810,1815
1936,1888,1840
1574,1771,1776
1532,1790,1833
1799,1845,1817
2015,1883,1826
1899,1852,1801
1783,1857,1920
1920,1904,1940
1984,1914,1898
2090,1904,1851
1765,1810,1743
1614,1777,1755
1828,1862,1805
1942,1910,1949
1808,1844,1813
1969,1847,1822
2059,1877,1898
1748,1841,1878
1675,1841,1859
1914,1863,1840
2038,1827,1725
1903,1889,1835
1717,1812,1846
1808,1799,1803
2075,1968,1953
1894,1899,1936
1635,1812,1847
1743,1776,1751
1895,1808,1744
2010,1879,1872
1872,1919,1933
2032,1924,1929
1968,1911,1824
1766,1840,1797
1698,1810,1703
1859,1828,1737
1859,1856,1872
1845,1927,1979
1967,1945,1947
2041,1842,1726
1716,1782,1740
1813,1955,1937
1779,1851,1875
1727,1783,1756
1962,1904,1734
2022,1873,1845
1742,1847,1886
1763,1826,1819
1893,1850,1831
1904,1881,1830
2059,1872,1856
2064,1843,1739
1904,1815,1706
1602,1846,1909
1519,1822,1908
1783,1819,1756
2063,1921,1840
1929,1916,1904
1773,1821,1797
1703,1779,1764
1856,1813,1789
1951,1936,1953
1973,1918,1941
1846,1835,1761
1776,1826,1771
1761,1883,1840
1802,1888,1934
1925,1859,1835
1919,1872,1817
2055,1932,1955
1901,1882,1854
1846,1808,1750
1812,1825,1767
1810,1872,1887
1782,1873,1989
1963,1899,1935
1855,1830,1690
1813,1844,1783
1890,1903,1925
1973,1872,1849
1936,1819,1775
1762,1841,1883
1776,1831,1826
1709,1819,1759
1909,1905,1904
1965,1889,2007
1815,1846,1869
1739,1856,1791
1978,1958,1915
1975,1831,1872
1789,1794,1814
1792,1810,1734
1876,1825,1738
1851,1895,1941
1790,1889,1984
1855,1883,1907
1948,1946,1963
1957,1916,1856
2076,1904,1812
1968,1791,1729
1707,1846,1839
1667,1842,1898
1774,1849,1893
1847,1872,1824
1914,1872,1845
2109,1959,1904
1968,1885,1839
1807,1842,1879
1710,1807,1837
1796,1819,1826
1953,1879,1859
1918,1860,1838
1974,1914,1901
1882,1877,1893
1872,1824,1830
1814,1858,1782
1811,1856,1817
1790,1879,1915
1878,1872,1884
1899,1859,1862
1935,1895,1889
1973,1906,1908
1991,1924,1820
1879,1899,1890
1775,1825,1808
1737,1846,1842
1868,1875,1898
2097,1920,1865
2098,1946,1873
1732,1763,1731
1631,1776,1794
1743,1799,1843
1853,1857,1854
2113,1936,1980
2119,1906,1915
1717,1810,1727
1683,1872,1804
1969,1904,1886
1985,1872,1957
1919,1876,1847
1878,1888,1797
1707,1857,1827
1680,1840,1870
1840,1856,1843
2171,1922,1843
2112,1920,1845
1730,1803,1952
1693,1781,1761
1679,1810,1713
1785,1843,1808
1941,1901,1927
2047,1892,1904
2064,1859,1814
1839,1842,1825
1742,1834,1818
2061,1890,1790
1967,1898,1847
1625,1867,1965
1680,1853,1904
1873,1862,1810
2052,1904,1890
2116,1938,1903
1837,1805,1695
1696,1715,1693
1789,1837,1847
2126,1997,1955
1930,1872,1856
1728,1770,1684
1837,1875,1888
1840,1866,1882
2000,1826,1811
1986,1825,1733
1763,1809,1698
1647,1823,1926
1694,1895,1978
2010,1919,1889
2075,1891,1786
1763,1829,1796
1683,1818,1809
1806,1826,1882
1847,1904,1954
1899,1924,1949
1853,1862,1814
1840,1856,1710
1968,1913,1888
1908,1887,1887
1846,1855,1878
1922,1861,1811
2148,1938,1883
1941,1818,1700
1671,1778,1792
1584,1766,1791
1729,1856,1854
1958,1995,1968
1959,1934,1999
2068,1902,1745
1895,1826,1612
1669,1870,1859
1717,1896,1963
1689,1782,1776
1759,1781,1810
2027,1872,1963
2134,1870,1921
1743,1806,1729
1632,1814,1669
1735,1873,1803
1941,1964,1985
1994,1918,1833
1872,1872,1796
1671,1872,1856
1839,1908,1885
1875,1856,1825
1940,1936,1822
1823,1872,1859
1985,1887,1989
1902,1770,1634
1781,1814,1738
1712,1872,1946
1734,1894,1937
1842,1886,1772
1817,1854,1770
1980,1882,1894
1838,1872,1888
1997,1889,1839
1837,1847,1823
1906,1943,1943
2014,1839,1713
1692,1728,1641
1781,1838,1946
1747,1845,1937
1760,1902,1975
1781,1859,1870
1845,1890,1804
1950,1878,1868
2002,1882,1873
1921,1872,1888
1854,1874,1833
1901,1872,1851
1808,1899,1856
1739,1835,1819
1814,1791,1815
1861,1862,1904
1930,1930,1952
1907,1895,1883
1830,1824,1872
1823,1879,1853
1950,1934,1872
1947,1884,1776
2019,1931,1872
1889,1898,1930
1745,1834,1851
2214,1872,1775
2032,1821,1778
1471,1881,1889
1535,1823,1829
1712,1814,1729
1957,1915,1806
2185,1902,1959
1759,1776,1872
1700,1792,1783
2151,1854,1723
1936,1820,1846
1507,1825,1955
1614,1872,1872
1835,1885,1934
2125,1968,1925
1952,1920,1808
1744,1801,1772
1813,1834,1869
1967,1900,1984
1945,1872,1823
1831,1839,1811
1895,1825,1871
1910,1841,1859
1756,1851,1828
2000,1907,1917
1802,1827,1840
1758,1872,1885
1838,1889,1916
1909,1842,1840
2026,1861,1788
1841,1914,1901
1878,1905,1894
1815,1803,1772
1910,1842,1847
1786,1795,1904
1707,1855,1870
1902,1888,1916
1999,1860,1825
1851,1873,1898
1813,1920,1856
2047,1827,1730
1939,1809,1767
1705,1831,1893
1765,1887,1936
1911,1825,1843
1897,1853,1840
2011,1966,2007
1793,1846,1856
1708,1797,1762
1875,1823,1730
1872,1859,1833
2000,1990,2000
2117,1887,1869
1925,1761,1594
1565,1750,1731
1631,1819,1899
1963,1871,1934
2263,1856,1918
1852,1792,1774
1617,1859,1844
1691,1801,1833
1883,1936,1923
2054,1926,1936
2155,1854,1777
1757,1806,1664
1597,1868,1776
1701,1874,1903
1987,1979,1929
2091,1777,1795
1947,1887,1847
1744,1861,1872
1698,1857,1840
1818,1915,1903
1962,1898,1886
2009,1939,1936
1948,1861,1846
1789,1847,1709
1776,1808,1787
1830,1841,1843
1859,1858,1951
1967,1849,1872
2080,1895,1776
1781,1821,1824
1675,1838,1878
1950,1889,1917
1999,1863,1840
1870,1930,1895
1841,1869,1821
1837,1831,1765
1759,1856,1869
1992,1919,2000
1968,1866,1858
1665,1813,1616
1734,1882,1738
1904,1885,1968
1865,1931,2022
1863,1861,1802
1855,1863,1797
1905,1869,1834
1904,1839,1929
1897,1818,1833
1877,1878,1843
2029,1988,1962
1873,1887,1882
1707,1823,1732
1691,1748,1727
1860,1820,1827
1923,1919,1897
2190,1929,1902
2026,1961,1904
1775,1890,1824
1611,1776,1787
1719,1765,1787
1929,1865,1857
1977,1918,1904
1888,1889,1840
1861,1835,1783
1807,1808,1776
1830,1857,1926
1847,1878,1856
1898,1921,1872
2015,1899,1889
1925,1855,1795
1862,1810,1826
1858,1838,1840
1757,1878,1823
1695,1893,1850
1782,1815,1776
1999,1843,1837
1858,1789,1833
1776,1840,1803
1866,1906,1839
1954,1897,1903
2064,1925,1930
2097,1922,1870
