1811,1913,1883
1831,1897,1851
1799,1840,1761
1794,1849,1805
1805,1887,1870
1817,1872,1830
1819,1850,1780
1823,1893,1856
1808,1899,1888
1797,1859,1821
1823,1857,1798
1840,1893,1859
1809,1894,1877
1818,1869,1825
1846,1882,1809
1843,1907,1869
1787,1872,1859
1791,1846,1802
1823,1852,1791
1839,1882,1847
1810,1899,1876
1839,1898,1849
1821,1849,1781
1813,1861,1826
1792,1870,1859
1818,1868,1830
1850,1886,1820
1795,1856,1826
1774,1839,1842
1799,1830,1813
1832,1842,1794
1843,1879,1846
1813,1889,1874
1815,1869,1827
1824,1843,1795
1823,1862,1843
1817,1867,1877
1838,1853,1838
1863,1872,1834
1874,1921,1904
1827,1904,1905
1746,1792,1751
1762,1770,1728
1814,1840,1838
1819,1873,1889
1805,1822,1810
1794,1810,1773
1814,1865,1840
1819,1873,1888
1840,1863,1851
1839,1835,1805
1825,1856,1840
1806,1863,1868
1822,1845,1815
1851,1856,1802
1843,1883,1862
1820,1872,1881
1837,1855,1841
1856,1863,1824
1818,1859,1840
1798,1863,1858
1803,1831,1813
1846,1847,1809
1841,1886,1866
1818,1876,1884
1799,1826,1805
1802,1804,1758
1821,1852,1830
1827,1871,1883
1847,1872,1858
1851,1851,1806
1829,1861,1840
1823,1886,1889
1822,1859,1836
1837,1856,1806
1847,1897,1870
1824,1904,1902
1840,1886,1854
1808,1840,1787
1824,1867,1840
1839,1894,1900
1853,1891,1856
1893,1903,1854
1849,1902,1871
1805,1875,1867
1802,1831,1807
1837,1833,1791
1845,1885,1872
1842,1907,1927
1854,1883,1885
1846,1839,1815
1834,1871,1876
1840,1886,1926
1887,1894,1911
1874,1869,1857
1815,1851,1858
1815,1872,1904
1838,1856,1872
1870,1863,1863
1888,1904,1935
1845,1879,1939
1838,1853,1872
1855,1842,1853
1868,1888,1921
1840,1885,1941
1827,1856,1889
1858,1870,1878
1869,1897,1930
1877,1914,1975
1854,1863,1905
1815,1808,1814
1823,1853,1883
1823,1888,1953
1862,1904,1934
1833,1825,1845
1808,1835,1850
1811,1861,1933
1843,1851,1840
1881,1871,1866
1842,1872,1879
1824,1869,1943
1850,1851,1866
1865,1846,1856
1869,1891,1941
1868,1914,1927
1879,1899,1921
1853,1841,1857
1855,1878,1897
1822,1861,1949
1854,1860,1874
1890,1877,1859
1834,1865,1894
1831,1882,1965
1818,1831,1845
1830,1820,1855
1859,1875,1910
1862,1902,1918
1854,1857,1888
1872,1854,1898
1847,1871,1931
1834,1872,1909
1841,1856,1911
1866,1856,1881
1881,1905,1967
1865,1915,1969
1814,1837,1906
1846,1834,1842
1887,1899,1941
1888,1904,1943
1846,1863,1936
1841,1856,1854
1863,1901,1887
1840,1887,1916
1834,1845,1857
1856,1842,1843
1858,1873,1905
1842,1889,1935
1856,1868,1883
1889,1871,1847
1879,1891,1910
1820,1858,1904
1825,1841,1869
1872,1849,1840
1888,1904,1905
1850,1903,1951
1834,1843,1840
1858,1847,1811
1869,1872,1888
1854,1898,1919
1845,1872,1903
1851,1858,1808
1871,1898,1927
1840,1879,1927
1848,1858,1822
1871,1866,1900
1867,1901,1881
1886,1923,1937
1867,1874,1874
1855,1856,1871
1857,1890,1895
1859,1900,1935
1861,1873,1872
1855,1853,1807
1850,1872,1892
1854,1899,1916
1872,1886,1888
1873,1859,1811
1889,1903,1893
1882,1918,1909
1844,1855,1857
1843,1835,1803
1856,1883,1873
1870,1919,1922
1873,1897,1867
1840,1856,1808
1840,1889,1840
1861,1916,1931
1870,1895,1842
1855,1866,1808
1855,1901,1872
1847,1903,2016
1843,1873,1845
1872,1878,1838
1875,1907,1886
1857,1906,1931
1851,1871,1772
1872,1867,1823
1882,1905,1875
1848,1899,1887
1860,1876,1840
1895,1886,1811
1857,1879,1855
1866,1921,1910
1871,1886,1845
1843,1835,1779
1851,1885,1856
1871,1921,1911
1858,1882,1845
1857,1871,1808
1875,1913,1871
1875,1931,1958
1847,1882,1843
1851,1872,1808
1871,1915,1853
1873,1937,1904
1873,1915,1860
1857,1871,1847
1840,1878,1856
1847,1893,1876
1859,1881,1840
1872,1887,1809
1887,1921,1904
1879,1936,1875
1887,1907,1829
1845,1855,1751
1842,1897,1849
1890,1957,1917
1860,1889,1853
1837,1834,1715
1863,1877,1795
1859,1904,1883
1871,1910,1835
1872,1889,1808
1862,1894,1839
1847,1903,1870
1872,1894,1838
1874,1876,1808
1863,1885,1847
1843,1903,1867
1872,1877,1823
1886,1872,1802
1891,1904,1867
1868,1920,1901
1861,1893,1839
1878,1890,1806
1886,1919,1856
1869,1931,1873
1840,1872,1818
1855,1856,1808
1870,1904,1843
1866,1923,1799
1856,1897,1821
1882,1875,1809
1877,1901,1851
1849,1895,1841
1853,1872,1786
1873,1874,1792
1861,1899,1751
1840,1884,1862
1839,1858,1786
1858,1854,1751
1881,1894,1861
1872,1918,1897
1858,1875,1794
1867,1867,1819
1899,1918,1861
1862,1901,1872
1842,1842,1787
1877,1856,1776
1899,1903,1841
1874,1914,1873
1868,1885,1819
1873,1877,1790
1872,1905,1843
1834,1878,1853
1839,1847,1796
1867,1855,1781
1886,1893,1845
1875,1908,1874
1855,1865,1805
1872,1862,1777
1880,1891,1835
1871,1904,1863
1890,1906,1833
1886,1878,1791
1842,1871,1801
1850,1879,1842
1860,1847,1791
1873,1851,1769
1885,1904,1846
1865,1901,1872
1853,1866,1821
1878,1862,1787
1872,1886,1828
1875,1905,1875
1858,1856,1795
1879,1861,1778
1843,1887,1831
1836,1892,1858
1812,1857,1799
1875,1863,1789
1925,1905,1853
1847,1909,1881
1920,1856,1803
1842,1840,1766
1851,1888,1841
1915,1921,1904
1805,1850,1802
1808,1822,1753
1901,1893,1831
1891,1875,1852
1856,1840,1802
1827,1840,1776
1843,1889,1840
1841,1894,1869
1850,1855,1805
1901,1843,1781
1877,1879,1840
1867,1889,1872
1861,1858,1807
1887,1855,1774
1866,1899,1837
1877,1911,1890
1853,1840,1803
1904,1826,1758
1883,1883,1840
1866,1901,1884
1858,1856,1815
1873,1845,1785
1862,1871,1834
1874,1877,1860
1836,1854,1806
1852,1833,1774
1886,1885,1856
1867,1890,1877
1843,1840,1795
1856,1836,1771
1872,1877,1840
1827,1879,1861
1867,1856,1813
1910,1856,1783
1893,1888,1852
1856,1870,1853
1833,1840,1804
1857,1840,1782
1873,1881,1842
1873,1911,1897
1840,1870,1838
1846,1810,1744
1904,1876,1840
1897,1904,1887
1842,1833,1796
1808,1809,1744
1834,1853,1830
1856,1886,1882
1849,1855,1821
1927,1840,1787
1876,1857,1835
1844,1886,1882
1821,1846,1811
1843,1826,1776
1878,1893,1866
1861,1873,1883
1808,1819,1792
1882,1842,1787
1843,1838,1812
1837,1832,1831
1904,1823,1804
1924,1843,1792
1869,1869,1841
1890,1872,1871
1862,1851,1827
1885,1856,1808
1863,1856,1841
1861,1867,1863
1866,1843,1819
1870,1841,1779
1870,1863,1834
1856,1871,1861
1863,1854,1814
1854,1830,1774
1850,1872,1835
1845,1885,1875
1859,1833,1808
1810,1823,1776
1831,1866,1840
1878,1890,1899
1871,1868,1841
1856,1834,1788
1855,1857,1838
1835,1859,1865
1891,1843,1811
1871,1851,1808
1879,1876,1865
1853,1878,1889
1859,1850,1840
1851,1825,1792
1862,1872,1854
1883,1903,1918
1853,1850,1850
1849,1842,1809
1867,1899,1888
1810,1860,1882
1808,1822,1815
1828,1845,1823
1907,1874,1872
1821,1866,1883
1898,1840,1847
1841,1847,1837
1872,1863,1885
1858,1863,1894
1851,1840,1853
1819,1837,1827
1827,1869,1882
1851,1871,1911
1820,1838,1850
1872,1835,1823
1842,1872,1893
1871,1898,1939
1836,1846,1861
1813,1825,1813
1840,1870,1873
1840,1871,1913
1871,1844,1867
1856,1837,1839
1853,1855,1889
1776,1879,1931
1839,1840,1866
1840,1815,1819
1869,1870,1900
1825,1872,1910
1863,1861,1878
1829,1828,1838
1788,1837,1867
1817,1845,1894
1842,1840,1872
1873,1856,1863
1851,1871,1883
1831,1865,1902
1857,1837,1853
1882,1856,1856
1894,1904,1928
1838,1860,1917
1822,1818,1843
1830,1793,1806
1852,1840,1885
1866,1877,1943
1896,1854,1886
1851,1840,1842
1849,1841,1889
1812,1854,1913
1829,1837,1859
1840,1840,1825
1831,1869,1893
1917,1901,1963
1850,1831,1866
1854,1808,1813
1860,1858,1893
1863,1868,1933
1859,1845,1872
1841,1827,1824
1859,1870,1901
1836,1862,1927
1858,1859,1888
1842,1829,1826
1840,1857,1879
1829,1857,1904
1823,1830,1854
1843,1833,1840
1851,1863,1905
1831,1872,1931
1835,1850,1877
1840,1825,1831
1847,1867,1894
1859,1888,1945
1847,1850,1878
1862,1840,1838
1872,1904,1911
1850,1900,1926
1840,1843,1867
1841,1814,1831
1833,1856,1871
1867,1907,1943
1845,1851,1869
1861,1840,1830
1855,1863,1883
1840,1862,1904
1850,1853,1867
1855,1840,1837
1847,1871,1886
1855,1882,1910
1856,1859,1863
1883,1869,1867
1847,1865,1885
1841,1872,1907
1840,1843,1851
1844,1833,1813
1862,1869,1887
1870,1901,1943
1840,1842,1858
1848,1831,1821
1877,1882,1904
1890,1920,1952
1858,1842,1839
1822,1809,1777
1831,1850,1840
1840,1863,1888
1857,1847,1850
1879,1856,1840
1882,1893,1898
1826,1878,1895
1837,1847,1838
1860,1847,1815
1881,1890,1893
1856,1904,1923
1873,1879,1877
1884,1856,1827
1872,1877,1872
1818,1872,1894
1808,1842,1841
1853,1859,1840
1856,1881,1895
1827,1871,1882
1844,1855,1841
1861,1848,1808
1859,1866,1859
1815,1840,1857
1821,1827,1825
1845,1840,1817
1865,1878,1883
1870,1907,1927
1855,1866,1858
1869,1857,1822
1852,1872,1865
1837,1875,1907
1891,1874,1859
1936,1899,1845
1883,1899,1869
1787,1857,1851
1810,1850,1820
1852,1844,1809
1903,1918,1895
1856,1903,1905
1850,1856,1830
1879,1867,1813
1850,1882,1871
1850,1899,1886
1859,1850,1790
1846,1847,1760
1843,1902,1863
1845,1929,1925
1922,1930,1859
1902,1873,1769
1818,1919,1840
1831,1968,1920
1858,1968,1877
1899,1982,1840
1847,1983,1808
1828,1984,1835
1815,1943,1762
1846,1948,1765
1937,2039,1877
1904,2054,1936
1789,1989,1837
1823,2003,1829
1854,2017,1874
1810,1997,1835
1760,1962,1790
1815,1979,1821
1859,2029,1833
1839,2014,1874
1872,1988,1779
1898,2003,1810
1874,2021,1888
1825,2010,1901
1811,1968,1825
1885,1994,1794
1863,1986,1862
1840,1983,1875
1827,1983,1856
1931,2033,1853
1920,2033,1921
2138,2100,1966
2054,1997,1825
1729,1905,1689
1634,1918,1727
1838,1983,1898
1905,1984,1837
1680,1886,1703
1872,1989,1858
2023,1999,1858
1840,1926,1790
1772,1957,1750
1802,1980,1840
1835,1983,1840
1837,1950,1778
1874,1920,1712
1997,1973,1758
1943,1979,1813
1776,1865,1595
1682,1879,1622
1868,1974,1759
1818,1913,1744
1743,1904,1731
1827,1926,1715
1897,1955,1679
1789,1940,1744
1666,1849,1675
1823,1856,1625
1901,1895,1631
1841,1905,1615
1776,1875,1648
1802,1899,1729
1794,1933,1761
1969,1994,1777
1824,1873,1661
1680,1805,1531
1786,1890,1625
2032,1943,1749
1851,1857,1728
1825,1847,1706
1952,1920,1719
1630,1866,1649
1646,1869,1687
1747,1808,1574
1730,1785,1562
1823,1846,1680
1961,1904,1776
1851,1758,1599
1661,1769,1666
1773,1839,1714
1883,1805,1669
1778,1777,1677
1823,1825,1863
1651,1766,1889
1701,1727,1930
1904,1714,2025
1753,1758,2117
1873,1771,2031
1658,1728,1911
1789,1813,1800
1854,1773,1821
1723,1671,1741
1649,1662,1727
1789,1726,1753
1723,1762,1725
2021,1811,1686
1773,1639,1501
1615,1680,1635
1985,1872,1919
1796,1681,1673
1524,1600,1558
1847,1681,1614
1936,1731,1679
1753,1665,1572
1424,1508,1424
1690,1599,1613
1932,1755,1747
1744,1717,1581
1615,1733,1648
1917,1721,1750
2177,1738,1769
1616,1567,1449
1449,1558,1406
1709,1621,1607
1760,1687,1813
1680,1724,1638
1779,1646,1454
1818,1602,1502
1942,1783,1826
1776,1719,1865
1727,1603,1617
1736,1487,1392
1517,1535,1402
1535,1693,1693
1938,1715,1678
1981,1618,1482
1606,1680,1702
1563,1642,1804
2159,1781,1825
2154,1650,1631
1360,1477,1200
1458,1647,1680
1803,1535,1584
1627,1562,1696
1920,1677,1695
2127,1743,1831
1746,1669,1725
1686,1616,1523
1707,1652,1648
1790,1592,1645
2144,1510,1614
1777,1730,1734
1557,1714,1680
1737,1649,1722
1793,1649,1728
1789,1650,1671
2059,1696,1641
2124,1632,1671
1187,1697,1808
1302,1680,1745
1712,1709,1825
2020,1837,1807
2414,1682,1633
1535,1531,1664
1723,1774,1630
1648,1614,1591
1808,1535,1653
1907,1723,1827
1904,1697,1727
1665,1689,1783
1719,1583,1666
1567,1571,1727
1911,1609,1584
2000,1678,1681
2452,1856,1840
1468,1535,1599
1221,1712,1865
1896,1878,2082
2000,1588,1680
1505,1535,1475
2134,1753,1755
2544,1773,1741
1429,1582,1757
1495,1702,1771
2322,1800,1589
1846,1828,1950
1392,1600,1839
1600,1726,1761
1648,1621,1738
1794,1655,1867
1915,1571,1809
1619,1655,1754
1469,1767,1842
1702,1779,1792
1879,1730,1810
2027,1699,1913
1945,1664,1895
1705,1681,1671
1427,1623,1702
1907,1693,1750
2414,1814,1827
1669,1740,1920
1419,1735,2032
1606,1671,1763
1723,1712,1691
2293,1781,1644
1765,1723,1897
1414,1598,1856
1719,1709,1802
2066,1743,2032
1717,1797,1984
1533,1662,1606
1683,1744,1908
1919,1925,2039
1759,1744,1792
1726,1651,1766
1579,1666,1744
1678,1854,1963
1649,1707,1780
1746,1719,1823
2193,1825,1901
1941,1856,2029
1892,1886,1930
1671,1743,1728
1282,1674,1777
1725,1826,2055
2102,1744,1823
1939,1744,1748
1522,1762,1903
2206,1962,2128
1661,1731,1842
1309,1629,1746
1814,1840,1969
1917,1770,1810
2032,1814,1778
1989,1758,1745
1511,1737,2003
1365,1762,2025
1855,1787,1888
2131,1773,1738
2837,1881,1895
1616,1685,1723
975,1707,1874
1535,1805,2143
3263,2000,1996
1948,1783,1739
1019,1717,1787
1459,1856,2020
1910,1794,2113
1618,1803,1963
1692,1930,2035
2288,1902,1957
1793,1638,1506
1211,1744,1843
1724,1855,2043
2107,1851,1873
1664,1811,1957
1472,1750,2007
1819,1823,1958
2191,1867,1831
2082,1807,1839
1561,1825,1979
1703,1899,2031
1823,1743,1802
1754,1808,1818
1901,1867,1959
2041,1892,1917
1851,1810,1761
1571,1872,1968
1985,1968,2211
1787,1711,1775
1481,1713,1859
1795,1891,2015
1829,1860,1936
2059,1842,1812
2223,1803,1701
1573,1851,1970
1651,1931,2157
1984,1904,2062
2007,1775,1707
1659,1779,1811
1575,1831,2026
1875,1857,1979
1875,1819,1744
1792,1847,1942
1587,1890,2034
1889,1915,1931
2443,1888,1898
1879,1779,1894
1322,1814,1883
2038,1991,2077
2302,1959,2071
1617,1794,1871
1428,1811,1920
2091,1936,1936
1830,1790,1745
1781,1855,1956
1951,1888,1985
1672,1789,1902
2289,1866,2033
2047,1825,1774
1658,1877,1827
1535,1874,1917
1808,1901,2073
2032,1891,1943
1872,1808,1851
1883,1878,1887
2429,1953,1968
1843,1827,1887
1582,1866,1979
1535,1839,1984
2147,1878,1791
1971,1834,1837
1692,1902,2003
1665,1917,1984
1887,1799,1755
1878,1887,2058
1962,1947,2120
1729,1791,1786
1706,1861,1722
2457,2043,2082
2120,1868,1872
1472,1710,1771
1375,1743,1811
1761,1854,2009
2298,1924,2035
2277,1943,2064
1834,1857,1849
1745,1878,1826
1808,1911,2015
1615,1843,1903
1641,1792,1811
1856,1872,1917
2112,1968,1962
2006,1843,1869
1954,1859,1921
2177,1930,2083
1826,1776,1876
1472,1831,1798
1676,1893,1840
1776,1840,1922
1987,1937,2015
2071,1823,1838
2102,1891,1921
1979,1830,1847
1790,1883,1937
1776,1898,1989
2163,1854,1703
1684,1770,1931
1535,1915,2106
1926,1920,1885
1872,1799,1719
2067,1934,2010
1959,1931,1978
1827,1868,1978
1835,1803,1885
2030,1893,1871
1854,1900,1906
1749,1831,1904
1909,1888,1904
2064,1872,1837
1898,1839,1875
1680,1853,1958
1946,1868,2011
2055,1902,2001
1823,1981,1908
1805,1915,1785
2005,1730,1800
1772,1776,1794
1949,2057,2078
1918,1850,1898
1746,1794,1793
1840,1871,1910
2027,1898,1915
2079,1900,1909
1667,1871,1933
1869,1919,1987
1874,1839,1920
1950,1839,1793
2242,1945,1885
1922,1797,1741
1535,1890,1999
1659,1866,1971
1894,1838,1853
2080,1902,1902
2031,1943,1968
2209,1981,2110
1792,1834,1735
1837,1869,1697
1747,1862,1904
1981,1871,1915
2105,1843,1774
1931,1916,1879
1695,1917,2016
1964,1872,1943
1872,1821,1812
1791,1895,1898
1927,1939,1972
2042,1968,1881
1835,1834,1814
1809,1866,1853
1830,1891,1967
1983,1869,1935
2269,1932,1885
1932,1892,1826
1769,1915,2000
1744,1844,1857
1803,1819,1808
1972,1870,1901
2125,1947,2001
2193,1945,1910
1776,1834,1781
1648,1865,1847
1921,1894,1881
2086,1891,1853
1911,1923,1891
1841,1956,1946
1903,1887,2001
1962,1875,1801
2000,1855,1782
1921,1859,1885
1808,1835,1973
2145,1945,1938
2091,1836,1714
1671,1824,1787
1744,1934,1927
1884,1922,1908
2032,1953,1985
1878,1881,1901
1958,1877,1953
2073,1875,1788
1982,1895,1744
1765,1921,2029
1782,1920,1984
2081,1906,1864
1965,1895,1846
1870,1921,1897
1909,1863,1818
1955,1830,1827
1973,1885,1828
1924,1917,1921
1853,1911,1890
1889,1859,1759
2083,1910,1904
2077,1981,2019
1824,1923,2034
1791,1842,1833
2235,1907,1823
2013,1842,1718
1691,1863,1884
1847,1899,1893
1957,1893,1855
2003,1895,1919
1920,1893,1926
1936,1859,1746
1968,1872,1891
1971,1936,1978
1978,1917,1835
1735,1865,1846
1840,1866,1855
1903,1886,1809
1997,1920,1921
2013,1906,1847
2001,1927,1831
1889,1938,1939
1882,1878,1985
1950,1859,1904
1968,1854,1774
2137,1918,1788
1912,1907,1867
1776,1876,1883
1987,1938,1952
1998,1905,1799
1840,1831,1715
1824,1871,1908
1919,1872,1911
2073,1936,1947
2226,1937,1920
1890,1801,1744
1770,1828,1737
1841,1930,1951
1939,1935,1977
2017,1894,1839
2002,1913,1840
2091,1950,1946
1872,1840,1872
1861,1839,1800
1947,1857,1798
1999,1911,1783
1877,1911,1872
1937,1843,1748
1904,1866,1865
2054,1975,1934
2035,1931,1854
1936,1835,1840
1755,1805,1691
1853,1904,1932
1929,1941,1905
2021,1888,1791
2009,1882,1839
1967,1943,1994
1968,1891,1910
1923,1853,1783
1958,1879,1897
1962,1857,1808
1819,1867,1822
1836,1859,1817
2023,1904,1862
2027,1930,1931
1896,1926,1954
2009,1899,1741
2078,1859,1683
1719,1843,1779
1750,1895,1905
1968,1927,2000
1997,1872,1802
1996,1933,1818
1986,1923,1926
1963,1913,1856
1887,1850,1808
1854,1897,1874
1867,1885,1857
2000,1898,1821
2047,1943,1886
2111,1947,1881
2015,1904,1865
1758,1793,1733
1772,1831,1753
1926,1929,1865
1984,1955,1958
1898,1889,1805
1898,1899,1749
2078,1959,1873
2129,1951,1943
1952,1871,1828
1872,1822,1778
1834,1907,1863
1793,1867,1774
2044,1867,1847
2010,1881,1749
1803,1907,1758
2089,1974,1819
2019,1823,1727
1715,1879,1894
2000,1927,1887
1943,1869,1805
1795,1849,1776
1920,1882,1827
1913,1965,1975
1900,1905,1894
2032,1873,1767
1966,1899,1841
1885,1921,1790
1890,1882,1823
1819,1838,1827
1856,1822,1785
1959,1921,1865
2000,1906,1903
2198,1959,1877
1837,1810,1685
1723,1878,1807
1751,1894,1858
1898,1868,1841
1923,1873,1802
2094,1902,1872
1871,1859,1714
1830,1852,1792
1815,1879,1885
1907,1882,1902
1869,1875,1810
1815,1872,1771
2208,1967,1899
1975,1865,1926
1744,1834,1764
2016,1911,1771
1872,1809,1678
1681,1845,1879
1783,1933,1957
2035,1915,1834
1943,1834,1792
1838,1830,1755
2000,1872,1871
2123,1914,1964
2017,1826,1852
1982,1905,1935
1856,1802,1905
1587,1817,1712
2001,1819,1747
1971,1895,1838
1878,1904,1717
1738,1797,1870
1911,1808,1904
1767,1891,1712
1744,1913,1623
2026,1909,1679
2072,1872,1893
1795,1845,1906
1905,1870,1834
2029,1871,1808
1905,1864,1726
1791,1856,1832
1712,1883,1904
1996,1870,1871
2126,1861,1807
1791,1830,1907
1818,1919,1860
1795,1891,1717
1873,1828,1757
1663,1782,1751
1722,1856,1890
1851,1827,1872
2084,1856,1718
1946,1841,1785
1834,1979,2101
1947,1869,1872
1936,1846,1600
1949,1937,1870
1814,1893,2032
1811,1834,1901
1691,1811,1653
1897,1851,1735
1869,1801,1840
1814,1876,1889
2015,1946,1909
2075,1873,1807
1703,1840,1855
1618,1863,1867
1831,1838,1908
1969,1909,1999
1900,1875,1738
1775,1830,1681
1750,1856,1810
2059,1975,1920
1935,1855,1857
1763,1804,1841
1906,1849,1899
1888,1950,1949
1730,1871,1819
1801,1806,1779
1927,1842,1747
1900,1887,1897
2187,1923,1983
1909,1819,1841
1584,1792,1840
1634,1851,1773
1851,1873,1840
1984,1899,1889
1919,1847,1808
1863,1884,1892
1703,1867,1891
1792,1859,1873
1877,1811,1799
2027,1826,1853
1919,1929,1893
1775,1931,1889
1760,1824,1854
1761,1794,1802
1958,1885,1850
1879,1828,1866
1837,1840,1887
1939,1913,1887
1882,1879,1967
1993,1822,1845
1711,1775,1635
1599,1839,1770
1717,1883,1860
2114,1911,1877
1957,1862,1934
1749,1900,1936
1795,1842,1963
1926,1825,1846
2009,1879,1821
1870,1872,1795
1734,1814,1824
1773,1808,1767
1822,1825,1776
2160,1938,2021
1975,1803,1842
1613,1782,1835
1703,1849,1848
1811,1881,1803
2025,1905,1987
2039,1872,1854
1982,1808,1727
2064,1907,1877
1845,1819,1835
1573,1781,1747
1751,1847,1750
1792,1887,1862
1925,1924,1936
1881,1818,1869
1895,1801,1803
1723,1793,1747
1827,1856,1901
2098,1920,1995
1978,1847,1721
1766,1822,1846
2127,1958,1844
1947,1890,1872
1584,1791,1773
1682,1757,1893
1875,1845,1894
1918,1872,1743
1831,1874,1744
1843,1846,1791
1861,1897,1936
2175,1895,1962
1986,1778,1742
1870,1923,1927
1776,1824,1872
1657,1802,1800
1802,1863,1808
1872,1851,1911
1839,1842,1823
1728,1791,1706
1895,1806,1716
2013,1925,1905
1917,1885,1895
1699,1804,1814
1724,1801,1809
1939,1899,1886
1991,1894,1875
1764,1809,1870
1735,1790,1818
1920,1827,1855
1968,1914,1950
1981,1903,1845
1946,1821,1773
1895,1868,1808
1837,1919,1968
1812,1844,1844
1778,1803,1744
1903,1840,1827
1885,1881,1950
1862,1857,1894
1870,1849,1870
1789,1811,1819
1904,1888,1847
2021,1867,1773
1886,1827,1776
1667,1821,1878
1762,1791,1943
1788,1799,1791
1963,1904,1813
1962,1872,1915
1807,1844,1918
1787,1870,1893
1796,1850,1794
1854,1870,1757
1895,1914,1923
1937,1885,1902
1813,1835,1814
1769,1810,1856
1858,1859,1939
1905,1904,1917
1879,1856,1807
2025,1915,1930
1789,1833,1791
1648,1776,1669
1833,1838,1770
1951,1887,1881
1817,1872,1961
1830,1872,1958
1936,1858,1877
1953,1898,1952
1830,1856,1854
1771,1849,1857
1823,1861,1792
1942,1931,1859
2087,1943,1965
1958,1797,1807
1740,1755,1726
1777,1882,1918
1904,1902,1909
1741,1847,1850
1729,1828,1738
1921,1907,1899
2075,1904,1983
1933,1834,1938
1707,1830,1776
1944,1919,1901
1919,1860,1936
1680,1833,1872
1747,1844,1790
1961,1858,1855
2074,1846,1947
1806,1835,1778
1715,1825,1797
1899,1905,1926
1994,1894,1936
1951,1825,1808
2000,1903,1917
1930,1872,1904
1675,1851,1766
1717,1872,1881
1858,1859,1861
1997,1914,1872
2095,1909,1845
1821,1792,1776
1715,1753,1831
1999,1915,1906
1939,1934,1920
1713,1853,1776
1755,1872,1815
1902,1877,1947
1936,1810,1937
1824,1802,1794
1795,1826,1718
1857,1936,1937
2169,1965,2031
1889,1867,1877
1738,1809,1733
1942,1927,1861
1936,1899,1908
1805,1840,1871
1879,1823,1862
1965,1854,1872
1937,1862,1902
1872,1870,1911
1780,1856,1841
2033,1995,1918
1971,1825,1719
1616,1771,1798
1744,1867,1874
2013,1881,1907
1863,1855,1851
1695,1830,1803
1968,1867,1885
2117,1871,1902
1808,1897,1809
1866,1901,1857
1854,1939,1970
1808,1895,1834
1828,1834,1849
1871,1807,1775
2150,1862,1787
2038,1867,1795
1642,1889,1898
1729,1863,1922
1872,1841,1851
1843,1872,1862
1945,1895,1889
1913,1859,1823
1892,1872,1799
2113,1920,1926
1840,1837,1910
1792,1843,1936
1881,1866,1714
1776,1887,1767
1779,1851,1957
1795,1825,1905
1786,1826,1856
2041,1903,1839
1916,1887,1747
1906,1861,1843
1991,1822,1787
1850,1850,1769
1787,1897,2062
1760,1872,1754
2074,1953,1813
1990,1841,1842
1622,1861,1859
1712,1877,1855
1984,1875,1922
1966,1852,1784
1814,1847,1869
1776,1842,1872
1954,1891,1798
2006,1890,1773
1861,1883,1855
1747,1840,1863
1776,1865,1904
1941,1862,1984
1959,1867,1790
1993,1898,1839
1897,1838,1823
1726,1879,1808
1781,1862,1821
1873,1858,1847
1863,1782,1726
1871,1863,1855
1981,1968,2019
1835,1893,1883
1903,1859,1762
1855,1866,1808
1950,1889,1952
2044,1818,1798
1753,1794,1730
1643,1889,1841
1986,1985,2123
1775,1788,1733
1654,1767,1585
2047,1895,1790
2096,1895,1853
1812,1849,1820
1601,1811,1851
1888,1808,1983
2031,1941,1867
1808,1763,1801
1564,1845,1748
2027,1931,1919
2288,2025,1955
1874,1698,1639
1520,1835,1797
1775,1921,2111
2012,1856,1955
2047,1852,1721
1997,1777,1566
1712,1789,1776
1642,1857,1957
1761,1885,1823
1895,1879,1892
2063,1954,2033
1887,1835,1936
1663,1812,1579
1815,1920,1836
2067,1891,1936
1771,1836,1899
1712,1863,1872
1959,1891,1791
1979,1872,1904
1856,1844,1830
1936,1823,1814
1961,1846,1777
1627,1847,1869
1510,1839,1919
1959,1909,1878
2141,1947,1840
2035,1887,1809
1618,1807,1827
1687,1824,1865
2073,1895,1801
1981,1845,1887
1949,1903,1968
1863,1734,1754
1823,1882,1865
1744,1949,1812
1591,1856,1818
1909,1859,1816
2182,1856,1816
1974,1849,1894
1631,1846,2046
1762,1905,1742
1697,1756,1655
1847,1872,1805
1936,1959,1901
1950,1862,1907
1867,1834,1858
2193,1817,1847
2192,1968,1983
1622,1847,1743
1317,1856,1764
1682,1895,1904
1718,1868,1799
1785,1802,1714
2058,1865,1776
1915,1858,1961
1872,1907,2224
2065,1885,1822
2090,1839,1492
2256,1961,1793
1526,1843,1893
1289,1810,1872
1591,1788,1838
1937,1858,1942
2098,1949,2084
1950,1875,1815
2029,1790,1554
2047,1826,1680
1583,1829,1827
1571,1833,1856
1871,1856,1962
1905,1885,1978
1840,1917,1909
2127,1857,1792
1905,1808,1712
1702,1936,1945
1744,1869,1829
1908,1827,1843
1851,1800,1823
1872,1882,1968
2217,1894,1854
1934,1836,1657
1682,1760,1695
1720,1732,1918
1767,1951,2032
1794,1925,1901
1862,1791,1685
2059,1927,1767
1885,1926,2017
1794,1790,1795
1743,1808,1753
1871,1808,1811
2057,1915,1936
1729,1856,1863
1818,1898,1954
2125,1861,1862
1729,1759,1829
1878,1866,1763
1827,1882,1699
1727,1861,1851
1885,1841,1923
1674,1860,1861
1710,1773,1907
1947,1919,2003
2259,2022,1979
1919,1821,1703
1579,1762,1639
2080,1962,1847
1953,1759,1807
1562,1797,1932
1829,1883,1972
2063,1855,1812
1683,1767,1747
1761,1827,1988
2070,1889,1862
1985,1795,1666
1630,1867,1927
1776,1879,1901
2059,1915,1946
1814,1793,1823
1823,1895,1872
1871,1846,1843
1914,1893,1985
1887,1834,1749
1727,1796,1642
1750,1808,1814
1937,1876,1873
1993,1881,1846
1942,1850,1920
1919,1847,1958
1709,1808,1887
2032,1919,1727
2061,1915,1779
1511,1783,1909
1413,1806,1840
1775,1839,1867
2322,1878,1906
2010,1839,1833
1707,1808,1799
1887,1851,1959
1931,1936,2005
1890,1871,1835
1670,1761,1682
1834,1827,1743
1776,1889,2000
1906,1862,1799
1871,1837,1807
1938,1891,2018
2112,1842,2013
