1815,1515,1761
1728,1603,1808
1799,1535,1937
1777,1502,1856
1743,1449,1650
1851,1609,1797
2019,1728,2083
1901,1582,1984
1776,1570,1744
1920,1603,1918
1765,1535,1790
1893,1621,1722
2011,1672,1803
1808,1584,1842
1736,1583,1907
1766,1593,1855
1863,1638,1808
1920,1634,1869
1895,1663,1931
2130,1709,1945
1866,1572,1749
1613,1535,1774
1808,1616,1872
1964,1617,1839
1945,1698,1859
1894,1669,1952
1792,1616,1887
1682,1488,1717
1846,1584,1803
1895,1598,1840
1861,1653,1847
1903,1658,1871
2135,1689,2083
1808,1600,1791
1626,1591,1680
1776,1584,1743
1808,1535,1697
1958,1630,1856
2062,1683,1975
1899,1715,1854
1885,1679,1778
1776,1649,1805
1773,1626,1824
1806,1616,1744
1901,1669,1727
2026,1798,1845
1799,1674,1728
1776,1642,1798
1858,1699,1824
1873,1769,1774
1886,1785,1779
1829,1800,1676
2178,2095,1936
2069,1940,1859
1554,1840,1594
1658,1904,1569
1843,1907,1607
1843,2017,1714
1984,2126,1889
2066,2099,1747
1871,1967,1596
1680,2058,1722
1728,2101,1762
1856,2082,1666
2002,2098,1667
1898,2119,1701
1804,2176,1751
2053,2166,1655
1845,2066,1565
1681,2176,1777
1872,2255,1830
1808,2153,1648
1803,2166,1616
1962,2271,1757
1866,2224,1718
1865,2171,1646
1986,2194,1657
2170,2290,1743
1867,2240,1755
1589,2101,1589
1823,2182,1712
2003,2213,1845
1897,2238,1637
1831,2193,1578
1878,2218,1680
2274,2303,1821
1866,2160,1680
1520,2159,1648
1680,2162,1701
1933,2258,1797
2058,2285,1776
2378,2304,1599
1827,2103,1497
1559,2159,1715
1811,2224,1828
2078,2224,1814
1855,2209,1658
1853,2230,1758
2005,2251,1696
2134,2236,1663
1856,2224,1646
1627,2267,1718
1869,2308,1851
2179,2379,1840
1871,2213,1706
1904,2192,1683
1874,2221,1666
2051,2205,1535
2302,2270,1757
1914,2238,1767
1488,2256,1862
1565,2257,1796
1917,2263,1740
2219,2354,1877
2198,2258,1811
1856,2195,1603
1601,2167,1630
1689,2231,1777
2091,2295,1953
2057,2229,1867
1904,2220,1661
2198,2345,1872
2283,2272,1947
1702,2128,1642
1611,2125,1561
1744,2151,1637
1979,2182,1887
1917,2204,1926
1984,2273,1771
2020,2242,1762
1954,2207,1793
2032,2190,1753
1828,2095,1874
1746,2081,1721
1981,2176,1818
1847,2141,1739
2000,2155,1871
1756,2142,1847
1776,2188,1874
2114,2128,1701
2003,2055,1859
1960,2109,1968
1803,2128,1795
1712,2090,1766
1881,2122,1835
2021,2145,1888
2169,2128,1805
2128,2106,1755
1782,1953,1856
1594,2045,1835
1733,2115,1907
1924,2078,1936
1847,2017,1786
1895,2102,1835
2035,2123,1920
1864,1950,1782
1827,1943,1826
1959,2071,1968
1930,2019,1941
1695,1945,1773
1734,1942,1781
1847,1978,1894
1933,1983,1902
1863,1952,1906
1787,1899,1869
1888,1937,1861
1968,1955,1904
1793,1850,1809
1657,1785,1773
1734,1872,1895
1783,1914,1927
1815,1853,1872
1910,1825,1808
1922,1822,1872
1751,1856,1978
1683,1808,1872
1713,1769,1843
1764,1776,1926
1777,1776,1894
1794,1747,1837
1776,1749,1807
1744,1772,1910
1705,1747,1878
1709,1697,1838
1718,1679,1741
1765,1713,1851
1751,1725,1888
1722,1668,1790
1740,1663,1795
1713,1680,1841
1715,1670,1863
1728,1632,1776
1758,1643,1786
1773,1675,1856
1725,1632,1867
1710,1600,1805
1726,1579,1751
1750,1610,1803
1735,1581,1770
1697,1557,1785
1725,1566,1802
1742,1589,1803
1733,1590,1826
1748,1535,1752
1761,1521,1727
1763,1575,1819
1743,1584,1847
1756,1535,1803
1761,1511,1742
1785,1562,1778
1779,1563,1855
1759,1523,1790
1803,1526,1781
1745,1535,1782
1734,1531,1815
1777,1522,1783
1812,1505,1794
1808,1535,1792
1735,1533,1818
1754,1510,1803
1793,1518,1728
1787,1535,1799
1751,1520,1794
1737,1481,1733
1808,1500,1808
1835,1556,1819
1802,1535,1853
1808,1525,1856
1820,1515,1825
1806,1529,1822
1787,1535,1843
1808,1519,1776
1843,1521,1778
1857,1575,1821
1769,1535,1808
1776,1510,1774
1841,1522,1825
1858,1570,1903
1815,1567,1888
1815,1521,1819
1853,1521,1791
1875,1582,1874
1866,1594,1896
1840,1505,1776
1844,1497,1771
1847,1565,1819
1807,1556,1866
1865,1534,1862
1904,1535,1836
1907,1587,1895
1869,1584,2004
1855,1535,1834
1887,1535,1751
1904,1591,1918
1872,1596,1949
1859,1534,1813
1874,1531,1744
1891,1582,1869
1867,1589,1911
1886,1565,1856
1953,1563,1891
1903,1557,1826
1842,1577,1856
1843,1569,1840
1911,1567,1836
1935,1622,1931
1904,1641,1915
1875,1584,1838
1916,1562,1806
1920,1598,1861
1870,1617,1872
1869,1584,1855
1971,1598,1889
2015,1659,1950
1964,1665,1920
1855,1575,1792
1875,1558,1757
1926,1630,1859
1941,1678,1922
1932,1613,1851
1950,1616,1837
1936,1660,1919
1898,1669,1968
1913,1626,1849
1953,1627,1859
1950,1676,1933
1922,1680,1895
1943,1667,1889
1961,1616,1788
1941,1648,1829
1899,1673,1890
1909,1658,1774
1968,1680,1782
1941,1677,1869
1902,1651,1803
1897,1635,1806
1936,1653,1801
1936,1679,1825
1945,1685,1906
1936,1668,1808
1931,1661,1791
1939,1700,1882
1933,1710,1945
1929,1680,1839
1968,1683,1827
1963,1711,1916
1923,1711,1883
1943,1695,1807
1951,1682,1799
1949,1714,1867
1934,1722,1889
1939,1695,1810
1950,1687,1785
1960,1715,1840
1961,1739,1885
1931,1707,1817
1937,1694,1795
1941,1728,1859
1939,1749,1904
1936,1723,1830
1927,1687,1811
1948,1728,1831
1905,1719,1863
1924,1706,1823
1941,1702,1802
1944,1751,1872
1931,1757,1905
1947,1727,1862
1974,1719,1807
1941,1744,1851
1935,1759,1878
1943,1747,1839
1968,1744,1840
1975,1782,1900
1931,1763,1872
1936,1739,1803
1983,1769,1838
1968,1774,1881
1920,1744,1865
1931,1739,1815
1938,1746,1809
1979,1803,1891
2000,1840,1950
1948,1766,1835
1915,1733,1776
1922,1771,1831
1936,1802,1893
1965,1783,1861
1963,1776,1832
1989,1847,1920
1963,1838,1927
1924,1758,1826
1941,1763,1825
1953,1802,1844
1967,1827,1869
1963,1789,1838
1963,1799,1835
1933,1819,1878
1925,1839,1903
1953,1815,1837
1974,1835,1808
1937,1845,1859
1909,1845,1926
1905,1827,1840
1951,1840,1809
1925,1875,1874
1968,1869,1895
1980,1853,1856
1982,1854,1825
2008,1889,1869
1919,1879,1893
1930,1821,1807
1932,1811,1779
1936,1877,1866
1975,1886,1901
1905,1855,1836
1963,1878,1835
1967,1916,1905
1949,1901,1915
1973,1869,1850
1984,1893,1824
1937,1897,1860
1936,1919,1904
1906,1863,1813
1926,1872,1801
2000,1911,1865
1917,1936,1905
1914,1882,1833
1933,1872,1806
1941,1910,1866
1941,1945,1905
1909,1902,1839
1905,1866,1792
1963,1921,1863
1945,1939,1905
1942,1916,1852
1952,1907,1820
1937,1914,1847
1910,1924,1872
1966,1918,1840
1988,1925,1842
1943,1951,1872
1914,1934,1873
1961,1935,1841
1977,1924,1826
1947,1963,1895
1931,1983,1899
1910,1943,1824
1919,1915,1783
1927,1941,1852
1901,1966,1882
1920,1969,1856
1936,1940,1815
1953,1981,1865
1907,1963,1875
1863,1936,1826
1972,1965,1831
2000,2000,1899
1874,1968,1890
1870,1942,1823
1904,1939,1808
2003,1968,1868
1935,1984,1903
1904,1974,1845
1926,1963,1810
1904,1992,1866
1958,2010,1929
1939,1979,1856
1936,1933,1781
1950,1993,1867
1884,1989,1882
1905,1962,1834
1927,1959,1818
1938,2026,1875
1920,2013,1899
1890,1945,1799
1922,1954,1792
1917,1984,1865
1905,2007,1904
1910,1967,1840
1946,1980,1802
1954,2010,1882
1907,1986,1890
1869,1965,1808
2047,1948,1791
1915,2000,1867
1906,2003,1889
1895,1967,1808
1903,1945,1772
1931,1993,1854
1984,2012,1904
1970,1979,1867
1943,1975,1840
1919,2005,1873
1902,1989,1841
1859,1943,1781
1890,1949,1782
1947,2020,1886
1927,2013,1904
1919,1968,1834
1927,1953,1786
1923,2000,1847
1913,2014,1902
1921,1983,1855
1918,1951,1808
1870,1966,1826
1855,1975,1853
1949,1968,1807
1901,1965,1809
1867,1983,1867
1854,1983,1863
1893,1974,1827
1948,1990,1826
1862,2031,1904
1909,1967,1863
1838,1930,1793
1937,1920,1770
1911,1979,1863
1847,2005,1898
1903,1975,1837
1991,1961,1779
1918,1998,1870
1909,2003,1907
1856,1968,1841
1916,1984,1825
1870,1984,1863
1918,1968,1872
1893,1951,1808
1947,1983,1818
1911,1979,1840
1833,1950,1854
1854,1927,1805
1879,1933,1792
1924,1985,1872
1904,1989,1890
1888,1948,1825
1926,1965,1811
1919,1972,1859
1904,1999,1905
1860,1938,1826
1869,1936,1779
1865,1959,1837
1898,1990,1905
1893,1957,1849
1872,1911,1783
1857,1946,1835
1902,1981,1879
1953,1971,1872
1923,1936,1808
1886,1954,1834
1926,2000,1903
1861,1938,1823
1891,1936,1824
1883,1962,1871
1838,1955,1874
1891,1904,1804
1872,1923,1808
1872,1966,1883
1842,1952,1873
1854,1915,1808
1897,1924,1798
1903,1977,1885
1871,1963,1890
1854,1905,1815
1856,1884,1791
1859,1923,1848
1907,1974,1898
1919,1943,1843
1881,1905,1793
1835,1919,1830
1837,1922,1834
1862,1910,1815
1920,1936,1834
1902,1959,1875
1878,1943,1879
1847,1893,1808
1867,1904,1803
1862,1919,1861
1856,1930,1877
1877,1910,1831
1904,1905,1813
1893,1920,1871
1855,1929,1869
1841,1891,1815
1849,1886,1791
1856,1913,1850
1853,1916,1873
1857,1897,1808
1873,1886,1808
1890,1934,1888
1859,1931,1883
1871,1910,1841
1877,1901,1817
1888,1936,1874
1849,1905,1865
1858,1886,1825
1863,1886,1819
1843,1906,1847
1837,1919,1881
1878,1902,1839
1885,1894,1807
1861,1902,1845
1838,1901,1872
1855,1882,1834
1874,1881,1827
1871,1915,1870
1849,1910,1899
1853,1877,1823
1903,1926,1842
1898,1955,1885
1809,1887,1856
1838,1868,1808
1874,1859,1789
1866,1908,1863
1842,1904,1888
1870,1903,1854
1898,1904,1833
1845,1900,1841
1857,1909,1891
1856,1879,1829
1852,1878,1797
1866,1920,1870
1867,1933,1906
1835,1870,1818
1840,1872,1779
1877,1904,1841
1854,1895,1889
1829,1856,1815
1835,1859,1790
1867,1911,1867
1872,1927,1903
1842,1871,1812
1860,1857,1778
1899,1924,1905
1849,1897,1888
1847,1873,1823
1849,1858,1807
1826,1872,1838
1839,1887,1866
1842,1862,1815
1857,1862,1803
1847,1873,1856
1847,1890,1905
1845,1869,1823
1810,1834,1757
1835,1881,1849
1857,1905,1895
1869,1877,1853
1849,1838,1790
1843,1882,1857
1830,1890,1871
1834,1840,1785
1874,1846,1789
1856,1904,1872
1818,1883,1879
1833,1842,1821
1843,1840,1790
1840,1865,1840
1847,1881,1872
1848,1851,1829
1884,1890,1838
1845,1872,1849
1792,1837,1846
1826,1838,1821
1882,1861,1820
1879,1890,1861
1840,1889,1888
1808,1840,1795
1844,1843,1780
1866,1891,1875
1839,1872,1876
1845,1854,1810
1851,1849,1794
1863,1899,1858
1843,1872,1878
1835,1823,1813
1862,1842,1808
1856,1873,1857
1818,1857,1865
1831,1840,1815
1882,1853,1803
1899,1909,1885
1843,1885,1866
1807,1823,1785
1853,1853,1815
1865,1893,1895
1842,1904,1891
1847,1866,1811
1863,1841,1782
1882,1881,1871
1854,1894,1906
1829,1853,1818
1867,1845,1808
1872,1887,1875
1839,1879,1892
1840,1857,1840
1872,1860,1831
1872,1902,1889
1854,1893,1907
1837,1834,1809
1856,1843,1813
1856,1878,1872
1833,1878,1893
1856,1875,1850
1840,1840,1788
1840,1882,1851
1854,1894,1887
1854,1860,1815
1856,1856,1797
1833,1935,1867
1811,1881,1867
1847,1894,1817
1866,1851,1819
1840,1882,1863
1838,1926,1872
1839,1830,1821
1845,1839,1808
1854,1918,1865
1850,1893,1900
1846,1870,1840
1847,1863,1808
1842,1901,1863
1831,1878,1883
1863,1853,1843
1840,1801,1791
1847,1905,1856
1861,1926,1909
1850,1873,1838
1845,1871,1806
1871,1920,1877
1840,1875,1903
1850,1854,1829
1847,1835,1788
1840,1872,1849
1856,1905,1893
1840,1868,1805
1859,1842,1808
1888,1899,1911
1835,1904,1903
1810,1845,1819
1849,1872,1801
1880,1899,1889
1865,1891,1902
1840,1824,1853
1839,1833,1782
1840,1851,1851
1853,1903,1904
1886,1913,1866
1859,1867,1825
1847,1885,1888
1827,1843,1885
1834,1866,1839
1897,1888,1854
1867,1888,1873
1809,1847,1859
1819,1830,1810
1870,1850,1818
1895,1872,1890
1838,1879,1879
1825,1860,1822
1862,1840,1824
1872,1876,1888
1866,1872,1899
1840,1862,1827
1862,1862,1821
1841,1874,1854
1820,1843,1879
1840,1816,1822
1877,1855,1810
1882,1873,1879
1859,1889,1899
1870,1873,1857
1883,1877,1849
1870,1915,1882
1796,1899,1854
1808,1792,1801
1872,1849,1834
1871,1858,1859
1847,1883,1865
1871,1863,1841
1872,1903,1843
1889,1975,1911
1843,1887,1887
1808,1855,1807
1830,1838,1809
1858,1859,1881
1870,1951,1917
1890,1873,1862
1862,1870,1826
1846,1893,1893
1825,1857,1872
1842,1853,1833
1867,1855,1832
1871,1894,1872
1835,1886,1886
1855,1849,1817
1873,1844,1840
1859,1904,1905
1837,1895,1904
1842,1859,1838
1847,1845,1808
1872,1875,1855
1883,1887,1907
1866,1901,1878
1857,1898,1833
1841,1872,1867
1838,1897,1882
1875,1878,1862
1852,1840,1819
1826,1919,1840
1856,1792,1906
1857,1875,1853
1809,1811,1791
1811,1851,1843
1870,1898,1887
1965,1910,1905
1882,1872,1833
1760,1851,1828
1779,1841,1855
1827,1833,1826
1895,1843,1808
1904,1907,1859
1836,1946,1927
1836,1859,1872
1903,1934,1872
1913,1887,1897
1946,1917,1898
1885,1805,1821
1770,1777,1774
1760,1889,1819
1839,1917,1904
1932,1891,1889
1926,1895,1890
1867,1878,1890
1851,1912,1857
1893,1850,1808
1849,1829,1781
1839,1946,1884
1834,1877,1904
1925,1906,1889
1870,1855,1874
1834,1929,1879
1888,1918,1946
1899,1855,1846
1957,1872,1789
1971,1911,1867
1939,1925,1969
1923,1877,1921
1891,1910,1858
1942,1901,1844
1879,1893,1921
1745,1808,1831
1783,1865,1856
1989,1962,1974
1989,1927,1895
1984,1859,1781
1872,1821,1831
1792,1847,1891
1987,1955,2000
2111,1905,1897
1911,1872,1879
1923,1938,1831
1946,1873,1810
1797,1847,1867
2027,1911,1863
1988,1815,1825
2005,1850,1996
1776,1791,1939
1651,1785,1755
2014,2003,2017
1956,1872,1907
1808,1863,1843
1897,1854,1806
2039,1845,1857
1981,1907,2005
1998,1917,1919
1920,1841,1879
1845,1840,1861
1852,1913,1894
2144,2018,2002
2223,1943,2005
1899,1827,1702
1587,1851,1744
1719,1861,1851
2106,1959,1936
2368,1951,1973
1806,1838,1855
1611,1907,1911
1859,1985,1979
1920,1933,1927
1698,1873,1882
1756,1950,1849
2000,1962,1738
2096,1969,1907
1881,1940,1973
1785,1878,1926
1835,1934,1863
1895,1954,1839
2192,2044,2007
2039,2021,2086
1843,1919,1819
1771,1965,1835
2109,2047,1987
2101,1859,1904
1392,1742,1699
1575,1986,1850
2286,2144,1827
1884,1879,1591
1989,1969,1681
2012,1984,1661
1657,1887,1621
1791,1881,1571
2000,1977,1615
2001,1971,1744
1734,2037,1645
2108,1936,1355
1844,1777,1202
1701,1940,1507
1804,2001,1855
1925,2002,1668
1776,1882,1535
1966,1807,1285
1843,1904,1441
1712,1909,1671
1728,1872,1562
2057,1842,1616
1840,1879,1645
1535,1777,1392
1874,1909,1535
1791,1854,1499
1492,1847,1505
1751,1878,1601
2061,1815,1661
2633,2036,1856
1739,1890,1435
1327,1793,1391
2096,1775,1392
1891,1744,1411
1321,1794,1535
1632,1906,1521
1808,1840,1376
1984,1840,1402
1670,1721,1451
1647,1725,1503
2034,1852,1488
2215,1874,1617
1562,1680,1616
1415,1792,1344
1689,1794,1198
1907,1839,1393
1822,1840,1436
1763,1746,1120
1776,1766,1130
1787,1805,1262
1742,1755,1163
1730,1678,1152
1749,1722,1085
1737,1809,1060
1893,1776,1078
2027,1789,1091
1779,1743,1166
1974,1883,1351
1777,1810,1090
1566,1714,1011
1741,1749,1111
1869,1761,1119
1738,1707,1182
1854,1819,1299
2187,1808,1105
1856,1596,835
1295,1648,1000
1523,1775,1247
2007,1799,1315
1937,1750,1227
1617,1776,1186
1918,1797,1206
2043,1735,1088
1616,1739,1117
1653,1767,1119
2007,1765,1232
1794,1674,1334
1691,1718,1341
1697,1744,1189
1798,1716,1043
1969,1798,1318
1885,1767,1306
1755,1744,1319
1726,1653,1219
1744,1699,1228
1803,1813,1434
1744,1786,1587
1871,1766,1586
2007,1707,1475
1666,1734,1584
2169,1885,1875
1919,1661,1802
1854,1748,1663
1347,1682,1580
1584,1792,1893
1904,1725,1842
2111,1732,1769
2256,1865,1801
1478,1664,1643
1726,1749,1776
1766,1662,1491
1693,1790,1437
2206,1917,1631
1877,1599,1301
1486,1669,1493
1808,1871,1805
1799,1728,1599
1823,1787,1535
1871,1756,1333
1797,1734,1413
2010,1827,1617
1841,1616,1388
1535,1711,1409
1740,1808,1427
1955,1829,1535
1845,1718,1408
1954,1651,1507
1841,1797,1597
1637,1782,1506
1876,1754,1398
2139,1733,1490
1707,1733,1491
1762,1808,1598
2023,1779,1471
1648,1648,1363
1647,1757,1650
1726,1773,1635
2077,1793,1571
2021,1732,1511
1522,1731,1508
1591,1792,1712
1990,1712,1600
2118,1729,1535
1886,1795,1562
1648,1762,1510
1695,1803,1686
2206,1786,1744
1827,1715,1680
1442,1713,1498
1942,1779,1646
2133,1719,1498
1584,1729,1630
1910,1807,1791
1835,1724,1647
2014,1916,1837
1930,1837,1793
1683,1648,1595
1776,1732,1585
1982,1878,1799
1767,1790,1646
1773,1840,1813
1779,1710,1710
1897,1681,1731
1824,1744,1691
2029,1749,1727
1824,1794,1699
1712,1799,1840
1885,1744,1619
1696,1746,1705
1743,1796,1823
2097,1776,1897
2011,1840,2003
1778,1842,1865
1619,1759,1697
1805,1791,1789
1990,1808,2002
1810,1719,1749
1759,1796,1738
1903,1803,1910
1799,1755,1911
1619,1732,1835
1817,1812,1872
1959,1744,1779
2279,1857,1968
1917,1819,1805
1584,1776,1900
1897,1900,2112
2054,1863,1840
1427,1723,1728
1718,1765,1891
2359,1936,2169
2766,1773,1746
1233,1617,1775
979,1714,1879
1782,1879,2030
2135,1813,1894
1697,1788,1981
2015,1850,2021
2144,1835,1955
2025,1935,2179
1583,1791,2101
1680,1707,1725
1721,1786,1971
1905,1853,2039
1858,1781,2046
1785,1738,2003
1910,1803,1966
2153,1937,1969
1808,1814,1894
1744,1775,2113
1611,1780,1957
2206,1897,1989
2029,1804,2013
1535,1818,2122
1725,1797,1872
1949,1813,1904
2011,1826,2083
2021,1826,1900
1630,1773,2122
1825,1888,2066
2007,1856,2176
1855,1774,1905
1706,1776,1969
2032,1836,2039
1999,1793,1890
1516,1861,2192
1661,1828,2241
2169,1843,2118
1969,1734,1885
1611,1786,1882
1535,1856,2035
2258,1910,2118
1956,1776,2143
1433,1765,2091
1872,1937,2131
2301,1899,2030
1850,1734,1930
1510,1777,2026
2192,1867,2034
1945,1846,1952
1315,1790,2064
1604,1861,2187
2256,1844,2017
2073,1801,2075
1783,1841,2018
1697,1817,2239
1680,1787,2112
1961,1911,1980
2311,1885,2021
1937,1841,2133
1408,1795,2000
1722,1899,2074
1862,1762,2187
2283,1945,2112
2097,1861,2031
1456,1755,1942
1407,1762,1967
1983,1831,1977
1968,1826,2145
1750,1869,2176
2022,1942,2288
2176,1885,2224
1894,1778,1918
1651,1801,1847
1555,1872,2182
1973,1868,2148
2112,1840,2010
1886,1872,2114
1805,1856,2148
1482,1760,2017
1778,1883,2059
2512,1922,1949
1698,1750,1968
1360,1820,2084
1845,1905,2235
2642,2033,2289
1649,1750,1899
1407,1776,1956
1791,1925,2128
2022,1905,2042
1815,1840,1970
1814,1789,2096
1831,1829,2179
2197,1925,2099
2253,1865,1926
1606,1741,1936
1588,1827,2019
1676,1903,2192
2001,1938,2224
1977,1887,1941
1776,1786,1890
1714,1846,2066
1847,1893,2083
1795,1847,1942
1768,1869,2032
1810,1877,2169
1915,1875,2055
1751,1840,1987
1865,1873,2126
1985,1904,2128
2001,1938,2044
2064,1936,2106
2031,1804,2021
1607,1808,1890
1670,1852,1917
1904,1823,1886
1982,1920,2174
1958,1895,2042
1968,1898,2068
2039,1838,1951
2033,1897,1927
1707,1819,2026
1557,1847,2096
1731,1829,2030
1939,1867,2185
1990,1948,2015
2073,1936,2064
1968,1888,2087
1657,1843,1982
1839,1850,1932
1993,1869,1983
1859,1793,1991
1851,1860,2032
1922,1969,2162
1782,1875,2092
1940,1881,1919
2143,1954,1936
2080,1933,2039
1712,1841,2128
1867,1910,2154
1739,1845,1882
1819,1920,2003
2536,2000,2239
1946,1842,1845
1567,1889,1911
1945,2006,2206
2150,1867,1968
1814,1826,1815
1609,1875,1971
1643,1884,2104
2085,1900,2149
1911,1911,1968
1867,1935,2034
2208,2000,2085
1904,1846,1931
1861,1808,1847
1731,1874,1936
1721,1933,2177
1962,1999,2288
2288,1936,1882
2046,1805,1655
1559,1903,2020
1644,1933,2127
1947,1851,1970
1831,1869,1967
1805,1904,2116
2065,1897,2002
2196,1968,1920
1858,1865,1797
1792,1909,1877
2176,1953,2064
1759,1858,2064
1761,1854,1950
2189,1955,2121
1994,1979,2032
1924,1920,1893
2029,1822,1767
1701,1895,2003
1899,1961,2038
2025,1874,2014
1941,1843,1891
1535,1840,1885
1847,1874,1952
2134,1921,1995
2242,1945,1882
1712,1952,1967
1665,1934,2058
2156,1953,2144
2336,1904,1941
1793,1828,1799
1623,1853,1827
1831,1904,2111
2127,1931,2011
1845,1904,1914
1865,1914,1961
2088,1997,1963
2332,1986,2163
1831,1811,1823
1484,1851,1840
1903,1854,1794
2242,1856,1906
1838,1872,1999
1680,1918,2098
1871,1902,1861
1857,1859,1851
1775,1926,1984
2000,1939,2075
2171,1863,1948
2165,1911,1965
1714,1844,1826
1529,1916,2000
1969,1917,1937
2128,1911,1918
1759,1901,1919
1843,1890,1946
2289,1844,1856
1892,1807,1659
1712,1901,2032
2162,1973,2010
1962,1930,1902
1490,1839,1825
1965,1879,2027
2690,1895,1838
1770,1800,1778
1583,1925,1957
1802,1945,1984
1971,1869,1935
2045,1902,1923
1963,1826,1907
1801,1896,1993
1702,1849,1817
1821,1847,1799
2247,1888,1792
2277,1936,2003
1651,1904,1904
1530,1840,1792
2032,1920,1857
2128,1901,2038
1683,1839,1970
1699,1873,1806
2138,1889,1872
1879,1873,1905
2062,1953,2001
1851,1827,1840
1557,1827,1798
1909,1885,1872
2032,1875,1871
1849,1842,1840
1897,1839,1808
2159,1904,1987
2047,1968,1975
2087,1938,1838
1698,1826,1882
1503,1786,1802
1744,1829,1809
2242,1934,1852
2655,2006,2069
2035,1823,1823
1271,1783,1792
1457,1824,1936
1822,1907,1761
2046,1909,1867
2096,1904,1958
2166,1775,1836
1741,1863,1822
2000,1999,1955
1695,1862,1817
1457,1795,1789
1937,1855,1957
2382,1889,1917
1889,1867,1835
1616,1795,1803
1646,1871,1919
2143,1987,1829
2127,1858,1858
1791,1783,1821
1828,1840,1808
1999,1939,1795
1983,1985,2032
1949,1794,1749
1742,1827,1755
1648,1941,1987
1797,1875,1955
2058,1917,1949
2007,1829,1803
1773,1859,1793
1665,1869,1700
1909,1791,1735
1885,1808,1907
1787,1823,1859
1821,1885,1878
2010,1923,1901
2064,1878,1986
1755,1872,1814
2021,1999,1831
1801,1731,1637
1581,1769,1934
1932,1942,1975
2027,1942,1861
1945,1872,1774
1975,1865,1830
1723,1861,1803
1685,1831,1877
1808,1849,1877
2032,1868,1757
2045,1924,1888
1982,1923,1900
1921,1797,1651
1625,1859,1849
1675,1935,2057
2056,1872,1842
1859,1840,1793
1706,1859,1768
2019,1893,1856
2096,1899,1808
1842,1881,1795
1873,1863,2047
1801,1824,1887
1874,1900,1859
1745,1839,1728
2005,1835,1650
1806,1828,1881
1680,1872,1917
1790,1884,1806
1955,1905,1858
2176,1895,1984
1962,1847,1882
1649,1823,1739
1713,1882,1730
2064,1980,2000
1893,1776,1804
1739,1776,1753
1781,1886,1874
1841,1896,1840
2111,1971,2107
1993,1872,1843
1787,1846,1661
1759,1894,1862
1929,1865,1931
2263,1872,1777
1838,1822,1695
1525,1950,2029
1871,1902,1983
1840,1777,1699
1698,1821,1767
2005,1968,1930
1842,1860,1773
1679,1838,1806
1840,1901,1916
2078,1907,1923
1971,1863,1930
1791,1867,1807
2011,1901,1727
1846,1872,1808
2070,1932,1892
1786,1809,1781
1527,1854,1850
1780,1938,1890
2122,1914,1839
2094,1807,1942
1671,1823,1721
1535,1863,1847
2098,1985,2058
2112,1843,1735
1792,1776,1514
1603,1874,1870
1900,1875,2079
1869,1809,1828
1718,1894,1664
1927,1958,1947
2007,1972,1985
2014,1920,1809
1936,1867,1694
1678,1840,1904
1985,1795,1899
1690,1783,1719
1682,1857,1776
1808,1873,1854
1871,1872,1810
2211,2021,1981
2141,1931,1966
1936,1778,1791
1505,1810,1782
1965,1979,1814
2246,1938,1722
1685,1817,1959
1630,1815,1801
1838,1798,1846
1867,1906,1921
2009,1973,1968
2095,1929,1805
1879,1813,1687
1658,1830,1779
1931,1889,1879
2384,1931,2010
1748,1780,1799
1312,1885,1843
1612,1917,1950
2061,1919,1835
2173,1797,1665
1708,1808,1787
1771,1923,1927
2160,1909,1879
2023,1840,1846
1567,1817,1806
1581,1878,1855
1815,1920,1853
2219,1861,1867
1873,1849,1826
1721,1905,1888
1963,1955,2017
1765,1808,1779
1781,1795,1799
1740,1841,1774
1903,1935,1823
1863,1863,1791
1829,1854,1813
2113,1822,1807
1776,1903,1965
1567,1847,1904
1826,1863,1936
2286,1906,1807
1842,1872,1801
1533,1837,1727
2128,1883,1807
2093,1810,1671
1531,1808,1950
1670,1858,2000
1994,1881,1836
1962,1947,1846
1863,1910,1907
2061,1890,1857
1799,1764,1625
1783,1873,1883
1859,1889,1959
2017,1869,1886
2129,1822,1707
1481,1897,1898
1680,1948,1968
2032,1957,1855
2156,1856,1772
1622,1770,1852
1647,1839,1853
1853,1893,1823
2227,1977,2094
1964,1823,1817
1708,1795,1727
1954,1916,1731
1792,1844,1695
1647,1843,1835
2320,1965,2031
1919,1776,1774
1483,1857,1875
1906,1968,2133
1978,1895,1780
1712,1806,1711
1883,1902,1853
2240,1913,1996
2366,1862,1761
1514,1855,1776
1338,1845,1774
1819,1855,1883
1974,1942,1979
1884,1791,1773
1846,1821,1746
1898,1852,1871
1754,1806,1958
1849,1894,1839
2406,2027,1983
2086,1807,1700
1726,1920,1863
1716,1726,1776
1891,1922,1985
1931,1962,2059
2067,1873,1957
2191,1838,1776
2431,1954,1757
1618,1729,1775
1360,1871,1907
1830,1909,1876
2000,1745,1627
1822,1854,1795
1803,1904,2116
1871,1813,1842
1854,1777,1616
1993,1989,1834
1890,2015,1954
1918,1905,1945
1846,1813,1785
1790,1810,1883
1957,1898,1839
1742,1870,1718
2074,1936,1841
2313,1915,2085
1731,1803,1825
1477,1773,1697
1792,1875,1759
2338,1879,1955
1760,1857,1754
1560,1951,1842
2191,1926,1854
2329,1854,2070
1618,1744,1900
1383,1776,1648
1680,1880,1702
2545,2096,2041
1961,1785,1774
1531,1781,1776
1967,1963,1998
1863,1733,1939
1607,1731,1638
1993,1843,1612
2218,1990,2029
2256,1951,2001
1449,1711,1639
1194,1754,1667
1680,1824,1879
2063,1856,2007
1869,1870,1823
1910,1813,1664
1966,1879,1827
1982,1817,2110
1974,1868,2026
1671,1795,1811
1678,1904,1713
1980,1862,1682
1687,1839,1739
1709,1872,1904
1713,1851,1909
1680,1841,1827
1914,1923,1881
2298,1935,1933
1991,1778,1791
1808,2031,1886
1738,1847,1742
1647,1843,1851
1776,1809,1873
1744,1718,1965
1829,1893,1922
2093,1866,1858
1808,1829,1747
1680,1895,1795
1707,1936,1906
2047,1968,2063
2000,1795,1817
1699,1788,1680
1535,1824,1762
1887,1872,1887
2055,1845,1947
1722,1866,1929
1785,1926,1891
2175,1894,1718
1904,1856,1728
1520,1827,1869
1571,1901,1996
1829,1857,1853
1895,1855,1745
