1883,1879,1834
1705,1840,1809
1723,1822,1817
1744,1811,1782
1850,1899,1910
1883,1915,1939
1889,1862,1799
1970,1877,1771
1795,1819,1851
1686,1813,1856
1787,1846,1854
1854,1853,1790
1958,1879,1810
1869,1851,1867
1817,1869,1866
1953,1884,1840
1883,1872,1871
1877,1840,1882
1800,1817,1815
1813,1840,1845
1837,1853,1840
1858,1855,1844
1827,1846,1835
1902,1845,1788
1822,1794,1758
1820,1836,1831
1808,1829,1840
1882,1847,1802
1917,1898,1933
1803,1875,1905
1893,1900,1910
1968,1872,1840
1797,1861,1808
1778,1892,1902
1754,1791,1761
1881,1818,1821
1911,1858,1825
1895,1819,1872
1859,1851,1827
1775,1789,1809
1793,1850,1839
1871,1965,1951
1881,1803,1827
1826,1770,1767
1859,1857,1839
1913,1831,1827
1855,1898,1902
1815,1803,1855
1859,1874,1840
1893,1940,1913
1971,1878,1830
1809,1815,1722
1799,1901,1822
1841,1845,1872
1910,1892,1835
1919,1824,1792
1833,1806,1813
1786,1901,1911
1796,1890,1902
1920,1873,1834
2030,1917,1772
1779,1860,1775
1689,1777,1795
1843,1833,1801
1858,1795,1824
1841,1899,1913
1902,1909,1885
1935,1856,1823
1933,1886,1831
1783,1843,1887
1748,1839,1883
1878,1840,1814
1983,1905,1803
1839,1890,1879
1795,1856,1874
1827,1830,1807
1941,1882,1878
1987,1919,1835
1846,1890,1808
1823,1900,1831
1760,1822,1854
1789,1829,1858
1903,1867,1815
2014,1909,1792
1948,1927,1920
1842,1903,1895
1824,1821,1744
1739,1849,1731
1856,1841,1858
1895,1915,1858
1831,1879,1839
1897,1838,1834
1969,1871,1811
1918,1983,1919
1810,1905,1866
1750,1843,1772
1920,1838,1872
1898,1937,1907
1904,1965,1876
1771,1793,1739
1740,1842,1789
1839,1866,1893
1962,1894,1835
1993,1834,1778
1856,1872,1830
1761,1902,1920
1750,1834,1894
1891,1841,1825
2071,1925,1874
1922,1891,1982
1733,1811,1798
1780,1801,1670
1891,1885,1761
1829,1910,1920
1856,1901,1945
1940,1829,1806
1927,1907,1874
1872,1885,1850
1840,1857,1838
1811,1859,1795
1792,1888,1906
1789,1862,1877
1873,1865,1829
1925,1831,1808
1935,1914,1887
1890,1874,1885
1822,1798,1885
1794,1921,1840
1890,1919,1800
1941,1875,1893
1909,1859,1883
1835,1763,1776
1970,1906,1840
1781,1935,1890
1811,1868,1914
1815,1827,1810
1787,1852,1807
1809,1837,1806
1904,1853,1813
1971,1897,1835
1872,1917,1938
1918,1909,1957
1866,1888,1871
1757,1751,1699
1763,1843,1729
1858,1815,1935
1943,1967,1982
1840,1858,1817
1868,1854,1770
1963,1901,1821
1851,1861,1851
1805,1841,1802
1833,1827,1872
1823,1903,1938
1897,1813,1823
1962,1837,1718
1968,1872,1863
1760,1873,1889
1755,1929,1856
1797,1811,1815
1902,1917,1877
1921,1968,1920
1920,1866,1814
1818,1840,1728
1856,1872,1831
1828,1923,1984
1830,1857,1872
1885,1809,1745
1951,1879,1829
1908,1898,1898
1783,1867,1862
1801,1872,1826
1828,1851,1828
1882,1885,1898
2032,1919,1852
1953,1847,1727
1791,1909,1872
1690,1856,1891
1801,1844,1840
1919,1892,1775
2034,1886,1834
1991,1862,1859
1836,1869,1903
1702,1799,1822
1719,1812,1815
1783,1840,1887
1921,1895,1888
1932,1837,1746
1862,1881,1776
1841,1893,1937
1973,1904,1891
1907,1872,1806
2018,1900,1870
1877,1823,1862
1823,1860,1886
1791,1807,1785
1795,1790,1835
1862,1904,1914
1907,1920,1921
1840,1817,1763
1855,1840,1793
1922,1826,1776
1905,1814,1745
1935,1835,1809
1893,1831,1850
1690,1849,1901
1761,1887,1879
1904,1840,1791
1870,1841,1837
1893,1871,1883
1920,1900,1872
1854,1845,1790
1801,1858,1851
1777,1856,1862
1904,1858,1787
2077,1923,1821
2043,1902,1850
1751,1818,1791
1664,1781,1819
1786,1825,1875
2026,1930,1967
1936,1838,1850
1767,1788,1712
1811,1830,1744
1968,1883,1792
1906,1863,1839
1802,1826,1829
1807,1820,1801
1803,1877,1891
1837,1908,1893
1930,1899,1872
1909,1834,1829
1841,1823,1808
1813,1857,1831
1811,1823,1857
1890,1854,1829
1861,1840,1786
1853,1834,1731
1793,1778,1744
1899,1856,1863
1893,1910,1969
1906,1966,2015
1869,1837,1803
1751,1798,1703
1898,1897,1872
1994,1870,1833
1903,1779,1672
1771,1790,1698
1869,1909,1982
1920,1882,1890
1875,1901,1871
1808,1788,1728
1789,1835,1837
1820,1904,1948
1813,1927,1917
1778,1813,1750
1833,1813,1841
1884,1855,1927
2012,1872,1822
1808,1786,1725
1782,1807,1726
1787,1890,1867
1745,1846,1847
1826,1835,1826
1943,1868,1896
1866,1894,1940
1867,1872,1869
1971,1805,1764
1833,1857,1875
1767,1918,1936
1856,1840,1761
1907,1872,1801
1927,1897,1931
1812,1854,1872
1749,1822,1777
1827,1793,1770
1834,1872,1878
1909,1936,1971
1845,1851,1793
1818,1790,1718
1906,1854,1839
1919,1873,1904
1742,1855,1923
1755,1836,1890
1992,1911,1873
1840,1876,1801
1717,1795,1717
1785,1817,1776
1954,1910,1934
1869,1889,1890
1763,1847,1858
1805,1849,1825
1856,1887,1873
1908,1871,1904
1861,1867,1869
1841,1814,1810
1849,1861,1851
1829,1883,1872
1836,1837,1865
1855,1843,1793
2064,1914,1875
1946,1877,1851
1678,1818,1776
1712,1826,1767
1894,1843,1817
1931,1840,1811
1801,1842,1918
1771,1851,1875
1915,1904,1842
1943,1910,1903
1904,1867,1883
1851,1844,1781
1825,1854,1857
1762,1840,1826
1725,1804,1791
1872,1827,1751
1872,1859,1840
1819,1876,1890
1755,1815,1822
1808,1853,1903
1915,1936,1920
1917,1842,1859
1837,1867,1789
1865,1897,1783
1927,1951,1902
1808,1868,1905
1763,1795,1829
1870,1854,1826
2205,1959,1884
1968,1852,1756
1578,1796,1818
1616,1791,1796
1921,1881,1845
2071,1882,1827
1824,1840,1811
1797,1839,1796
1765,1863,1831
1840,1853,1867
1835,1819,1869
1837,1842,1797
1843,1895,1849
1885,1855,1789
1887,1857,1833
1777,1829,1794
1787,1866,1888
1856,1904,1902
1859,1890,1858
1904,1873,1822
1925,1874,1863
1856,1858,1811
1902,1858,1784
2001,1874,1793
1929,1901,1913
1824,1867,1895
1728,1787,1728
1808,1813,1760
1943,1923,1847
1745,1879,1808
1856,1845,1792
2112,1847,1724
1868,1819,1746
1773,1900,1939
2062,1885,1862
1535,1782,1775
1458,1808,1826
1663,1907,1910
1837,1874,1845
1921,1847,1790
1911,1939,1947
1857,1907,1943
1756,1791,1787
1793,1777,1755
1879,1870,1811
1887,1916,1883
1821,1859,1891
1900,1851,1842
1874,1862,1791
1774,1873,1876
1793,1847,1863
1915,1852,1788
1910,1870,1827
1714,1832,1851
1738,1859,1855
1891,1847,1814
1943,1879,1859
1776,1844,1799
1743,1841,1785
1951,1904,1859
1911,1924,1925
1744,1874,1893
1728,1836,1808
1828,1809,1770
1837,1866,1810
1835,1921,1893
1854,1821,1792
1961,1829,1791
1965,1904,1905
1730,1873,1916
1695,1801,1779
1789,1804,1809
1843,1858,1872
1878,1887,1834
1901,1861,1783
1920,1861,1821
1772,1863,1893
1727,1873,1917
1810,1872,1814
1934,1856,1754
2076,1913,1904
1799,1872,1903
1775,1855,1826
1826,1827,1770
1872,1882,1881
1781,1884,1915
1776,1856,1827
1770,1799,1808
1819,1866,1850
1955,1917,1935
1920,1817,1721
1762,1773,1773
1782,1857,1888
1852,1897,1936
1808,1859,1872
1818,1845,1770
1889,1899,1874
1953,1910,1889
2047,1865,1775
1965,1867,1778
1716,1863,1849
1610,1843,1903
1763,1862,1929
1918,1847,1813
2023,1875,1731
1959,1904,1889
1789,1837,1918
1776,1831,1872
1840,1877,1923
1785,1859,1791
1867,1856,1775
1943,1829,1760
1845,1829,1883
1744,1829,1890
1849,1845,1831
1895,1823,1775
1855,1870,1791
1835,1873,1887
1828,1922,1963
1909,1886,1846
1797,1850,1716
1854,1903,1885
1865,1900,1891
1855,1845,1842
1861,1855,1777
1831,1856,1859
1840,1837,1791
1847,1869,1872
1914,1889,1921
1872,1883,1899
1926,1840,1855
1782,1807,1746
1770,1862,1821
1899,1907,1852
1840,1819,1799
1861,1843,1749
1882,1905,1799
1776,1847,1893
1844,1847,1840
1902,1840,1803
1793,1851,1918
1798,1890,1931
1882,1856,1792
1934,1872,1797
1858,1886,1947
1861,1889,1910
1918,1840,1792
1869,1829,1754
1783,1850,1795
1893,1870,1939
1971,1850,1809
1817,1818,1728
1750,1924,1955
1760,1871,1935
1835,1809,1807
1854,1819,1807
1855,1865,1873
1845,1865,1904
1953,1930,1888
1898,1856,1843
1889,1850,1776
1759,1805,1821
1771,1828,1819
1839,1858,1792
1916,1903,1909
1993,1861,1887
1942,1819,1776
1770,1818,1762
1701,1823,1838
1767,1857,1893
1872,1847,1834
2000,1918,1862
1876,1858,1835
1776,1872,1820
1781,1840,1783
1802,1822,1862
1986,1910,1936
1967,1910,1932
1883,1867,1826
1835,1840,1795
1771,1827,1762
1725,1861,1888
1771,1866,1940
1963,1907,1921
1989,1936,1899
1817,1840,1807
1884,1853,1837
1892,1818,1765
1882,1811,1810
1968,1893,1959
1927,1869,1876
1776,1855,1863
1866,1887,1862
1853,1904,1897
1754,1833,1803
1771,1813,1791
1878,1897,1856
2134,1906,1846
2063,1877,1877
1875,1845,1879
1680,1853,1840
1619,1843,1873
1727,1822,1855
1842,1825,1801
1963,1905,1889
1990,1921,1904
1814,1853,1849
1763,1826,1774
1826,1872,1853
1855,1903,1936
1998,1917,1936
2129,1886,1833
1936,1841,1806
1723,1860,1949
1803,1857,1910
1889,1871,1782
1958,1869,1764
1910,1872,1887
1840,1840,1786
1696,1787,1781
1790,1854,1847
1943,1911,1921
1959,1868,1773
1859,1842,1793
1763,1824,1904
2002,1883,1940
1840,1841,1874
1721,1840,1853
1712,1856,1877
1839,1883,1871
1979,1845,1814
2027,1806,1737
1878,1877,1861
1711,1872,1883
1806,1867,1886
1904,1883,1829
1871,1825,1814
1801,1835,1892
1942,1888,1911
2019,1869,1808
1946,1847,1792
1709,1811,1877
1728,1845,1874
1835,1846,1810
1901,1845,1859
1982,1904,1937
2045,1873,1858
1815,1781,1680
1701,1851,1831
1762,1897,1983
1929,1878,1885
2146,1869,1773
1807,1802,1744
1616,1817,1883
1849,1808,1795
2020,1873,1882
1979,1909,1909
1673,1850,1897
1775,1842,1904
1925,1804,1789
1974,1843,1813
1862,1878,1840
1856,1855,1792
1856,1846,1761
1856,1854,1857
1881,1841,1894
1819,1777,1782
1845,1854,1867
1910,1971,1993
1954,1937,1917
1739,1804,1744
1846,1804,1861
1829,1851,1845
1679,1835,1774
1799,1874,1817
2016,1855,1716
2017,1919,1919
1835,1877,2023
1776,1831,1910
1926,1836,1787
1857,1861,1758
1719,1813,1810
1815,1823,1840
2027,1878,1891
1938,1875,1870
1826,1840,1883
1733,1830,1808
1856,1809,1728
2023,1872,1714
1918,1907,1904
1732,1882,1948
1857,1867,1872
1852,1860,1820
1840,1865,1874
1907,1839,1875
1863,1863,1854
1865,1909,1922
1952,1919,1904
1883,1822,1801
1794,1731,1771
1712,1843,1875
1810,1911,1914
1947,1843,1810
1953,1808,1731
1961,1875,1854
2110,1906,1907
1962,1863,1903
1694,1806,1802
1664,1839,1877
1805,1887,1904
2166,1917,1861
2014,1851,1778
1745,1844,1829
1616,1803,1851
1700,1833,1862
1870,1871,1825
1983,1935,1919
2065,1955,1920
1758,1786,1791
1830,1817,1819
2058,1866,1826
1889,1837,1872
1712,1859,1834
1821,1872,1808
1948,1901,1878
2065,1904,1968
1930,1821,1726
1731,1811,1779
1711,1883,1901
1934,1889,1895
1818,1829,1818
1820,1847,1818
1931,1874,1863
1975,1898,1909
1917,1902,1872
2062,1909,1863
1910,1840,1776
1685,1840,1842
1767,1835,1840
1918,1814,1747
2064,1908,1860
1870,1936,1954
1986,1840,1853
1901,1781,1712
1807,1834,1799
1936,1841,1730
1691,1842,1841
1711,1840,1870
1741,1872,1953
1937,1885,1925
1980,1886,1804
1907,1879,1745
1931,1918,1904
1971,1885,1920
1803,1811,1840
1790,1773,1730
1939,1833,1798
1939,1915,1936
1877,1903,1911
1772,1799,1730
1794,1827,1770
1939,1883,1849
1890,1845,1840
1894,1873,1862
1904,1886,1871
1914,1856,1872
1925,1858,1835
1707,1845,1807
1773,1872,1888
1823,1887,1921
1919,1861,1863
1979,1905,1872
1969,1901,1894
1886,1849,1899
1761,1779,1807
1853,1787,1764
1871,1872,1846
1879,1887,1941
1875,1856,1909
1958,1844,1827
2063,1886,1811
1909,1886,1863
1849,1872,1872
1845,1837,1831
1981,1892,1891
2054,1873,1840
1787,1802,1739
1766,1811,1782
1920,1935,1938
2027,1936,1872
1830,1850,1797
1634,1758,1732
1741,1853,1899
1883,1885,1938
1835,1859,1874
1807,1835,1758
1889,1888,1866
1940,1904,1904
1916,1819,1794
1869,1852,1859
1922,1907,1903
1936,1919,1923
1889,1900,1834
1853,1834,1759
1868,1850,1874
1903,1920,1967
1865,1815,1776
1856,1796,1681
1974,1929,1849
1893,1918,1922
1919,1773,1808
1713,1731,1750
1647,1833,1844
1814,1909,1910
2029,1930,1904
2015,1845,1794
1818,1850,1799
1683,1818,1845
1703,1814,1854
1872,1831,1822
1953,1899,1868
1866,1943,1941
1840,1872,1860
1858,1809,1802
1986,1872,1861
2002,1881,1858
1936,1927,1881
1783,1840,1856
1744,1830,1835
1860,1839,1850
1904,1824,1791
2002,1813,1760
1927,1897,1823
1807,1882,1892
1808,1814,1852
1931,1856,1826
1865,1825,1835
1727,1868,1904
1777,1859,1863
1877,1837,1843
1862,1877,1872
1873,1935,1935
1991,1866,1855
1854,1840,1824
1783,1821,1836
1807,1855,1882
2119,1910,1889
2174,1892,1776
1771,1851,1827
1655,1845,1851
1936,1931,1899
1929,1840,1727
1742,1839,1790
1717,1876,1945
1901,1843,1915
1969,1872,1840
1942,1921,1857
1956,1914,1910
1904,1795,1818
1795,1781,1713
1810,1811,1744
1817,1878,1920
1791,1879,1941
1867,1872,1831
1858,1842,1787
1834,1903,1908
1830,1877,1871
1951,1840,1808
1865,1846,1824
1811,1891,1891
1919,1871,1899
2031,1839,1823
1934,1897,1871
1845,1902,1918
1844,1859,1789
1808,1837,1794
1825,1865,1876
1815,1854,1872
1898,1868,1843
1854,1840,1801
1823,1910,1918
1905,1925,1919
2018,1901,1898
2023,1840,1796
1865,1834,1794
1673,1838,1866
1732,1813,1850
2087,1871,1747
1900,1815,1686
1699,1862,1947
1690,1851,1907
1851,1872,1810
1913,1887,1813
1926,1906,1871
2021,1895,1909
1971,1877,1856
1905,1872,1826
1856,1850,1854
1795,1808,1754
1760,1861,1797
1794,1874,1906
1851,1843,1868
1922,1898,1905
2163,2033,1943
2014,1911,1840
1840,1782,1746
1722,1776,1743
1770,1838,1805
1802,1835,1808
1847,1866,1911
1878,1864,1870
1852,1872,1833
1879,1888,1852
1873,1881,1893
1888,1868,1872
1956,1861,1825
1883,1915,1904
1847,1917,1936
1852,1869,1857
1969,1855,1826
1949,1882,1853
1950,1886,1854
2047,1923,1805
1830,1865,1747
1712,1776,1757
1751,1812,1856
1757,1825,1840
1870,1841,1792
1885,1907,1875
1988,1970,1936
1990,1867,1826
1858,1808,1730
1782,1887,1904
1898,1881,1865
1926,1856,1823
1774,1799,1822
1712,1822,1887
1808,1866,1863
1901,1859,1836
1877,1828,1770
1872,1839,1821
1961,1819,1840
2087,1899,1797
1922,1920,1878
1767,1859,1856
1795,1877,1904
1798,1866,1834
1874,1801,1825
2062,1862,1841
1936,1939,1911
1825,1901,1888
1863,1794,1767
1872,1825,1735
1899,1928,1916
1775,1779,1849
1728,1840,1791
1983,1939,1992
1828,1840,1905
1744,1822,1791
1911,1845,1825
1847,1902,1777
1808,1870,1846
1911,1846,1824
1915,1799,1827
1776,1859,1902
1809,1950,1978
1979,1932,1889
1989,1822,1753
1872,1854,1792
1840,1909,1939
1887,1890,1917
1852,1843,1748
1797,1840,1827
1778,1872,1937
1854,1837,1890
1900,1816,1776
2034,1951,1861
2083,1920,1900
1815,1885,1853
1811,1855,1835
1915,1904,1852
1825,1872,1857
1909,1831,1811
1823,1799,1712
1796,1904,1872
1851,1870,1962
1841,1872,1860
1936,1821,1757
2011,1907,1859
1840,1878,1966
1741,1876,1883
1795,1815,1756
1840,1839,1842
1968,1939,1906
1938,1858,1861
1936,1917,1825
1861,1834,1841
1793,1808,1919
1839,1869,1878
1915,1902,1891
1883,1872,1859
1921,1853,1824
1857,1861,1877
1859,1834,1791
1872,1806,1849
2083,1968,1903
1925,1883,1863
1726,1801,1795
1709,1834,1837
1809,1904,1914
2010,1891,1893
2032,1840,1767
1800,1843,1809
1706,1858,1920
1806,1872,1902
1919,1856,1887
1896,1840,1829
1870,1904,1908
1904,1900,1865
1927,1850,1747
1868,1853,1823
1791,1899,1899
1782,1867,1897
1962,1911,1871
2086,2055,1921
1889,1858,1847
1718,1799,1744
1730,1836,1783
1858,1932,1958
1965,1920,1940
2060,1909,1861
1917,1877,1715
1861,1814,1773
1759,1814,1831
1727,1807,1854
1917,1856,1856
1968,1877,1868
1904,1904,1910
1857,1855,1857
1761,1786,1725
1840,1869,1838
1863,1882,1945
1904,1865,1900
1904,1809,1803
2005,1952,1831
1887,1903,1878
1712,1804,1825
1746,1730,1791
1809,1807,1843
1871,1823,1904
1903,1840,1850
2053,1865,1835
1994,1925,1860
1791,1807,1808
1687,1806,1808
1757,1862,1844
1875,1954,1904
1964,1926,1905
2155,1904,1903
1890,1805,1777
1712,1854,1829
1728,1856,1891
1831,1855,1887
1834,1789,1797
2078,1853,1856
2130,1886,1830
1730,1818,1815
1725,1866,1821
1795,1841,1872
1840,1856,1888
1835,1872,1936
1831,1826,1809
1870,1879,1827
1902,1891,1810
1863,1827,1797
1861,1865,1861
1825,1846,1847
1862,1862,1847
1918,1854,1843
1835,1818,1771
1833,1885,1907
1895,1915,2002
1857,1853,1940
1811,1839,1837
1864,1870,1826
1924,1898,1877
1874,1840,1831
1889,1819,1776
1887,1856,1818
1838,1910,1891
1839,1798,1840
1818,1827,1763
2021,1925,1877
1822,1819,1808
1625,1794,1853
1710,1842,1842
1872,1874,1851
1922,1922,1903
1924,1884,1905
1916,1838,1792
1769,1850,1818
1776,1903,1937
1795,1851,1818
1882,1841,1796
1963,1906,1941
1933,1936,1932
1906,1904,1879
1934,1849,1803
1922,1873,1856
1929,1895,1879
1859,1859,1778
1814,1832,1797
1838,1803,1790
1869,1858,1897
1750,1821,1836
1777,1815,1761
1834,1859,1854
1872,1903,1943
1946,1883,1856
1955,1849,1782
1792,1842,1804
1890,1911,1957
2043,1839,1757
1824,1837,1771
1683,1886,1894
1813,1914,2006
1897,1868,1871
1931,1883,1797
1941,1920,1854
1937,1874,1877
1776,1839,1817
1714,1823,1776
1821,1871,1856
1927,1871,1818
1936,1850,1723
1883,1909,1902
1885,1947,1983
1820,1905,1917
1753,1802,1814
1786,1750,1719
1997,1862,1841
2017,1899,1901
1742,1813,1749
1776,1824,1758
1818,1847,1842
1881,1878,1863
1910,1846,1795
1903,1881,1877
1906,1935,1910
1879,1899,1875
1874,1837,1815
1808,1852,1826
1850,1887,1925
1883,1886,1895
1891,1841,1749
1872,1797,1746
1776,1809,1772
1753,1857,1861
1936,1897,1903
1929,1845,1779
1840,1796,1765
1826,1892,1915
1775,1857,1893
1877,1850,1841
1922,1865,1776
1850,1855,1817
1822,1849,1859
1910,1869,1840
1856,1886,1856
1840,1875,1840
1905,1870,1815
1889,1864,1827
1862,1857,1878
1920,1842,1899
1803,1836,1795
1771,1811,1753
1821,1887,1847
1861,1904,1948
1909,1913,1952
1939,1874,1841
1895,1804,1725
1678,1786,1783
1722,1819,1843
1838,1845,1806
1968,1878,1845
2025,1903,1903
1933,1872,1901
1782,1854,1840
1760,1889,1861
1842,1913,1918
1954,1851,1814
1874,1809,1773
1853,1909,1894
1789,1901,1933
1798,1847,1803
1811,1795,1708
1819,1810,1783
2032,1920,1931
2192,1951,1938
1718,1807,1758
1558,1799,1830
1706,1876,1937
1903,1892,1893
1934,1841,1796
1984,1877,1793
1943,1918,1941
1749,1813,1776
1831,1870,1839
1810,1867,1878
1840,1871,1920
1898,1866,1839
1971,1847,1777
1938,1937,1910
1808,1919,1927
1818,1861,1844
1873,1787,1752
1867,1870,1847
1827,1904,1892
1841,1861,1797
2019,1882,1783
2012,1922,1897
1840,1899,1942
1795,1829,1814
1777,1808,1722
1799,1857,1827
1898,1906,1926
1933,1909,1950
1879,1833,1799
1782,1877,1831
1786,1889,1899
1775,1805,1718
1856,1808,1725
1908,1865,1870
1869,1904,1966
1969,1935,1950
2000,1898,1808
1822,1870,1827
1803,1887,1909
1808,1811,1796
1835,1825,1824
1931,1870,1847
1879,1902,1876
1845,1905,1877
1949,1885,1841
1856,1831,1788
1770,1865,1863
1844,1855,1850
1882,1840,1827
1887,1881,1829
1887,1910,1893
1941,1887,1767
1882,1811,1705
1847,1870,1825
1901,1919,1968
1812,1840,1877
1834,1841,1899
1887,1901,1853
1823,1939,1839
1789,1879,1799
1883,1833,1876
1901,1840,1825
1963,1891,1909
1968,1875,1824
1853,1871,1824
1691,1825,1798
1818,1863,1894
1854,1818,1856
1856,1833,1843
1911,1873,1866
1968,1931,1978
1910,1861,1822
1865,1771,1648
1726,1826,1765
1777,1907,1946
1888,1883,1925
1945,1871,1840
1919,1904,1820
1893,1933,1917
1803,1877,1926
1845,1826,1757
1760,1819,1822
1729,1826,1821
1802,1827,1831
1907,1856,1829
2083,1936,1887
1895,1883,1885
1808,1817,1801
1682,1798,1770
1812,1889,1894
1888,1888,1964
1853,1842,1855
1904,1840,1770
1902,1881,1855
1914,1881,1924
1900,1872,1848
1982,1899,1751
1959,1866,1741
1702,1835,1830
1695,1825,1865
1925,1875,1796
2114,1939,1893
1839,1853,1905
1751,1808,1847
1862,1882,1872
1883,1884,1916
1899,1877,1893
1837,1821,1781
1845,1834,1787
1933,1874,1830
1843,1859,1773
1783,1861,1866
1783,1817,1810
1899,1873,1857
2000,1918,1891
1990,1887,1857
1813,1819,1796
1777,1869,1872
1901,1889,1953
1991,1856,1838
1863,1841,1808
1861,1882,1853
1872,1870,1840
2012,1844,1699
1777,1808,1718
1663,1804,1894
1759,1849,1904
1855,1861,1887
1872,1808,1783
2017,1861,1805
2097,1923,1867
1949,1915,1920
1802,1778,1704
1637,1776,1835
1684,1850,1888
1909,1873,1861
1949,1834,1772
1907,1872,1771
1797,1872,1897
1765,1801,1801
1888,1830,1749
1957,1859,1811
1865,1869,1809
1866,1872,1912
1819,1838,1856
1818,1856,1841
1882,1878,1863
1933,1847,1813
1921,1830,1791
1897,1890,1983
1831,1917,1965
1803,1855,1853
1857,1838,1779
1834,1853,1819
1855,1869,1882
2035,1878,1872
1926,1819,1785
1739,1787,1734
1735,1881,1904
1892,1899,1925
1882,1823,1770
1869,1853,1813
2034,1916,1885
1872,1820,1803
1719,1776,1705
1703,1853,1833
1898,1922,1961
1998,1919,1927
1944,1834,1792
1759,1824,1801
1727,1857,1872
1809,1871,1861
1915,1872,1902
2021,1934,1852
1950,1840,1771
1815,1818,1820
1867,1851,1733
1789,1840,1857
1793,1873,1997
1840,1862,1904
1949,1856,1795
1958,1856,1801
1862,1895,1892
1856,1870,1885
1776,1818,1828
1840,1840,1891
1887,1877,1903
2064,1903,1806
1999,1840,1719
1725,1840,1808
1737,1870,1853
1851,1861,1889
1900,1847,1828
1744,1810,1786
1835,1861,1812
2009,1887,1845
1879,1853,1872
1794,1818,1797
1805,1871,1884
1893,1884,1875
2032,1867,1773
1918,1886,1808
1775,1829,1813
1746,1783,1743
1807,1824,1755
1830,1850,1836
1872,1893,1954
1894,1862,1840
1919,1861,1735
1851,1854,1835
1951,1959,1995
1821,1855,1891
1730,1779,1774
1852,1843,1817
2071,1971,1990
1885,1847,1873
1744,1758,1631
1765,1806,1767
1823,1856,1862
1790,1870,1856
1861,1872,1879
1920,1881,1892
1861,1891,1854
1867,1888,1856
2000,1870,1792
2066,1938,1923
1917,1941,1958
1789,1887,1881
1837,1828,1776
1933,1866,1804
1821,1815,1718
1653,1776,1712
1712,1829,1835
1856,1892,1875
1979,1937,1959
1847,1835,1841
1779,1823,1802
1837,1899,1873
1965,1930,1918
1931,1867,1872
1766,1792,1781
1854,1883,1840
1903,1936,1920
2019,1943,1976
1952,1905,1881
1783,1882,1807
1697,1818,1790
1719,1761,1728
1891,1850,1842
1977,1891,1920
1952,1903,1891
1824,1855,1791
1863,1923,1874
2066,1968,1941
1867,1825,1789
1795,1729,1637
1711,1799,1851
1845,1891,1927
1998,1929,1895
1869,1883,1822
1872,1852,1793
1847,1878,1850
1827,1862,1850
1986,1850,1827
1761,1867,1842
1646,1842,1872
1767,1865,1891
1872,1839,1842
1935,1872,1776
1929,1869,1811
1785,1900,1875
1951,1939,1936
1824,1810,1809
1799,1802,1771
1853,1871,1856
1894,1872,1925
1899,1856,1841
1831,1855,1819
1793,1879,1863
1834,1877,1843
1877,1840,1837
1856,1861,1830
1835,1871,1882
1843,1853,1862
1867,1796,1745
1846,1840,1789
1888,1904,1875
1835,1894,1872
1905,1909,1852
1981,1984,1964
1955,1905,1935
1840,1833,1803
1857,1830,1824
1763,1840,1840
1685,1857,1856
1861,1865,1803
1984,1803,1663
1780,1863,1874
1797,1929,1970
1950,1904,1840
2113,1926,1895
1965,1875,1949
1639,1840,1887
1705,1834,1738
1927,1831,1745
1851,1872,1866
1756,1913,1936
1770,1920,1952
1890,1909,1840
2037,1979,1863
1903,1915,1936
1776,1807,1836
2082,1840,1750
2096,1959,1879
1762,1865,1891
1503,1722,1719
1727,1808,1765
2001,1921,1934
2032,1904,1814
1810,1846,1776
1648,1861,1890
1757,1841,1818
2073,1922,1906
2011,1916,1893
1757,1839,1826
1776,1894,1914
1801,1901,1947
1851,1873,1863
1863,1845,1767
2085,1904,1792
1969,1889,1830
1651,1795,1799
1791,1817,1774
1974,1855,1856
1936,1915,1948
1968,1937,1939
1872,1863,1871
1691,1838,1826
1742,1871,1872
1898,1846,1825
2017,1801,1803
1816,1872,1857
1631,1905,1883
1805,1859,1838
1981,1856,1810
1995,1918,1891
1842,1927,1963
1841,1871,1847
1886,1808,1772
1984,1857,1841
1808,1933,1957
1765,1935,1978
1938,1891,1867
1926,1867,1905
1829,1887,1935
1702,1834,1846
1966,1859,1783
1936,1892,1861
1823,1894,1920
1777,1833,1840
1765,1812,1760
1739,1871,1815
1847,1885,1870
1963,1889,1878
2144,1902,1840
1930,1845,1825
1648,1847,1931
1719,1884,1937
1886,1863,1842
2087,1909,1825
2006,1904,1910
1677,1812,1827
1741,1835,1799
1824,1909,1899
1743,1872,1866
1787,1809,1775
1846,1819,1774
1999,1911,1920
1983,1910,1935
1759,1854,1858
1791,1841,1833
1905,1890,1904
2101,1921,1927
1935,1862,1823
1709,1823,1838
1717,1861,1821
1786,1877,1843
1833,1873,1885
1919,1879,1869
2038,1898,1847
1862,1840,1821
1751,1838,1817
1863,1817,1775
1958,1837,1815
1830,1859,1905
1776,1935,1973
1991,1943,1956
1977,1866,1826
1775,1840,1826
1749,1850,1878
1902,1830,1802
1877,1873,1796
1881,1894,1873
1739,1858,1856
1762,1810,1815
1809,1850,1860
2000,1906,1930
1986,1853,1821
1854,1837,1791
1766,1872,1841
1727,1877,1887
1791,1862,1883
1894,1889,1871
2159,1963,1971
2093,1913,1953
1761,1808,1735
1693,1786,1689
1814,1874,1851
1879,1954,2006
1912,1911,1949
1900,1794,1737
1819,1811,1792
1777,1891,1971
1872,1920,1905
1872,1808,1757
1825,1818,1790
1893,1857,1883
1915,1872,1904
1883,1856,1865
1870,1856,1789
2154,1965,1920
1840,1799,1716
1607,1774,1793
1673,1843,1905
1820,1894,1934
1906,1890,1870
1936,1891,1866
2118,1893,1906
1949,1826,1842
1716,1840,1862
1729,1825,1796
1819,1856,1839
1892,1911,1931
2080,1962,1936
2115,1861,1779
1761,1778,1750
1775,1856,1840
1825,1790,1781
1776,1783,1783
1731,1835,1835
1872,1883,1887
1992,1901,1942
1858,1855,1843
1940,1872,1841
1990,1868,1867
1923,1825,1791
1854,1825,1735
1671,1872,1863
1695,1891,1924
1821,1859,1887
1938,1851,1840
1967,1927,1868
1984,1981,1963
1869,1813,1794
1758,1777,1765
1932,1840,1853
1951,1861,1840
1862,1809,1771
1878,1834,1756
1815,1871,1881
1809,1898,1950
1921,1872,1883
1850,1813,1779
1755,1830,1805
