1840,1887,1866
1821,1890,1883
1824,1872,1838
1792,1813,1760
1819,1862,1835
1790,1856,1855
1799,1840,1808
1831,1855,1804
1842,1891,1860
1814,1893,1882
1820,1870,1825
1829,1861,1793
1834,1891,1851
1821,1903,1887
1844,1890,1858
1811,1841,1766
1822,1879,1835
1815,1887,1868
1813,1862,1821
1825,1872,1807
1825,1890,1856
1806,1894,1869
1823,1876,1819
1803,1840,1776
1810,1874,1846
1801,1885,1872
1823,1871,1827
1833,1870,1808
1841,1917,1879
1791,1890,1873
1792,1856,1819
1825,1875,1808
1839,1904,1872
1808,1900,1891
1798,1867,1824
1827,1872,1808
1853,1917,1883
1841,1934,1911
1799,1870,1808
1811,1866,1782
1835,1921,1867
1838,1922,1899
1841,1885,1831
1831,1859,1782
1820,1888,1834
1783,1887,1857
1808,1869,1817
1847,1884,1808
1858,1934,1873
1794,1878,1856
1797,1855,1815
1829,1869,1803
1841,1915,1859
1856,1945,1904
1813,1887,1820
1837,1886,1805
1840,1913,1861
1819,1915,1878
1790,1853,1797
1827,1834,1793
1840,1936,1861
1775,1913,1852
1779,1893,1799
1837,1863,1809
1856,1936,1883
1869,1938,1915
1822,1922,1823
1826,1898,1791
1825,1918,1852
1815,1918,1884
1830,1842,1824
1839,1925,1803
1860,1921,1887
1845,1907,1909
1797,1813,1808
1802,1843,1775
1828,1921,1859
1834,1903,1903
1840,1851,1846
1853,1874,1810
1835,1906,1863
1814,1901,1904
1825,1879,1842
1853,1897,1826
1838,1933,1871
1804,1906,1877
1814,1878,1827
1863,1903,1835
1840,1904,1863
1776,1878,1850
1774,1854,1796
1841,1871,1809
1859,1892,1902
1805,1872,1883
1787,1890,1806
1812,1871,1790
1826,1877,1854
1818,1874,1885
1832,1872,1839
1843,1874,1810
1833,1926,1866
1815,1902,1894
1808,1874,1831
1831,1827,1806
1841,1903,1875
1827,1911,1904
1803,1858,1819
1832,1872,1809
1851,1923,1885
1792,1898,1862
1785,1859,1794
1803,1856,1776
1825,1929,1859
1808,1872,1884
1821,1907,1840
1820,1840,1783
1829,1930,1855
1803,1913,1882
1809,1822,1840
1840,1829,1815
1863,1895,1890
1791,1862,1865
1778,1823,1804
1809,1860,1791
1823,1891,1852
1824,1923,1897
1827,1899,1840
1829,1840,1792
1833,1855,1858
1825,1933,1886
1839,1869,1835
1821,1876,1788
1819,1874,1854
1806,1872,1878
1818,1872,1837
1868,1873,1830
1873,1930,1891
1797,1872,1859
1791,1843,1810
1797,1819,1784
1827,1866,1862
1809,1885,1887
1840,1900,1861
1831,1842,1804
1814,1843,1845
1818,1866,1887
1827,1846,1843
1843,1870,1824
1840,1782,1875
1849,1895,1908
1840,1867,1843
1840,1858,1808
1841,1872,1868
1845,1947,1908
1837,1866,1840
1837,1867,1807
1826,1888,1856
1807,1877,1874
1813,1852,1823
1838,1860,1797
1840,1876,1869
1811,1868,1872
1826,1854,1826
1851,1859,1815
1843,1874,1860
1839,1897,1899
1855,1877,1855
1842,1842,1810
1839,1833,1857
1842,1917,1902
1843,1840,1843
1842,1823,1807
1856,1887,1872
1862,1936,1917
1845,1913,1845
1839,1824,1809
1867,1887,1885
1856,1915,1903
1856,1936,1849
1808,1776,1776
1808,1802,1829
1822,1857,1874
1821,1810,1830
1842,1845,1811
1857,1885,1875
1852,1887,1905
1873,1907,1867
1843,1839,1790
1822,1851,1836
1835,1879,1889
1840,1825,1840
1850,1843,1807
1869,1883,1872
1860,1891,1906
1845,1825,1831
1869,1834,1810
1880,1850,1875
1834,1882,1872
1843,1840,1818
1857,1819,1793
1860,1869,1861
1839,1869,1874
1826,1779,1795
1847,1824,1786
1872,1869,1867
1903,1901,1936
1883,1872,1862
1841,1837,1791
1807,1830,1808
1804,1795,1856
1838,1862,1821
1861,1856,1813
1862,1850,1873
1854,1835,1895
1851,1836,1840
1863,1838,1803
1851,1861,1856
1840,1820,1889
1853,1777,1839
1875,1854,1820
1875,1893,1873
1841,1881,1888
1826,1839,1824
1835,1827,1792
1872,1893,1874
1897,1934,1930
1831,1842,1819
1801,1807,1756
1832,1857,1838
1845,1889,1899
1854,1863,1847
1857,1862,1808
1857,1891,1865
1841,1886,1888
1831,1842,1822
1856,1853,1811
1874,1905,1879
1856,1900,1895
1826,1831,1809
1823,1823,1780
1839,1877,1856
1849,1897,1899
1861,1870,1840
1872,1877,1822
1856,1895,1875
1829,1888,1874
1840,1868,1827
1879,1870,1815
1872,1899,1874
1808,1855,1843
1839,1858,1823
1843,1844,1791
1825,1846,1825
1825,1877,1874
1869,1887,1861
1881,1878,1842
1834,1858,1840
1820,1863,1867
1827,1837,1817
1854,1851,1806
1873,1897,1875
1853,1887,1899
1859,1853,1833
1856,1841,1805
1860,1889,1867
1857,1903,1902
1877,1887,1856
1888,1879,1828
1839,1862,1846
1814,1863,1859
1840,1857,1824
1915,1920,1854
1857,1878,1848
1806,1850,1840
1814,1818,1783
1857,1843,1792
1872,1904,1872
1856,1890,1894
1853,1847,1831
1865,1847,1793
1877,1890,1871
1871,1888,1890
1870,1860,1834
1872,1849,1807
1872,1885,1872
1854,1886,1893
1872,1871,1835
1920,1905,1855
1914,1921,1902
1805,1844,1835
1803,1804,1761
1873,1859,1789
1878,1893,1854
1821,1859,1856
1819,1826,1781
1869,1856,1808
1873,1879,1863
1853,1879,1872
1858,1854,1822
1873,1859,1808
1902,1918,1887
1869,1889,1889
1842,1840,1808
1865,1839,1795
1857,1863,1842
1841,1867,1872
1845,1846,1827
1858,1851,1807
1890,1898,1885
1878,1910,1909
1863,1871,1829
1867,1845,1792
1855,1872,1851
1841,1872,1879
1856,1856,1837
1876,1855,1812
1884,1898,1878
1870,1902,1903
1877,1871,1840
1870,1841,1799
1877,1886,1875
1849,1873,1883
1869,1866,1841
1902,1893,1841
1872,1877,1858
1808,1840,1845
1833,1827,1813
1895,1877,1837
1904,1923,1902
1824,1858,1846
1808,1821,1787
1856,1831,1797
1869,1874,1868
1857,1890,1898
1863,1872,1849
1872,1862,1811
1879,1898,1871
1861,1908,1891
1843,1857,1823
1872,1842,1803
1875,1874,1865
1874,1909,1904
1868,1859,1833
1850,1825,1779
1858,1869,1854
1884,1905,1917
1861,1850,1825
1866,1834,1783
1890,1894,1861
1841,1879,1882
1813,1826,1798
1847,1840,1792
1885,1895,1870
1869,1890,1890
1866,1856,1825
1875,1856,1808
1887,1901,1871
1873,1904,1887
1868,1879,1825
1872,1840,1791
1874,1876,1858
1862,1897,1894
1870,1871,1839
1898,1889,1840
1852,1872,1853
1817,1843,1851
1825,1826,1798
1872,1847,1798
1883,1882,1871
1873,1888,1902
1872,1869,1842
1875,1862,1812
1871,1873,1847
1862,1882,1877
1859,1843,1849
1873,1850,1819
1875,1866,1865
1869,1883,1931
1902,1885,1856
1897,1867,1810
1859,1857,1854
1857,1861,1915
1849,1837,1785
1882,1842,1799
1898,1895,1872
1872,1888,1888
1866,1853,1813
1901,1867,1801
1861,1850,1797
1837,1851,1870
1835,1827,1837
1872,1849,1795
1879,1872,1825
1828,1839,1826
1838,1828,1799
1871,1845,1809
1874,1873,1847
1858,1886,1895
1870,1858,1843
1883,1845,1813
1878,1877,1870
1869,1887,1904
1873,1858,1846
1867,1836,1778
1870,1867,1858
1860,1888,1915
1872,1862,1827
1867,1829,1776
1856,1841,1850
1842,1856,1909
1887,1872,1852
1890,1856,1839
1853,1854,1842
1840,1853,1887
1861,1833,1823
1895,1845,1812
1923,1914,1905
1890,1905,1903
1833,1825,1803
1852,1807,1775
1881,1861,1869
1885,1885,1917
1878,1856,1839
1891,1865,1821
1872,1881,1856
1859,1871,1841
1877,1855,1839
1871,1826,1808
1854,1855,1851
1862,1885,1869
1859,1849,1856
1856,1833,1797
1891,1898,1878
1894,1929,1956
1813,1799,1791
1839,1794,1781
1874,1858,1859
1877,1879,1863
1865,1850,1825
1879,1847,1791
1893,1887,1878
1870,1882,1861
1856,1840,1808
1881,1840,1808
1881,1872,1869
1887,1913,1886
1919,1907,1860
1831,1799,1767
1813,1834,1794
1831,1846,1829
1867,1843,1799
1894,1860,1808
1859,1863,1839
1859,1872,1863
1886,1872,1834
1867,1841,1773
1856,1849,1819
1858,1855,1872
1867,1838,1818
1893,1861,1789
1883,1873,1863
1863,1871,1896
1903,1893,1802
1901,1864,1811
1840,1835,1812
1839,1846,1822
1874,1843,1929
1915,1869,1786
1872,1871,1852
1798,1827,1835
1826,1818,1776
1893,1852,1837
1915,1891,1897
1847,1847,1756
1846,1809,1807
1873,1834,1798
1887,1874,1862
1877,1888,1900
1867,1841,1827
1884,1837,1795
1875,1872,1856
1870,1886,1898
1881,1873,1838
1904,1885,1840
1904,1908,1898
1808,1830,1840
1839,1829,1782
1863,1826,1802
1861,1850,1825
1849,1867,1853
1876,1872,1878
1883,1851,1819
1870,1872,1897
1867,1895,1870
1869,1858,1845
1879,1853,1807
1867,1860,1847
1850,1871,1859
1864,1856,1830
1879,1870,1882
1894,1898,1863
1855,1879,1882
1859,1852,1834
1887,1863,1817
1888,1893,1875
1877,1904,1904
1862,1838,1776
1867,1835,1841
1903,1905,1841
1859,1877,1862
1831,1805,1767
1870,1827,1776
1883,1875,1856
1875,1885,1905
1857,1827,1821
1840,1795,1770
1846,1842,1837
1869,1873,1898
1872,1845,1824
1872,1823,1802
1872,1863,1856
1876,1891,1885
1882,1868,1853
1871,1846,1808
1845,1854,1819
1850,1872,1886
1871,1862,1793
1881,1847,1773
1872,1863,1840
1853,1866,1923
1862,1856,1826
1872,1856,1810
1869,1874,1931
1878,1891,1911
1881,1869,1840
1872,1833,1799
1874,1862,1830
1868,1879,1904
1868,1856,1831
1859,1842,1795
1838,1847,1883
1847,1865,1867
1868,1859,1835
1894,1870,1827
1887,1894,1879
1855,1872,1879
1843,1828,1807
1879,1842,1799
1877,1883,1863
1847,1877,1882
1841,1839,1808
1872,1843,1795
1895,1903,1871
1872,1902,1882
1870,1872,1837
1879,1857,1808
1871,1873,1853
1872,1909,1891
1878,1885,1840
1871,1853,1809
1855,1866,1840
1846,1882,1866
1861,1872,1819
1846,1808,1759
1847,1839,1821
1853,1872,1859
1892,1868,1839
1905,1851,1794
1850,1872,1861
1852,1901,1906
1895,1879,1851
1978,1889,1840
1968,1927,1893
1966,1881,1857
1917,1867,1797
1904,1873,1840
1856,1870,1819
1972,1930,1891
1942,1865,1823
1891,1811,1744
1917,1830,1741
1771,1840,1789
1745,1842,1799
1808,1875,1834
1843,1935,1923
1806,1984,1898
1891,1977,1829
1983,1935,1826
1917,1984,1863
2031,2032,2000
1975,1991,1805
1818,1941,1727
1766,1935,1838
1875,1997,1939
1800,1921,1847
1872,1905,1745
1940,1917,1785
1780,1920,1854
1797,1923,1826
1872,1933,1808
1949,1987,1871
1930,1981,1877
1873,1901,1765
1778,1866,1808
1808,1917,1872
1738,1918,1899
1813,1940,1819
1923,1923,1759
2169,2032,1974
1889,1951,1872
1663,1856,1762
1968,1904,1757
1895,1942,1889
1658,1863,1828
1718,1840,1682
1782,1950,1875
1906,1968,1850
2026,1979,1909
1997,1878,1819
1719,1817,1674
1685,1951,1913
1873,1921,1916
1595,1811,1793
1727,1931,1793
1767,1905,1744
1802,1888,1833
1937,1961,1889
2062,1877,1734
1605,1808,1747
1875,1978,1947
1993,1889,1750
1535,1833,1707
1661,1893,1890
1838,1950,2016
2190,2000,1942
2000,1889,1713
1735,1855,1744
1681,1920,1828
1807,1907,1801
1993,1981,1871
2053,1968,1940
1941,1775,1741
1524,1808,1874
1666,1808,1898
1901,1906,2032
2726,2145,2075
2029,1782,1569
1051,1600,1581
1317,1815,1936
2009,1948,2061
1904,1809,1860
2199,1862,1744
1778,1767,1709
1772,1849,1955
1814,1830,1989
1497,1739,1945
1616,1907,1985
2187,1934,1919
2110,1808,1775
1767,1723,1823
2022,1889,1937
1830,1730,1765
1467,1673,1701
1507,1716,1737
1845,1820,2079
1936,1791,1941
1635,1760,1809
1588,1713,1759
1838,1783,1816
1939,1805,1968
2067,1731,1858
1687,1728,1840
1819,1861,2096
2005,1686,1847
1475,1596,1583
1590,1664,1648
1809,1776,1995
1710,1797,1973
2153,1791,1843
1820,1649,1722
1230,1611,1738
1686,1737,1968
2333,1761,1803
1602,1581,1735
1203,1634,1922
2079,1882,2356
2634,1755,1801
1602,1609,1376
1344,1667,1817
1456,1635,1929
1814,1747,1874
1938,1627,1727
1662,1631,1783
2034,1820,2015
2014,1729,1871
1306,1521,1685
1245,1609,1791
1718,1735,1871
2123,1775,1791
1865,1581,1686
1616,1648,1806
2135,1825,1968
1986,1755,1920
1673,1695,1980
1817,1677,1739
1322,1535,1747
1763,1631,1789
1818,1644,1685
1670,1682,1866
1935,1693,1947
1599,1642,1763
1200,1535,1618
1985,1777,1783
1943,1675,1853
1439,1600,1819
2217,1770,1775
1936,1605,1648
1567,1695,1984
1397,1627,1925
1869,1687,1819
1632,1650,1717
1494,1606,1712
2236,1799,1934
2093,1531,1657
1270,1616,1824
1579,1742,2021
2220,1645,1808
1531,1554,1601
1686,1691,1842
1483,1646,1690
2047,1714,1790
1871,1647,1645
1483,1648,1821
1918,1694,1981
2113,1622,1852
1590,1632,1710
1709,1793,1760
1600,1571,1697
1606,1583,1808
2045,1664,1840
1698,1643,1934
1441,1600,1706
1377,1650,1625
1883,1731,1759
1744,1659,1846
1905,1763,1907
2368,1697,1699
1599,1532,1601
1220,1661,1940
1911,1879,1991
1862,1649,1675
1644,1518,1518
1792,1616,1675
2614,1964,2175
2000,1649,1795
1385,1661,1919
1235,1664,1861
1522,1632,1678
1709,1566,1494
1725,1641,1710
2130,1821,2068
1904,1776,1872
1595,1523,1467
1696,1609,1769
1862,1771,1995
2843,1938,2017
2037,1584,1440
976,1407,1462
1106,1617,1940
1616,1668,1905
1798,1710,1800
2290,1747,1798
2102,1656,1744
1670,1643,1653
1600,1634,1644
1946,1780,1919
1759,1759,1926
1474,1683,1836
1866,1792,1830
2295,1776,1753
1931,1570,1427
1227,1520,1645
1490,1671,1860
1891,1664,1856
1585,1711,1764
1851,1774,1833
1968,1767,1821
2411,1809,1859
1602,1673,1633
1554,1722,1745
2074,1694,1702
1834,1681,1695
1936,1777,1899
1712,1698,1862
1501,1713,1884
1483,1711,1763
1746,1734,1727
1744,1739,1717
1651,1664,1565
1740,1627,1673
2006,1742,1969
2112,1802,1922
1583,1650,1740
1558,1711,1677
1841,1808,1814
2261,1887,1872
1789,1616,1525
1577,1698,1712
1997,1814,1857
1746,1739,1730
1961,1821,1839
2133,1687,1575
1623,1759,1865
1618,1865,1867
1648,1734,1774
2192,1655,1641
1791,1743,1755
1424,1730,1846
2023,1710,1680
1680,1707,1793
1792,1840,1904
1839,1840,1798
2005,1776,1629
2087,1825,1852
1522,1712,1711
1358,1772,1793
1797,1778,1777
2021,1839,1841
2001,1869,1838
1691,1780,1815
1904,1778,1777
2109,1696,1731
1535,1702,1633
1522,1884,1872
1755,1835,1867
1846,1764,1690
2349,1885,1705
1849,1762,1709
1535,1748,1797
2096,1799,1779
1850,1810,1849
1738,1856,1968
1777,1797,1724
2022,1776,1654
2221,1871,1764
1535,1718,1725
1295,1808,1837
1925,1813,1842
2128,1893,1842
1767,1843,1797
2039,1891,1872
2063,1809,1760
2209,1826,1664
1332,1702,1597
1369,1824,1862
1802,1860,1905
1861,1851,1776
1970,1856,1833
1849,1847,1822
2047,1852,1929
2288,1830,1701
1742,1781,1591
1585,1774,1772
1805,1831,1866
1872,1757,1712
1665,1860,1859
1739,1943,1956
2192,1909,1902
2001,1871,1839
1932,1934,1843
1789,1809,1690
1520,1788,1776
1680,1870,1847
1897,1872,1882
2092,1879,1949
2057,1786,1872
1776,1743,1569
1744,1872,1785
2025,1966,1942
2198,1788,1583
1596,1830,1789
1616,1829,1914
1894,1867,1929
1779,1827,1811
1852,1814,1895
2155,1865,1939
2409,2070,1883
1801,1824,1649
1296,1713,1781
1453,1847,1909
2085,1904,1889
2306,1799,1759
1795,1797,1827
1664,1963,1963
1854,1789,1678
2083,1807,1817
2211,1951,1955
1745,1796,1840
2334,1869,1808
2031,1700,1431
1183,1769,1805
1421,1838,1946
1984,1913,2019
2337,1935,1874
1895,1795,1587
1723,1906,1933
2128,1926,1975
1684,1746,1616
1535,1776,1804
1811,1904,2060
2131,1934,2059
2058,2000,1837
1968,1929,1797
2019,1872,1639
1670,1713,1751
2067,1776,1890
1829,1704,1654
1445,1855,1789
1792,2029,1979
1941,1904,1911
2093,1902,1837
1977,1836,1817
1795,1774,1867
2268,1866,1840
1673,1744,1687
1574,1879,1851
1682,1845,1865
2000,1939,1879
2615,2035,1978
1909,1828,1804
1684,1791,1858
2217,1840,2029
1584,1770,1682
1745,1808,1865
1568,1757,1701
1959,1923,1811
2181,1861,1819
1795,1825,1785
1741,1776,1851
1946,1873,1812
1871,1962,1809
1679,1841,1935
2075,1781,2127
1991,1797,1750
1813,1970,1809
1963,2020,1927
2187,1918,1995
2012,1826,1680
1555,1776,1671
1634,1846,1917
2014,1934,1975
1977,1819,1767
1827,1851,1888
1745,1867,1859
2559,2076,2226
2512,1812,1707
1587,1873,1776
1331,1803,1678
1520,1808,1746
1791,1837,1823
2023,1920,2037
1981,1909,1896
1831,1875,1803
1939,1945,1847
2506,2083,2130
1891,1821,1809
1648,1733,1734
1762,1833,1889
1801,1875,1883
1939,1909,1872
2084,1901,2010
2483,2006,1808
1648,1837,1639
1593,1865,1968
1744,1776,1975
2018,1732,2000
1906,1935,1744
1923,2043,1800
1811,1808,1605
2320,1839,1845
1974,1835,1851
1375,1809,1887
1776,1919,1904
2055,1866,1724
1990,1881,1981
1903,1808,2079
2064,1863,1951
2203,1987,1798
2078,1919,1904
1513,1769,1812
1803,1783,1729
1938,1793,1684
1764,1778,1817
1629,1846,1913
1968,1945,1978
2290,2029,2110
2171,1958,1893
1620,1786,1594
1810,1785,1699
2382,1815,1696
1898,1849,2000
1505,1927,2091
2031,1938,2096
2031,1820,1872
1921,2006,1978
1942,1830,1809
2032,1818,1643
2352,1766,1661
1419,1776,1825
1554,1878,1892
1851,1919,1869
1991,1873,2059
1925,1808,1983
1989,1907,1742
2251,1918,1851
2299,1778,1831
1405,1712,1668
1333,1866,1789
1883,1857,1869
2305,1893,1898
2026,1825,1870
1725,1951,1969
1649,1863,1836
2197,1872,1843
1984,1807,1762
1966,1879,1968
1926,1806,1963
2272,1814,1881
1907,1952,1817
1794,1855,1915
1859,1777,1700
1708,1797,1680
2193,1959,1909
1897,1830,1947
1763,1749,1840
1728,1816,1809
2063,2047,1942
2245,1946,2090
1989,1914,1803
1735,1879,1793
1739,1894,1937
2247,1966,2126
2224,1931,1884
2002,1748,1569
2000,1926,1783
1709,1819,1892
1718,1878,2032
1720,1766,1773
1766,1776,1680
1979,1969,1952
2176,1964,1936
2374,1920,1870
2083,1788,1648
1610,1904,1937
1694,1799,1856
1714,1724,1635
1743,1866,1862
2208,2059,2229
2307,1953,1950
1840,1841,1660
1904,1951,1818
1868,1869,1882
1827,1692,1631
1535,1727,1607
1787,1859,1861
2144,1903,1991
2332,1962,1917
2147,1939,1895
1853,1877,1753
1797,1872,1883
1706,1836,1811
1743,1808,1669
1743,1766,1721
1895,1924,1965
2478,2032,2089
2373,1949,1819
1726,1806,1707
1291,1776,1803
2014,1921,1894
2023,1810,1605
1602,1791,1779
1685,1881,1979
1949,1904,1910
1982,1849,1855
2159,1922,1866
2079,1914,1817
1775,1831,1744
2235,2009,2091
2007,1904,1828
1933,1919,1782
1743,1743,1759
1753,1832,1731
1991,1964,1826
1915,1856,1635
2155,1978,1958
1904,1776,1802
1648,1699,1884
2004,1873,1933
1811,1808,1658
1795,1950,1821
2142,1935,1979
1842,1807,1721
1822,1826,1730
2160,1923,1952
1963,1881,1926
1507,1782,1778
1635,1834,1891
2229,1987,2000
2129,1750,1715
1743,1717,1584
1695,1899,1822
2110,1929,1962
1850,1795,1827
1856,1861,1904
1966,1902,1878
1695,1808,1824
2059,1840,1831
1923,1853,1840
1814,1856,1818
2025,1978,1869
1982,1911,1823
2031,1914,2064
1857,1701,1576
1763,1798,1707
2045,1888,1930
1697,1832,1876
1748,1834,1904
2170,1822,1963
1723,1867,1739
1680,1858,1707
1746,1785,1778
1991,1846,1859
1871,1936,1842
2053,2165,2039
2177,2054,1939
1718,1793,1718
1609,1795,1826
1978,1970,1956
2354,2010,1981
1785,1739,1765
1614,1674,1680
1746,1755,1737
1847,1887,2015
1905,1866,1868
1975,1920,1920
1879,1789,1699
1836,1790,1591
2043,1856,1872
2011,1893,2003
1801,1904,1981
1642,1840,1938
1569,1735,1715
1840,1874,1764
2067,1854,1840
1919,1855,1898
1899,1947,1899
2006,1951,1933
2018,1952,1934
1776,1859,1820
1644,1813,1719
2059,1890,1851
2386,1840,1872
1609,1622,1904
1408,1844,1890
2054,2000,2022
1958,1765,1639
1491,1702,1535
1728,1821,1686
2202,2003,2068
2269,1889,1981
1847,1826,1870
1498,1718,1665
1607,1883,1952
2195,2031,2107
1805,1782,1773
1637,1830,1809
1738,1897,1981
2187,1983,1963
2104,1827,1792
2123,1803,1787
1648,1691,1651
1619,1903,2003
1994,1988,1995
1690,1769,1768
1593,1781,1797
1971,1883,1910
2145,1756,1712
1815,1822,1744
1662,1936,1947
1852,1958,1979
2241,1953,2014
1776,1712,1729
1874,1967,1962
1814,1885,1920
1904,1808,1706
1626,1803,1770
1839,1937,1983
2205,1872,1814
1616,1741,1744
1805,1792,1721
1871,1863,1885
2159,1910,2018
1986,1739,1637
1636,1802,1847
1586,1917,1919
1943,1987,2064
1811,1824,1881
1743,1823,1673
1740,1877,1826
2001,1941,1965
1922,1873,1975
2183,1919,1957
2078,1889,1856
1798,1870,1744
1521,1782,1717
1650,1744,1788
2022,1890,1871
1806,1872,1943
1734,1871,1919
2132,1968,1799
2176,1822,1627
1835,1773,1855
1667,1821,1920
1791,1885,1974
1734,1754,1805
1695,1885,1830
1843,1906,1923
2064,1895,1878
1999,1987,1963
1807,1947,2042
1898,1824,1744
2007,1839,1744
1791,1823,1855
1616,1871,1923
1789,1823,1872
1789,1790,1802
1860,1862,1803
1833,1935,1929
2431,1982,1965
2300,1835,1702
1476,1771,1821
1507,1840,1975
1893,1926,1984
1921,1903,1866
1766,1872,1891
1656,1840,1947
2012,1904,1920
2768,2055,2012
1853,1747,1579
1288,1807,1755
1440,1843,1898
1773,1822,1853
1839,1855,1858
1968,1873,1959
1949,1850,1813
1899,1891,1851
1885,1951,1984
1905,1883,1905
2103,1859,1839
1953,1845,1918
1767,1922,2057
1898,1947,2027
1841,1840,1755
1735,1758,1715
1823,1873,1872
1864,1884,1859
1904,1898,1974
2029,1903,1882
1985,1920,1895
2001,1927,1966
1859,1859,1846
1855,1884,1916
1862,1897,2010
1883,1878,1885
2201,1920,1840
1902,1871,1856
1771,1852,1947
1756,1847,1910
1953,1787,1783
1885,1872,1894
1705,1894,1821
1914,1851,1891
1923,1831,1799
1793,1919,1847
1887,1952,1983
2037,1967,2095
2074,1930,1840
1999,1886,1819
1738,1872,1887
1770,1878,1946
1961,1862,1903
1873,1802,1751
2009,2005,1967
2014,1917,1927
1899,1786,1727
1867,1874,1728
1878,1949,2002
1734,1829,1963
1743,1861,1872
1981,1918,1825
2207,1902,1887
2071,1918,1904
1686,1810,1837
1727,1855,1886
2091,1966,1999
1968,1895,1873
1776,1872,1973
2031,1888,1899
1923,1885,1995
1839,1907,1815
2029,1905,1819
1759,1755,1709
1801,1878,1915
1868,1947,2018
1920,1935,2015
1967,1887,1883
2128,1896,1840
2039,1902,1934
1952,1815,1910
1681,1853,1701
1895,1956,1889
1942,1938,2091
1822,1834,1955
1969,1861,1805
1874,1854,1789
1798,1861,1888
1873,1841,1819
1956,1867,1830
1995,1880,1965
1975,1902,1909
1921,1858,1823
1994,1959,1887
1937,1943,1931
1967,1829,1888
1845,1808,1949
2065,1778,1755
1638,1797,1744
1639,1891,1949
2064,1936,1913
1979,1823,1827
1994,1879,1959
2234,1958,1840
1786,1811,1871
1611,1818,1842
2091,1947,1971
1953,1817,1927
1557,1808,1855
1728,1905,1782
2032,1875,1854
1889,1854,1991
1864,1840,1906
1991,1941,1857
2113,1911,1778
1763,1776,1808
1761,1826,1904
2064,1924,1926
1879,1802,1854
1730,1808,1881
1967,1872,1937
2065,1909,1861
1837,1867,1806
1843,1875,1909
2109,1869,1967
1875,1790,1664
1622,1834,1810
2014,1863,1904
1940,1795,1823
1750,1865,1874
1938,2003,2022
2011,1953,1951
1859,1830,1827
1955,1825,1730
1949,1845,1827
1895,1827,1858
1831,1883,2021
1936,1885,1863
1788,1817,1777
1799,1856,1888
1933,1861,1923
2032,1886,1808
1714,1856,1922
1744,1899,1922
2129,1859,1669
2021,1821,1762
1841,1919,2064
1853,1890,2005
1939,1808,1866
1910,1794,1654
1699,1853,1777
1914,1953,2021
2110,1875,1867
1968,1845,1829
1702,1840,1857
2037,1973,1987
1861,1750,1725
1575,1776,1729
1953,1805,1840
2226,1905,1863
1841,1793,1708
1526,1830,1808
1728,1885,1962
2154,1942,2025
2108,1874,1738
1884,1741,1586
1805,1854,1893
1694,1866,1963
1837,1813,1797
2000,1882,1840
1872,1868,1872
1776,1837,1898
1781,1830,1930
1984,1867,1811
1894,1954,1937
1814,1915,1873
1955,1779,1725
1872,1773,1825
1775,1786,1855
1744,1855,1850
2046,1905,1719
2212,1821,1775
1575,1808,1837
1633,1915,2019
1975,1936,1941
2082,1854,1777
1875,1805,1737
1765,1866,1865
2032,1934,1937
2040,1819,1744
1648,1773,1887
1648,1915,1936
1939,1875,1744
2206,1865,1599
1936,1863,1861
1891,1904,2037
1811,1823,1919
1841,1841,1808
1718,1805,1821
1601,1795,1793
1772,1859,1870
1971,1882,1914
2015,1889,1745
1808,1840,1799
1849,1845,1821
1858,1895,2015
1998,1924,1923
1724,1843,1795
1822,1886,1825
1978,1791,1786
1981,1915,1917
1943,1827,1622
1669,1877,1989
1869,1875,1925
1650,1830,1840
1673,1872,1855
1961,1854,1742
2033,1828,1733
1874,1890,1969
2045,1880,2032
2047,1853,1731
1648,1811,1781
1535,1844,1869
2139,1966,1970
1875,1761,1731
1582,1840,1852
1744,1911,1895
2057,1968,2007
2343,1899,1893
1627,1792,1700
1639,1849,1719
1980,1882,1789
1840,1840,1959
1783,1809,1953
1708,1803,1675
2221,1984,1920
2058,1789,1617
1691,1847,1878
1599,1920,2030
1663,1876,2032
2000,1870,1850
2109,1846,1690
1947,1822,1786
1662,1907,1955
1912,1870,1867
2130,1840,1830
1886,1814,1791
1494,1845,1886
1703,1840,1861
2013,1935,1979
2379,1975,2083
1845,1761,1744
1578,1776,1697
1925,1920,1782
1894,1902,1882
1757,1858,1886
1667,1767,1835
1705,1808,1841
1936,1891,1838
1895,1899,1936
1899,1921,1943
2044,1934,1932
1998,1901,1943
1776,1847,1909
2079,1846,1715
2167,1927,1849
1677,1756,1745
1467,1735,1843
1839,1840,1872
1926,1868,1744
1765,1904,1895
2030,1937,1959
1959,1909,1879
1808,1825,1755
1716,1846,1850
1890,1856,1928
1798,1793,1831
1795,1830,1814
2112,1893,1939
1904,1893,1886
1772,1794,1746
1978,1854,1883
1921,1877,1973
1815,1949,1934
1763,1841,1728
1922,1857,1779
1775,1872,1921
1765,1803,2035
2031,1808,1897
2173,1898,1675
1774,1854,1714
1808,1904,1936
1974,1890,1993
1813,1819,1661
1658,1863,1647
1629,1757,1828
1826,1842,1895
1887,1890,1904
1973,1930,1874
1744,1826,1759
1905,1938,1858
2181,1892,1781
1713,1822,1854
1588,1835,1842
2000,1870,1902
1936,1882,1855
1847,1865,1777
1846,1872,1892
1760,1827,1874
1835,1851,1863
1991,1965,1936
2299,1962,1937
1756,1747,1697
1632,1774,1722
2131,1923,1938
1891,1849,1813
1615,1840,1805
1697,1838,1802
1962,1917,1904
2062,1934,1938
1927,1863,1899
1859,1803,1776
1857,1872,1856
1836,1899,1985
1782,1855,1764
1841,1863,1803
1973,1898,1920
1941,1918,1968
1763,1808,1735
1771,1825,1715
1946,1856,1877
1810,1822,1863
1712,1830,1806
1794,1856,1792
1841,1903,1894
2056,1975,2010
2105,1876,1838
1877,1781,1681
1830,1897,1933
2127,1927,1917
1936,1797,1730
1562,1754,1731
1535,1873,1827
1831,1963,2018
1973,1844,1808
1952,1872,1798
1873,1916,1934
1872,1890,1923
1930,1869,1763
1829,1845,1792
1801,1854,1861
1954,1911,2064
1968,1893,1894
1861,1801,1600
1738,1845,1754
1685,1830,1904
1898,1899,1954
2082,1911,1830
1968,1895,1852
1870,1847,1797
1679,1847,1842
1778,1879,1897
2002,1878,1797
