1874,1887,1883
1809,1882,1891
1811,1834,1827
1895,1843,1834
1884,1889,1881
1857,1883,1870
1872,1840,1798
1866,1853,1845
1872,1879,1884
1924,1873,1904
1871,1851,1854
1857,1849,1825
1839,1885,1867
1850,1873,1886
1877,1835,1793
1893,1837,1808
1866,1883,1881
1840,1887,1902
1860,1840,1819
1878,1829,1810
1843,1873,1883
1841,1887,1899
1889,1841,1808
1903,1837,1798
1839,1871,1882
1815,1890,1934
1843,1837,1842
1913,1847,1819
1873,1872,1864
1831,1870,1876
1875,1851,1831
1866,1840,1799
1834,1852,1874
1825,1865,1901
1845,1841,1834
1889,1857,1840
1898,1867,1885
1850,1867,1872
1885,1843,1808
1904,1856,1826
1825,1877,1872
1826,1872,1871
1846,1831,1794
1891,1840,1776
1859,1873,1871
1815,1874,1934
1853,1839,1850
1870,1839,1837
1840,1875,1867
1837,1872,1872
1904,1825,1776
1870,1845,1794
1830,1883,1919
1829,1872,1927
1850,1826,1834
1887,1840,1808
1859,1872,1868
1855,1872,1887
1848,1839,1833
1861,1842,1818
1885,1878,1851
1904,1861,1855
1847,1831,1817
1881,1855,1851
1869,1901,1908
1859,1869,1886
1838,1807,1772
1893,1839,1782
1866,1877,1898
1813,1872,1910
1856,1837,1821
1869,1843,1799
1860,1883,1872
1863,1862,1872
1887,1827,1824
1909,1831,1815
1875,1879,1874
1787,1875,1881
1828,1842,1843
1873,1839,1815
1841,1866,1871
1895,1872,1887
1929,1827,1810
1865,1853,1836
1818,1883,1895
1830,1886,1908
1872,1846,1778
1934,1829,1787
1846,1869,1873
1789,1866,1885
1867,1837,1821
1941,1850,1798
1835,1871,1872
1771,1858,1891
1794,1828,1826
1921,1853,1829
1925,1856,1824
1819,1853,1840
1751,1821,1821
1843,1840,1853
1897,1856,1841
1883,1856,1881
1909,1845,1821
1872,1830,1795
1791,1845,1862
1774,1850,1853
1831,1838,1811
1862,1834,1818
1859,1870,1875
1901,1879,1857
1854,1843,1826
1785,1821,1807
1793,1849,1894
1824,1853,1903
1933,1820,1781
1901,1825,1787
1821,1877,1872
1810,1872,1903
1851,1807,1796
1819,1829,1803
1830,1865,1918
1823,1842,1906
1875,1823,1787
1958,1841,1810
1851,1867,1904
1827,1859,1921
1833,1822,1777
1890,1836,1792
1833,1847,1920
1793,1827,1936
1811,1821,1811
1847,1854,1811
1859,1872,1901
1861,1863,1910
1899,1823,1834
1879,1815,1799
1859,1852,1861
1850,1866,1891
1850,1823,1814
1905,1815,1796
1910,1853,1859
1840,1843,1885
1859,1815,1835
1888,1827,1830
1829,1857,1859
1808,1856,1882
1808,1836,1823
1840,1840,1795
1867,1843,1883
1881,1844,1904
1861,1828,1809
1860,1819,1795
1831,1846,1872
1808,1841,1886
1840,1830,1835
1867,1829,1824
1927,1841,1853
1855,1815,1821
1794,1808,1774
1842,1813,1810
1877,1867,1904
1857,1853,1914
1831,1811,1831
1839,1808,1793
1851,1851,1840
1863,1850,1872
1879,1812,1823
1872,1822,1840
1872,1901,1883
1858,1842,1856
1855,1790,1797
1907,1851,1811
1882,1846,1863
1825,1775,1889
1817,1810,1808
1879,1831,1806
1856,1820,1868
1863,1829,1878
1886,1782,1793
1893,1781,1827
1872,1894,1897
1861,1878,1886
1880,1847,1821
1909,1813,1825
1863,1872,1834
1787,1845,1892
1826,1782,1831
1870,1821,1822
1875,1854,1859
1840,1857,1880
1846,1815,1808
1884,1795,1808
1923,1862,1866
1872,1885,1865
1842,1821,1818
1844,1815,1830
1845,1905,1878
1840,1857,1872
1863,1814,1837
1927,1811,1840
1903,1844,1874
1906,1881,1858
1933,1839,1783
1922,1814,1795
1815,1822,1876
1776,1894,1904
1837,1829,1842
1889,1813,1825
1883,1850,1891
1891,1842,1847
1856,1833,1750
1882,1831,1803
1845,1867,1910
1819,1849,1910
1853,1819,1827
1883,1823,1808
1883,1834,1856
1893,1838,1875
1889,1790,1802
1875,1851,1803
1851,1817,1840
1856,1884,1871
1856,1793,1825
1867,1839,1808
1895,1810,1846
1913,1863,1882
1936,1881,1827
1870,1792,1765
1874,1853,1872
1842,1879,1889
1827,1828,1818
1845,1827,1836
1858,1824,1872
1845,1879,1891
1872,1869,1817
1889,1846,1777
1925,1853,1885
1876,1873,1905
1867,1793,1831
1887,1841,1806
1879,1868,1853
1858,1868,1879
1936,1825,1812
1946,1835,1789
1856,1861,1856
1792,1858,1903
1846,1830,1842
1854,1828,1822
1861,1874,1872
1872,1847,1871
1883,1821,1805
1904,1825,1808
1896,1872,1873
1876,1855,1901
1840,1823,1808
1887,1838,1792
1933,1851,1856
1885,1871,1877
1853,1855,1841
1871,1802,1838
1889,1865,1841
1872,1871,1862
1864,1824,1799
1866,1814,1823
1875,1861,1887
1859,1725,1895
1862,1833,1830
1924,1858,1803
1904,1895,1855
1872,1873,1888
1873,1853,1831
1890,1851,1820
1869,1897,1885
1840,1897,1905
1856,1834,1840
1898,1850,1824
1941,1883,1851
1934,1830,1840
1843,1765,1821
1843,1881,1827
1840,1865,1904
1840,1809,1904
1849,1901,1808
1894,1851,1799
1920,1875,1881
1875,1891,1905
1873,1843,1838
1905,1859,1808
1877,1853,1840
1920,1914,1871
1906,1891,1850
1895,1835,1846
1856,1874,1876
1847,1873,1872
1893,1840,1808
1926,1847,1802
1847,1936,1883
1822,1883,1897
1883,1853,1822
1936,1829,1776
1904,1858,1840
1846,1875,1890
1845,1822,1843
1874,1889,1822
1933,1869,1869
1919,1878,1870
1855,1871,1828
1874,1858,1811
1895,1829,1881
1917,1901,1885
1887,1793,1822
1866,1840,1828
1833,1879,1871
1840,1878,1837
1901,1853,1801
1904,1856,1831
1889,1876,1904
1871,1853,1903
1879,1836,1801
1967,1836,1791
1919,1864,1873
1822,1830,1897
1833,1839,1827
1872,1872,1825
1886,1889,1862
1858,1823,1902
1857,1869,1826
1913,1846,1808
1883,1872,1860
1914,1795,1893
1875,1842,1819
1873,1838,1806
1897,1874,1874
1878,1898,1867
1897,1840,1803
1872,1849,1841
1811,1890,1921
1821,1893,1921
1872,1858,1829
1909,1843,1824
1881,1883,1871
1858,1888,1872
1900,1843,1797
1878,1851,1811
1856,1873,1857
1849,1886,1879
1862,1846,1829
1940,1847,1793
1898,1869,1875
1859,1871,1898
1835,1857,1840
1844,1840,1792
1888,1863,1856
1865,1881,1865
1833,1857,1815
1858,1850,1839
1867,1875,1889
1845,1875,1890
1893,1829,1795
1909,1854,1834
1861,1879,1890
1840,1875,1858
1843,1829,1812
1909,1855,1840
1889,1866,1870
1825,1875,1875
1827,1853,1811
1865,1867,1840
1873,1894,1882
1855,1869,1865
1831,1840,1810
1883,1856,1820
1895,1891,1869
1903,1879,1872
1879,1838,1791
1852,1841,1831
1833,1883,1878
1818,1895,1878
1861,1836,1820
1906,1851,1819
1904,1883,1863
1819,1878,1881
1815,1843,1822
1859,1839,1822
1869,1874,1874
1853,1890,1894
1835,1847,1808
1913,1825,1751
1936,1891,1858
1835,1877,1904
1782,1840,1817
1819,1856,1807
1850,1878,1881
1837,1872,1882
1872,1835,1806
1872,1850,1805
1823,1883,1873
1825,1886,1882
1878,1843,1826
1887,1863,1841
1841,1894,1883
1838,1869,1877
1858,1835,1808
1867,1840,1808
1855,1872,1850
1842,1870,1868
1833,1835,1833
1867,1839,1799
1869,1872,1863
1823,1876,1877
1856,1840,1824
1901,1840,1775
1867,1876,1851
1824,1870,1888
1838,1823,1813
1859,1836,1801
1840,1873,1869
1837,1867,1872
1824,1838,1806
1850,1834,1798
1874,1881,1881
1810,1874,1882
1815,1850,1818
1834,1822,1808
1889,1853,1849
1840,1866,1874
1847,1838,1801
1891,1835,1811
1863,1874,1863
1814,1872,1876
1812,1831,1795
1888,1838,1799
1888,1866,1841
1818,1871,1841
1827,1837,1810
1854,1835,1829
1830,1870,1885
1808,1869,1888
1829,1833,1797
1882,1842,1788
1873,1872,1863
1809,1885,1893
1819,1835,1813
1845,1817,1773
1837,1858,1863
1825,1865,1845
1833,1833,1803
1856,1841,1840
1861,1874,1881
1822,1875,1873
1863,1842,1792
1904,1841,1767
1837,1858,1867
1799,1857,1906
1811,1844,1827
1858,1835,1808
1843,1854,1840
1852,1854,1846
1862,1815,1791
1843,1827,1808
1823,1870,1870
1825,1845,1861
1847,1838,1808
1845,1842,1788
1814,1872,1840
1820,1862,1858
1831,1839,1807
1856,1845,1830
1887,1877,1891
1866,1872,1872
1870,1833,1793
1872,1818,1798
1870,1863,1886
1804,1862,1865
1823,1829,1791
1854,1827,1813
1889,1871,1871
1809,1877,1834
1815,1846,1811
1840,1829,1792
1854,1867,1871
1841,1879,1883
1868,1838,1815
1929,1839,1751
1858,1858,1840
1805,1857,1871
1807,1833,1858
1878,1839,1857
1877,1887,1887
1854,1879,1856
1845,1813,1799
1839,1811,1785
1847,1849,1881
1813,1860,1927
1855,1840,1849
1875,1849,1839
1840,1877,1844
1811,1870,1847
1841,1834,1839
1877,1841,1799
1822,1866,1857
1806,1881,1846
1811,1826,1814
1859,1831,1840
1872,1859,1866
1886,1863,1841
1836,1840,1798
1845,1841,1798
1863,1868,1855
1815,1862,1810
1820,1809,1790
1855,1813,1810
1821,1863,1906
1811,1869,1841
1847,1829,1754
1894,1823,1795
1859,1872,1861
1815,1868,1877
1827,1831,1810
1867,1823,1797
1859,1855,1843
1837,1859,1869
1853,1815,1818
1892,1824,1789
1875,1877,1866
1780,1872,1904
1791,1836,1840
1845,1837,1793
1904,1872,1838
1891,1859,1826
1834,1835,1793
1827,1844,1809
1827,1875,1931
1826,1893,1901
1835,1826,1808
1856,1821,1803
1855,1858,1884
1848,1873,1917
1854,1843,1827
1877,1849,1776
1870,1872,1872
1841,1870,1907
1847,1835,1837
1863,1827,1825
1866,1872,1911
1851,1875,1915
1856,1840,1835
1877,1839,1820
1894,1872,1844
1891,1854,1825
1834,1820,1811
1829,1826,1814
1833,1863,1883
1831,1866,1861
1843,1826,1821
1875,1832,1831
1871,1866,1872
1867,1861,1910
1839,1822,1810
1859,1823,1794
1854,1853,1861
1840,1854,1878
1854,1820,1827
1892,1822,1808
1875,1856,1883
1858,1856,1889
1866,1821,1825
1885,1815,1810
1875,1852,1868
1856,1848,1877
1863,1803,1809
1897,1808,1837
1891,1829,1912
1865,1840,1890
1871,1801,1819
1903,1805,1840
1900,1872,1902
1872,1871,1828
1874,1821,1839
1914,1814,1824
1904,1855,1889
1877,1885,1897
1887,1850,1834
1902,1862,1828
1881,1927,1879
1872,1965,1906
1896,1965,1845
1923,1961,1843
1917,2002,1893
1872,2057,1850
1893,2023,1830
1934,2000,1806
1920,2128,1869
1897,2176,1891
1907,2144,1823
1938,2160,1875
1925,2188,1893
1904,2239,1943
1918,2246,1859
1941,2230,1794
1934,2288,1907
1919,2369,1846
1952,2352,1792
1997,2346,1811
2016,2399,1894
2028,2431,1868
2068,2401,1768
2111,2400,1840
2119,2480,1923
2117,2486,1875
2143,2423,1863
2187,2448,1809
2200,2501,1867
2209,2506,1885
2238,2466,1814
2278,2471,1835
2285,2496,1872
2282,2480,1861
2298,2456,1815
2335,2480,1805
2341,2487,1873
2327,2481,1867
2339,2448,1789
2368,2451,1798
2365,2487,1865
2357,2487,1882
2373,2442,1806
2401,2437,1789
2401,2483,1861
2379,2471,1867
2390,2416,1808
2420,2402,1803
2416,2430,1862
2392,2431,1867
2385,2398,1765
2419,2384,1799
2421,2398,1871
2399,2407,1862
2384,2355,1850
2419,2350,1850
2411,2377,1851
2384,2366,1908
2398,2322,1776
2417,2314,1805
2411,2337,1837
2391,2333,1885
2394,2291,1831
2416,2278,1829
2415,2305,1868
2384,2299,1888
2384,2251,1822
2410,2251,1796
2398,2288,1899
2382,2288,1902
2375,2235,1813
2399,2230,1811
2398,2268,1891
2382,2260,1890
2362,2220,1826
2380,2222,1824
2384,2252,1891
2390,2235,1892
2399,2175,1793
2445,2151,1751
2390,2206,1837
2306,2218,1936
2279,2159,1871
2271,2155,1831
2293,2195,1910
2305,2206,1936
2320,2167,1830
2343,2162,1793
2320,2197,1869
2317,2209,1878
2329,2160,1799
2278,2151,1842
2221,2183,1904
2221,2176,1926
2247,2139,1830
2262,2122,1822
2369,2156,1879
2338,2153,1878
2253,2108,1808
2140,2115,1857
2183,2127,1908
2208,2123,1904
2239,2107,1886
2186,2086,1842
2138,2067,1883
2185,2067,1904
2192,2013,1831
2134,2003,1776
2133,2032,1927
2137,2003,1952
2193,1952,1840
2233,1947,1744
2189,1968,1879
2139,1961,1927
2177,1915,1887
2246,1891,1726
2155,1888,1826
2027,1878,1931
2022,1862,1902
2175,1835,1839
2112,1833,1839
2177,1845,1874
2135,1808,1841
2061,1797,1824
2026,1786,1920
2102,1776,1893
2097,1745,1810
2045,1727,1778
1996,1728,1898
2032,1703,1898
2035,1647,1829
2062,1600,1811
2069,1622,1898
2079,1635,1858
2089,1574,1722
1969,1501,1823
1996,1515,1942
2009,1535,1888
2058,1474,1743
2071,1453,1789
2018,1495,1902
1991,1462,1873
1996,1402,1790
1984,1399,1770
2003,1415,1843
1934,1386,1904
2085,1358,1811
2076,1390,1834
1916,1378,1840
1847,1342,1870
1774,1328,1833
1730,1328,1774
1642,1345,1802
1552,1345,1810
1606,1306,1818
1527,1309,1795
1486,1351,1859
1412,1325,1894
1413,1299,1810
1394,1296,1785
1373,1328,1820
1409,1325,1840
1418,1264,1776
1427,1263,1744
1381,1285,1849
1254,1274,1839
1222,1253,1823
1217,1264,1837
1264,1296,1889
1265,1289,1849
1283,1234,1759
1343,1248,1760
1328,1289,1862
1229,1282,1873
1191,1230,1791
1241,1234,1749
1283,1260,1818
1287,1280,1807
1285,1247,1793
1280,1263,1739
1290,1283,1869
1237,1274,1897
1153,1235,1782
1342,1238,1779
1229,1284,1838
1200,1289,1872
1171,1271,1794
1216,1266,1763
1275,1296,1815
1097,1312,1871
1216,1274,1813
1257,1280,1788
1351,1311,1846
1278,1314,1820
1206,1286,1799
1278,1279,1804
1315,1328,1865
1274,1355,1858
1277,1329,1787
1239,1314,1776
1303,1373,1845
1328,1361,1870
1187,1315,1803
1279,1327,1817
1283,1359,1856
1258,1344,1823
1291,1329,1785
1392,1357,1804
1362,1401,1838
1424,1377,1850
1275,1353,1825
1264,1354,1770
1303,1392,1826
1360,1401,1841
1307,1365,1807
1355,1360,1805
1394,1415,1843
1392,1427,1849
1398,1392,1777
1330,1387,1780
1332,1422,1822
1342,1440,1839
1367,1408,1750
1424,1398,1752
1472,1449,1854
1360,1456,1873
1346,1410,1802
1411,1405,1773
1391,1456,1808
1443,1435,1808
1498,1423,1808
1472,1419,1791
1387,1456,1841
1392,1471,1886
1432,1436,1835
1437,1434,1743
1392,1480,1815
1392,1520,1841
1517,1472,1751
1520,1460,1796
1418,1498,1876
1402,1521,1865
1438,1486,1815
1556,1498,1805
1414,1520,1841
1456,1561,1808
1535,1523,1735
1570,1514,1767
1403,1535,1858
1291,1583,1899
1465,1553,1826
1478,1570,1780
1583,1580,1777
1573,1578,1815
1472,1535,1811
1495,1558,1791
1488,1607,1861
1515,1607,1885
1569,1581,1810
1555,1579,1792
1559,1614,1840
1564,1641,1877
1534,1629,1777
1558,1614,1779
1510,1637,1808
1535,1664,1884
1584,1648,1837
1606,1641,1836
1577,1680,1869
1535,1673,1794
1651,1648,1738
1644,1645,1799
1535,1682,1905
1526,1719,1905
1584,1670,1793
1631,1648,1778
1616,1715,1867
1572,1739,1897
1579,1692,1798
1632,1716,1794
1648,1744,1838
1637,1754,1857
1635,1724,1815
1619,1723,1808
1631,1743,1863
1631,1749,1846
1664,1714,1745
1713,1739,1744
1680,1782,1870
1632,1782,1878
1648,1729,1780
1667,1728,1840
1666,1791,1895
1641,1801,1874
1649,1761,1788
1664,1758,1762
1735,1803,1869
1709,1811,1897
1650,1797,1825
1677,1776,1792
1680,1835,1831
1747,1840,1849
1710,1792,1806
1687,1811,1821
1680,1850,1872
1695,1856,1869
1696,1823,1824
1710,1806,1806
1722,1840,1868
1686,1854,1856
1751,1826,1776
1791,1815,1778
1744,1875,1851
1680,1881,1875
1697,1824,1826
1759,1839,1811
1794,1885,1854
1745,1882,1847
1718,1834,1789
1794,1839,1808
1734,1870,1871
1709,1880,1872
1734,1850,1799
1805,1859,1798
1751,1904,1870
1721,1894,1883
1791,1863,1821
1840,1867,1766
1750,1904,1840
1737,1921,1862
1783,1895,1871
1846,1910,1856
1791,1925,1855
1735,1920,1885
1751,1900,1835
1851,1900,1774
1853,1952,1875
1808,1939,1898
1771,1890,1798
1794,1890,1814
1767,1905,1857
1808,1927,1875
1805,1914,1795
1819,1915,1823
1808,1962,1886
1791,1937,1895
1798,1873,1843
1847,1902,1810
1845,1943,1862
1834,1957,1888
1915,1918,1820
1879,1920,1833
1873,1941,1866
1703,1937,1856
1753,1922,1775
1856,1920,1855
1850,1947,1911
1827,1967,1883
1833,1917,1819
1851,1934,1836
1837,1988,1857
1840,1927,1925
1838,1889,1860
1922,1931,1778
1951,1942,1759
1899,1944,1903
1809,1912,1863
1802,1920,1798
1818,1998,1869
1822,1984,1872
1897,1943,1769
1875,1927,1761
1866,1958,1906
1819,1957,1923
1776,1895,1762
1879,1919,1785
1909,1967,1853
1840,1945,1874
1846,1914,1767
1897,1909,1813
1905,1934,1872
1840,1943,1882
1799,1921,1816
1843,1907,1761
1872,1926,1824
1854,1934,1903
1909,1913,1818
1977,1920,1811
1866,1936,1890
1811,1934,1890
1858,1891,1811
1906,1912,1792
1933,1936,1840
1872,1919,1905
1875,1910,1839
1882,1920,1838
1873,1963,1878
1936,1939,1858
1889,1919,1806
1869,1909,1850
1846,1942,1885
1842,1919,1901
1909,1890,1797
1957,1923,1790
1930,1967,1872
1903,1968,1904
1889,1934,1847
1989,1918,1825
1921,1939,1895
1850,1885,1919
1885,1929,1856
1936,1963,1793
1927,1921,1820
1914,1907,1860
1910,1979,1803
1881,1957,1825
1890,1905,1891
1871,1991,1889
1910,1894,1805
1934,1879,1809
1958,1978,1934
1919,1908,1892
1936,1925,1787
1937,1963,1820
1889,1946,1915
1887,1998,1908
1929,1919,1829
1997,1958,1810
1926,1961,1811
1870,1940,1909
1918,1919,1847
1908,1930,1840
1915,1968,1891
1949,1955,1872
1948,1919,1774
1904,1926,1833
1909,1985,1906
1887,1922,1894
1931,1953,1821
1983,1920,1791
1968,1996,1879
1893,1968,1897
1889,1890,1827
1939,1916,1822
1959,1942,1867
1933,1957,1885
1889,1904,1818
1917,1911,1799
1955,1968,1881
1936,1959,1879
1907,1911,1827
1942,1889,1838
1929,1963,1874
1936,1975,1876
1915,1930,1797
1983,1923,1805
1990,1962,1904
1903,1963,1936
1915,1918,1856
1902,1939,1827
1901,1952,1894
1886,1936,1904
1939,1882,1850
2037,1875,1792
1984,1887,1819
1914,1905,1887
1847,1904,1825
1882,1917,1830
1922,1973,1903
1941,1979,1901
1950,1856,1856
2045,1919,1855
2018,1942,1858
1898,1973,1888
1854,1855,1851
1904,1920,1840
1927,1936,1870
1947,1919,1861
1934,1875,1808
1926,1852,1790
1962,1952,1907
1965,1951,1936
1925,1949,1850
1931,1920,1828
1947,1953,1872
1925,1915,1850
1949,1872,1799
1931,1899,1831
1901,1945,1913
1892,1955,1876
1938,1889,1805
1969,1889,1831
1929,1930,1894
1904,1977,1909
1903,1861,1835
1946,1851,1818
1935,1905,1872
1938,1920,1920
1959,1936,1829
1948,1870,1775
1909,1914,1867
1920,1957,1915
1879,1894,1831
1910,1881,1781
1935,1925,1856
1925,1920,1910
1941,1950,1825
1939,1917,1787
1938,1905,1861
1904,1904,1877
1910,1883,1841
1941,1896,1813
1949,1926,1845
1904,1930,1888
1893,1877,1827
1947,1881,1807
1931,1922,1855
1891,1967,1873
1921,1904,1821
2067,1889,1792
1987,1911,1856
1903,1878,1914
1930,1875,1833
1982,1968,1837
1867,1839,1879
1859,1919,1872
1893,1900,1819
1936,1903,1843
1943,1906,1862
1933,1904,1856
1909,1906,1813
1899,1885,1829
1886,1936,1911
1898,1887,1904
1908,1878,1808
2008,1865,1822
1969,1959,1872
1880,1935,1872
1898,1903,1791
1915,1856,1801
1924,1902,1871
1905,1915,1871
2006,1874,1795
1963,1870,1838
1873,1857,1868
1865,1952,1853
1934,1825,1769
1950,1873,1811
1915,1923,1901
1837,1904,1926
1885,1875,1845
1935,1873,1808
1911,1895,1853
1925,1903,1846
1920,1852,1835
1925,1837,1840
1904,1891,1907
1878,1883,1883
1929,1826,1789
1947,1840,1787
1919,1914,1849
1875,1872,1904
1898,1808,1794
1974,1811,1790
1934,1872,1898
1854,1910,1901
1840,1863,1821
1948,1904,1819
1946,1948,1841
1861,1929,1894
1887,1939,1844
1910,1869,1829
1898,1872,1872
1889,1883,1913
1918,1840,1840
1937,1847,1818
1904,1849,1822
1936,1886,1856
1951,1860,1805
1891,1865,1792
1840,1898,1834
1857,1897,1906
1894,1851,1851
1925,1834,1827
2009,1875,1847
1830,1887,1882
1796,1849,1829
1856,1826,1831
1898,1885,1863
1859,1872,1857
1907,1839,1789
1925,1839,1763
1865,1872,1826
1854,1871,1839
1918,1833,1808
1889,1843,1845
1902,1870,1887
1887,1869,1914
1919,1832,1815
1861,1838,1790
1835,1856,1831
1840,1854,1831
1888,1829,1807
1879,1829,1794
1852,1850,1858
1822,1867,1866
1836,1826,1818
1911,1839,1742
1891,1840,1792
1872,1849,1874
1883,1831,1842
1881,1825,1808
1872,1853,1844
1855,1861,1894
1845,1826,1805
1877,1839,1785
1990,1869,1823
1899,1849,1789
1825,1795,1763
1819,1808,1805
1847,1871,1933
1845,1872,1935
1845,1814,1808
1894,1829,1779
1920,1878,1883
1994,1885,1882
1892,1830,1777
1828,1831,1808
1833,1876,1877
1842,1872,1855
1884,1817,1811
1905,1826,1838
1909,1873,1861
1981,1879,1856
1906,1838,1793
1851,1841,1841
1827,1861,1907
1837,1872,1906
1881,1837,1799
1938,1847,1809
1943,1872,1836
1843,1872,1878
1867,1843,1831
1889,1849,1824
1854,1882,1899
1847,1882,1930
1927,1843,1831
1920,1849,1810
1851,1851,1842
1825,1879,1872
1851,1845,1813
1895,1842,1847
1933,1875,1895
1871,1863,1872
1882,1837,1818
1857,1836,1833
1882,1850,1877
1871,1872,1877
1846,1832,1799
1902,1840,1822
1904,1868,1875
1841,1869,1886
1815,1827,1816
1882,1839,1830
1901,1872,1867
1872,1867,1895
1892,1840,1790
1974,1843,1777
1859,1862,1867
1791,1878,1906
1868,1847,1813
1895,1804,1801
1829,1869,1878
1847,1887,1922
1873,1841,1810
1908,1846,1835
1919,1874,1856
1923,1856,1857
1921,1852,1840
1924,1837,1854
1842,1846,1866
1764,1851,1899
1791,1823,1837
1867,1840,1837
1902,1875,1904
1857,1876,1903
1865,1831,1823
1931,1837,1821
1979,1881,1870
1917,1856,1829
1835,1842,1796
1915,1832,1780
1830,1867,1894
1798,1875,1913
1825,1841,1839
1872,1835,1797
1867,1867,1922
1877,1891,1933
1920,1808,1787
1932,1825,1803
1811,1866,1860
1823,1857,1920
1879,1813,1808
2039,1815,1766
1922,1849,1866
1755,1869,1926
1757,1809,1798
1821,1775,1727
1859,1851,1787
1881,1869,1933
1856,1836,1898
1844,1808,1841
1910,1866,1869
1936,1862,1866
1872,1809,1835
1871,1832,1805
1920,1795,1805
1869,1787,1782
1836,1819,1814
1859,1814,1863
1830,1833,1872
1842,1851,1898
1811,1818,1842
1859,1808,1797
1875,1871,1867
1840,1854,1899
1905,1799,1839
1991,1814,1775
1890,1847,1853
1748,1830,1902
1774,1793,1840
1888,1810,1859
1920,1851,1867
1840,1846,1921
1774,1793,1826
1821,1790,1793
1826,1817,1831
1902,1861,1899
1954,1815,1827
1904,1833,1847
1737,1830,1872
1748,1774,1780
1935,1825,1846
1909,1851,1901
1887,1850,1941
1889,1837,1744
1841,1815,1837
1867,1813,1878
1981,1850,1895
1869,1878,1872
1776,1819,1814
1816,1832,1795
1847,1829,1779
1957,1847,1904
1879,1805,1894
1825,1801,1788
1853,1863,1890
1925,1856,1901
1845,1807,1854
1840,1798,1795
1881,1823,1807
1921,1847,1771
1825,1819,1841
1821,1806,1861
1818,1847,1861
1839,1847,1810
1919,1810,1843
1904,1760,1839
1879,1831,1904
1838,1840,1855
1837,1805,1824
1910,1810,1798
1904,1827,1835
1754,1838,1921
1776,1792,1808
1904,1804,1873
1897,1856,1898
1849,1850,1873
1877,1814,1740
1865,1803,1761
1811,1831,1968
1826,1853,1971
1874,1803,1870
1903,1787,1766
1954,1836,1886
1838,1835,1823
1821,1778,1774
1857,1810,1885
1822,1821,1896
1799,1834,1807
1884,1830,1843
1929,1806,1879
1828,1802,1849
1839,1821,1869
1900,1804,1841
1938,1823,1787
1797,1854,1869
1783,1848,1904
1840,1794,1804
1878,1776,1776
1840,1839,1869
1834,1855,1950
1846,1792,1810
1926,1772,1729
1838,1815,1843
1833,1863,1933
1850,1818,1872
1885,1809,1841
1904,1850,1831
1921,1872,1871
1840,1808,1856
1807,1787,1805
1803,1837,1845
1851,1858,1920
1852,1801,1866
1897,1803,1817
1895,1855,1857
1861,1842,1761
1847,1823,1808
1911,1838,1722
1902,1834,1866
1846,1837,1874
1834,1814,1843
1859,1827,1853
1814,1855,1866
1856,1872,1807
1877,1840,1807
1904,1827,1781
1853,1841,1898
1814,1840,1885
1839,1807,1804
1904,1815,1792
1920,1853,1842
1835,1866,1905
1820,1831,1828
1879,1830,1823
1887,1876,1858
1885,1875,1878
1819,1811,1865
1840,1818,1840
1842,1849,1894
1834,1869,1899
1846,1821,1781
1890,1819,1779
1899,1857,1899
1904,1872,1879
1875,1808,1721
1840,1827,1862
1835,1870,1933
1831,1840,1915
1882,1819,1846
1855,1837,1856
1843,1887,1847
1898,1885,1822
1889,1847,1815
1827,1840,1829
1803,1845,1840
1835,1850,1840
1891,1845,1797
1914,1840,1824
1885,1843,1831
1792,1855,1931
1776,1857,1891
1853,1845,1806
1896,1875,1915
1838,1873,1931
1869,1843,1808
1987,1836,1788
1909,1872,1851
1789,1897,1950
1808,1842,1845
1852,1827,1799
1874,1854,1904
1841,1882,1888
1830,1835,1798
1889,1803,1687
1881,1868,1873
1847,1903,1905
1813,1861,1838
1847,1859,1809
1872,1879,1815
1885,1872,1882
1904,1811,1831
1901,1826,1826
1837,1861,1843
1810,1868,1903
1840,1841,1837
1872,1875,1830
1871,1883,1854
1873,1877,1828
1937,1843,1778
1873,1861,1806
1827,1872,1884
1838,1872,1923
1889,1826,1813
1883,1839,1820
1881,1887,1907
1833,1883,1855
1854,1841,1781
1889,1862,1823
1842,1893,1869
1837,1881,1882
1870,1837,1821
1922,1840,1791
1939,1889,1815
1867,1875,1862
1820,1841,1830
1841,1843,1851
1861,1890,1914
1863,1893,1914
1859,1847,1840
1895,1857,1783
1870,1859,1805
1858,1886,1895
1837,1860,1820
1854,1840,1802
1873,1863,1851
1861,1862,1870
1882,1824,1808
1827,1825,1785
1838,1870,1862
1870,1869,1900
1861,1842,1802
1837,1811,1798
1826,1846,1852
1811,1843,1872
1857,1814,1798
1849,1824,1798
1903,1888,1847
1813,1886,1857
1818,1839,1829
1803,1817,1778
1874,1849,1840
1841,1856,1874
1805,1839,1808
1871,1810,1744
1917,1834,1869
1807,1875,1918
1787,1843,1805
1847,1844,1803
1905,1863,1850
1877,1883,1863
1920,1853,1812
1860,1823,1763
1874,1857,1853
1857,1893,1895
1799,1854,1830
1873,1843,1798
1855,1867,1893
1855,1876,1920
1845,1867,1846
1895,1869,1808
1909,1879,1837
1840,1873,1861
1841,1861,1840
1940,1846,1794
1879,1870,1860
1833,1866,1870
1843,1823,1779
1952,1845,1808
1916,1893,1883
1798,1900,1909
1753,1860,1840
1840,1841,1786
1884,1872,1858
1871,1890,1906
1859,1872,1815
1882,1856,1787
1872,1891,1867
1882,1872,1835
1799,1854,1808
1872,1841,1846
1865,1887,1910
1921,1894,1891
1899,1845,1808
1830,1840,1798
1877,1879,1862
1794,1901,1904
1838,1841,1821
1907,1823,1807
1910,1851,1846
1827,1863,1867
1808,1852,1838
1883,1847,1808
1846,1872,1869
1899,1879,1923
1873,1847,1819
1911,1845,1771
1879,1856,1840
1860,1873,1913
1774,1840,1872
1818,1841,1821
1855,1879,1865
1835,1872,1893
1817,1834,1810
1840,1841,1803
1839,1855,1855
1867,1879,1895
1878,1857,1816
1874,1840,1815
1868,1861,1840
1817,1847,1829
1865,1840,1835
1904,1842,1842
1943,1868,1878
1829,1872,1885
1829,1808,1755
1858,1810,1799
1856,1872,1906
1802,1872,1917
1882,1834,1831
1887,1821,1780
1814,1838,1827
1712,1857,1892
1858,1830,1839
1901,1819,1808
1861,1861,1859
