1870,1841,1833
1843,1847,1857
1810,1856,1877
1830,1834,1865
1879,1849,1840
1872,1854,1877
1856,1845,1909
1821,1826,1824
1844,1850,1856
1834,1869,1867
1819,1846,1859
1901,1845,1786
1999,1839,1767
1836,1871,1878
1727,1871,1926
1782,1825,1838
1886,1835,1824
1899,1861,1866
1841,1839,1840
1813,1806,1811
1900,1831,1802
1843,1872,1872
1796,1872,1875
1841,1819,1802
1872,1825,1827
1877,1842,1823
1837,1867,1823
1827,1842,1809
1820,1843,1877
1859,1871,1891
1830,1853,1862
1824,1808,1842
1840,1831,1811
1820,1857,1859
1811,1840,1863
1857,1798,1773
1876,1818,1851
1855,1873,1942
1826,1862,1884
1824,1806,1774
1872,1837,1872
1875,1866,1864
1889,1858,1851
1789,1817,1809
1826,1838,1838
1834,1871,1899
1850,1853,1863
1818,1823,1790
1849,1825,1803
1867,1856,1850
1831,1837,1872
1840,1835,1796
1859,1856,1837
1863,1869,1859
1856,1860,1829
1845,1831,1815
1856,1837,1813
1857,1879,1909
1819,1849,1915
1841,1814,1797
1871,1819,1806
1883,1893,1877
1850,1884,1904
1808,1813,1792
1863,1842,1837
1890,1884,1847
1847,1868,1837
1819,1813,1803
1873,1818,1755
1876,1859,1823
1840,1877,1841
1787,1837,1829
1810,1834,1826
1845,1875,1885
1869,1863,1879
1875,1824,1823
1838,1846,1856
1856,1886,1899
1872,1843,1869
1883,1827,1776
1895,1840,1779
1834,1872,1915
1821,1856,1941
1904,1819,1760
1874,1840,1830
1798,1872,1910
1810,1888,1886
1861,1840,1803
1862,1828,1843
1872,1872,1894
1821,1885,1830
1830,1850,1834
1873,1845,1823
1869,1856,1885
1850,1872,1933
1901,1838,1761
1921,1840,1751
1786,1888,1878
1797,1862,1875
1859,1818,1841
1840,1837,1837
1855,1877,1893
1863,1886,1876
1851,1842,1790
1884,1861,1855
1890,1895,1898
1840,1872,1887
1810,1827,1758
1887,1837,1804
1872,1878,1890
1829,1870,1889
1865,1841,1821
1870,1843,1815
1816,1859,1872
1806,1857,1865
1841,1835,1794
1889,1847,1800
1884,1907,1892
1834,1850,1885
1830,1795,1809
1856,1825,1797
1835,1864,1860
1804,1865,1882
1809,1813,1826
1890,1821,1798
1915,1872,1865
1793,1858,1900
1792,1837,1809
1895,1834,1806
1931,1856,1898
1819,1857,1895
1807,1834,1823
1872,1841,1789
1880,1888,1903
1808,1857,1879
1847,1819,1776
1920,1825,1816
1891,1878,1902
1819,1871,1867
1782,1815,1789
1872,1821,1776
1875,1849,1846
1872,1840,1856
1865,1831,1808
1850,1852,1854
1851,1892,1904
1775,1870,1882
1782,1831,1793
1941,1850,1822
1890,1870,1887
1833,1850,1862
1883,1821,1782
1876,1842,1840
1787,1883,1905
1744,1857,1870
1776,1808,1775
1984,1840,1797
1937,1872,1853
1817,1872,1874
1790,1829,1821
1853,1840,1825
1893,1893,1902
1851,1889,1895
1899,1830,1792
1950,1849,1813
1839,1878,1884
1793,1873,1849
1855,1837,1808
1906,1831,1832
1895,1840,1851
1814,1879,1933
1840,1854,1853
1900,1841,1843
1923,1886,1873
1811,1873,1868
1803,1837,1803
1845,1842,1845
1862,1872,1904
1845,1854,1885
1865,1827,1794
1924,1857,1791
1939,1881,1867
1854,1868,1869
1799,1809,1811
1839,1843,1831
1857,1899,1931
1812,1883,1896
1873,1833,1807
1846,1830,1789
1870,1865,1866
1790,1865,1880
1871,1817,1821
1827,1840,1810
1872,1895,1869
1874,1878,1870
1869,1808,1795
1837,1826,1819
1814,1862,1900
1781,1872,1901
1851,1829,1780
1922,1840,1787
1895,1869,1854
1823,1867,1902
1796,1842,1845
1872,1853,1844
1846,1872,1867
1851,1870,1866
1841,1825,1776
1871,1839,1818
1861,1888,1903
1776,1863,1879
1824,1827,1818
1902,1830,1806
1890,1866,1861
1829,1873,1861
1915,1823,1801
1857,1825,1780
1809,1872,1891
1808,1856,1881
1898,1844,1830
1920,1839,1808
1851,1856,1867
1797,1875,1889
1831,1837,1803
1867,1839,1808
1835,1858,1844
1747,1840,1867
1802,1823,1805
1872,1851,1822
1872,1872,1903
1857,1868,1872
1894,1834,1800
1881,1851,1851
1859,1868,1919
1827,1866,1874
1863,1833,1793
1872,1815,1781
1879,1854,1872
1837,1871,1920
1835,1828,1813
1833,1844,1826
1862,1879,1898
1892,1855,1825
1861,1810,1750
1834,1829,1823
1867,1899,1934
1895,1867,1911
1915,1817,1809
1900,1843,1814
1865,1856,1845
1845,1839,1837
1868,1824,1819
1869,1840,1855
1878,1880,1903
1873,1869,1872
1953,1817,1791
1825,1825,1805
1815,1861,1873
1770,1853,1856
1809,1815,1782
1866,1834,1825
1851,1868,1905
1856,1853,1867
1825,1808,1782
1853,1828,1791
1873,1861,1871
1851,1849,1878
1838,1818,1817
1953,1833,1823
1889,1870,1878
1850,1870,1889
1840,1831,1806
1857,1837,1791
1843,1857,1867
1843,1858,1872
1909,1826,1793
1888,1807,1787
1809,1856,1868
1858,1872,1881
1846,1837,1812
1858,1830,1806
1923,1869,1885
1855,1856,1856
1859,1799,1778
1850,1829,1827
1840,1879,1885
1843,1839,1827
1941,1825,1795
1890,1855,1839
1837,1872,1899
1787,1848,1859
1810,1792,1756
1913,1828,1789
1874,1872,1886
1808,1883,1911
1817,1826,1819
1835,1821,1797
1878,1851,1870
1870,1872,1881
1912,1839,1776
1856,1846,1802
1872,1870,1875
1823,1855,1856
1840,1808,1765
1903,1835,1806
1856,1866,1869
1794,1865,1872
1808,1837,1813
1874,1844,1815
1877,1877,1903
1840,1862,1892
1872,1819,1799
1872,1825,1791
1856,1840,1856
1920,1857,1871
1890,1837,1826
1842,1828,1794
1813,1857,1875
1808,1857,1869
1868,1829,1775
1907,1850,1808
1850,1866,1881
1835,1856,1890
1883,1808,1785
1920,1824,1795
1838,1873,1872
1770,1883,1861
1808,1819,1787
1883,1837,1799
1935,1878,1877
1885,1861,1856
1843,1825,1824
1845,1847,1826
1829,1872,1862
1851,1870,1851
1843,1839,1811
1874,1851,1843
1887,1884,1891
1834,1867,1872
1809,1808,1776
1877,1840,1785
1902,1895,1895
1877,1872,1870
1916,1838,1775
1833,1840,1776
1811,1895,1893
1795,1882,1921
1829,1841,1829
1877,1851,1817
1901,1885,1874
1877,1875,1872
1839,1835,1803
1856,1859,1813
1872,1881,1876
1832,1870,1871
1835,1838,1809
1887,1884,1846
1875,1904,1902
1904,1886,1857
1856,1840,1802
1819,1849,1845
1820,1895,1911
1825,1884,1883
1830,1840,1802
1867,1858,1825
1888,1901,1888
1857,1872,1862
1836,1835,1795
1873,1860,1841
1872,1881,1895
1846,1876,1860
1870,1857,1807
1878,1844,1809
1883,1884,1895
1837,1861,1871
1781,1830,1806
1891,1839,1803
1883,1871,1894
1840,1862,1901
1855,1826,1810
1857,1851,1840
1846,1895,1908
1824,1871,1871
1837,1840,1797
1872,1855,1824
1922,1889,1875
1868,1873,1887
1895,1829,1786
1887,1829,1773
1831,1872,1895
1809,1888,1920
1870,1833,1804
1889,1854,1841
1837,1887,1897
1831,1874,1876
1883,1823,1807
1886,1840,1821
1854,1872,1897
1826,1872,1871
1836,1843,1811
1849,1857,1807
1872,1897,1895
1904,1868,1872
1907,1815,1765
1860,1850,1794
1822,1887,1909
1824,1873,1901
1851,1839,1799
1919,1851,1792
1891,1878,1875
1826,1883,1867
1849,1841,1806
1895,1840,1792
1864,1885,1870
1839,1874,1870
1843,1838,1807
1892,1849,1808
1872,1886,1883
1834,1881,1901
1836,1840,1812
1900,1851,1825
1906,1888,1889
1853,1877,1877
1825,1818,1741
1887,1835,1790
1920,1874,1888
1841,1872,1904
1879,1840,1791
1882,1827,1806
1850,1888,1903
1801,1885,1917
1830,1835,1814
1878,1839,1823
1867,1882,1876
1868,1871,1871
1872,1820,1807
1872,1837,1803
1920,1876,1882
1862,1885,1894
1830,1826,1799
1860,1838,1826
1889,1881,1911
1885,1872,1878
1872,1830,1765
1901,1853,1808
1842,1884,1903
1793,1870,1888
1827,1830,1808
1870,1835,1807
1883,1872,1888
1865,1882,1906
1859,1856,1831
1872,1854,1792
1910,1882,1874
1843,1840,1894
1835,1818,1796
1954,1808,1777
1870,1864,1867
1787,1884,1902
1823,1805,1811
1936,1870,1815
1898,1889,1879
1829,1861,1907
1807,1833,1791
1856,1827,1796
1870,1840,1900
1863,1875,1915
1871,1822,1808
1922,1843,1808
1883,1865,1884
1863,1872,1884
1859,1831,1808
1872,1846,1808
1904,1904,1861
1893,1869,1888
1902,1856,1827
1866,1842,1808
1829,1849,1840
1813,1876,1892
1808,1851,1839
1877,1865,1836
1887,1866,1903
1829,1870,1866
1839,1820,1798
1882,1836,1798
1959,1902,1869
1887,1874,1895
1827,1856,1817
1794,1840,1821
1827,1868,1905
1866,1888,1918
1882,1813,1810
1879,1850,1808
1823,1894,1887
1835,1873,1904
1872,1833,1815
1863,1819,1781
1845,1875,1878
1830,1872,1899
1839,1838,1827
1875,1841,1834
1897,1830,1872
1892,1886,1872
1856,1813,1800
1859,1794,1799
1869,1860,1882
1847,1819,1888
1858,1857,1815
1894,1832,1809
1843,1831,1909
1834,1836,1904
1889,1841,1795
1885,1854,1796
1883,1891,1881
1810,1894,1871
1825,1791,1765
1938,1832,1774
1873,1879,1935
1791,1889,1958
1804,1831,1811
1849,1823,1781
1867,1850,1861
1850,1859,1860
1845,1809,1783
1890,1851,1837
1894,1887,1941
1841,1868,1870
1839,1810,1763
1840,1878,1821
1851,1881,1888
1841,1882,1895
1863,1830,1821
1904,1840,1823
1910,1883,1878
1821,1884,1870
1810,1809,1777
1851,1835,1787
1904,1873,1890
1841,1870,1906
1812,1803,1777
1863,1868,1791
1894,1839,1894
1805,1847,1867
1792,1815,1765
1856,1841,1805
1845,1897,1900
1857,1901,1891
1909,1838,1772
1911,1873,1793
1862,1872,1877
1773,1851,1840
1776,1811,1767
1849,1836,1814
1883,1887,1893
1907,1871,1874
1865,1810,1789
1850,1839,1792
1863,1882,1861
1822,1875,1878
1821,1825,1799
1840,1840,1794
1889,1915,1859
1941,1917,1865
1863,1821,1798
1808,1827,1806
1831,1867,1874
1856,1790,1871
1863,1859,1809
1922,1861,1807
1867,1926,1891
1851,1899,1872
1846,1808,1785
1882,1823,1803
1904,1791,1856
1827,1856,1887
1808,1876,1797
1836,1901,1782
1844,1868,1868
1874,1841,1856
1834,1871,1813
1851,1919,1806
1845,1955,1901
1826,1870,1879
1883,1776,1780
1938,1847,1797
1902,1882,1893
1818,1889,1870
1806,1843,1776
1841,1874,1794
1841,1862,1858
1828,1884,1868
1869,1835,1803
1862,1840,1807
1840,1893,1887
1843,1905,1846
1843,1840,1765
1882,1843,1805
1866,1922,1914
1859,1872,1881
1822,1824,1789
1861,1840,1774
1904,1877,1863
1840,1886,1872
1808,1806,1802
1850,1797,1823
1842,1872,1883
1825,1852,1886
1862,1840,1797
1889,1856,1814
1889,1787,1873
1911,1791,1855
1849,1808,1782
1822,1761,1806
1799,1890,1899
1804,1872,1854
1862,1822,1776
1913,1838,1799
1914,1864,1877
1901,1869,1825
1781,1843,1801
1805,1867,1826
1846,1904,1922
1844,1879,1894
1855,1820,1799
1918,1842,1808
1908,1872,1869
1855,1885,1905
1810,1840,1788
1847,1831,1785
1865,1872,1872
1840,1874,1872
1846,1840,1809
1882,1851,1808
1869,1877,1872
1845,1872,1885
1891,1841,1782
1879,1839,1793
1871,1874,1874
1856,1885,1890
1835,1823,1801
1881,1849,1825
1916,1888,1885
1835,1874,1867
1867,1830,1786
1854,1842,1803
1839,1875,1899
1889,1879,1881
1842,1833,1779
1845,1841,1795
1842,1872,1858
1879,1875,1847
1890,1824,1779
1871,1849,1829
1865,1894,1917
1819,1872,1894
1814,1825,1788
1863,1837,1783
1875,1885,1850
1902,1872,1865
1877,1849,1812
1870,1840,1808
1837,1847,1870
1821,1867,1853
1846,1839,1765
1872,1867,1782
1849,1872,1869
1795,1872,1873
1830,1840,1801
1874,1853,1807
1881,1886,1872
1863,1859,1862
1819,1825,1761
1855,1843,1783
1902,1872,1840
1875,1868,1829
1807,1865,1815
1858,1872,1798
1857,1898,1902
1823,1874,1886
1851,1825,1769
1837,1836,1776
1846,1873,1877
1846,1869,1872
1863,1845,1801
1877,1839,1774
1859,1874,1876
1819,1865,1872
1808,1821,1775
1872,1840,1797
1874,1890,1872
1874,1873,1887
1841,1821,1775
1901,1833,1760
1890,1885,1840
1827,1913,1898
1853,1850,1827
1837,1831,1805
1840,1893,1904
1875,1889,1894
1841,1840,1791
1845,1838,1776
1843,1892,1895
1837,1889,1893
1845,1840,1787
1883,1840,1776
1935,1885,1843
1870,1871,1879
1834,1850,1823
1854,1857,1808
1840,1887,1865
1834,1875,1875
1830,1842,1808
1904,1847,1810
1862,1883,1874
1843,1873,1888
1834,1840,1809
1883,1854,1829
1852,1877,1865
1873,1887,1890
1869,1847,1807
1854,1830,1790
1872,1874,1862
1868,1858,1840
1842,1840,1790
1881,1846,1818
1904,1885,1873
1889,1874,1872
1825,1851,1820
1824,1857,1815
1838,1887,1884
1840,1872,1871
1856,1847,1807
1888,1854,1810
1856,1898,1877
1833,1883,1878
1861,1840,1808
1895,1851,1800
1862,1875,1873
1847,1869,1866
1871,1821,1781
1850,1829,1794
1842,1878,1891
1849,1877,1863
1900,1818,1748
1901,1825,1770
1840,1874,1904
1776,1882,1907
1796,1843,1808
1872,1849,1808
1883,1873,1877
1872,1871,1872
1882,1833,1791
1838,1835,1793
1826,1874,1919
1803,1871,1883
1828,1830,1790
1895,1843,1793
1911,1887,1860
1882,1867,1870
1856,1825,1809
1840,1827,1809
1861,1872,1872
1873,1844,1841
1822,1808,1793
1840,1818,1804
1869,1889,1899
1857,1890,1889
1847,1840,1746
1843,1847,1809
1872,1879,1862
1843,1870,1869
1838,1815,1755
1881,1835,1771
1861,1887,1831
1814,1867,1903
1822,1821,1840
1851,1840,1825
1895,1871,1839
1890,1889,1871
1864,1841,1791
1820,1833,1805
1826,1881,1891
1865,1857,1885
1842,1840,1790
1835,1850,1776
1813,1877,1858
1839,1872,1893
1863,1821,1776
1899,1831,1782
1931,1882,1880
1817,1861,1938
1825,1808,1813
1869,1840,1794
1898,1888,1894
1831,1873,1887
1807,1826,1805
1887,1824,1793
1831,1856,1872
1823,1869,1883
1830,1824,1819
1877,1832,1799
1865,1867,1882
1826,1874,1911
1862,1843,1783
1882,1840,1807
1833,1871,1897
1819,1872,1853
1811,1822,1776
1875,1792,1760
1934,1878,1893
1852,1890,1922
1855,1831,1767
1842,1842,1817
1811,1855,1886
1813,1846,1868
1828,1831,1807
1895,1835,1789
1904,1906,1876
1811,1857,1861
1830,1799,1774
1840,1818,1775
1830,1874,1930
1838,1868,1870
1806,1817,1779
1857,1829,1815
1871,1874,1870
1846,1872,1907
1834,1809,1765
1843,1827,1801
1869,1872,1910
1812,1856,1901
1798,1818,1805
1837,1821,1830
1872,1859,1890
1887,1868,1898
1854,1805,1767
1901,1820,1746
1889,1859,1837
1787,1857,1911
1741,1811,1806
1831,1831,1816
1876,1867,1877
1851,1871,1894
1821,1819,1821
1857,1819,1820
1904,1873,1911
1821,1871,1890
1787,1819,1777
1849,1828,1807
1865,1858,1891
1855,1861,1894
1819,1798,1798
1886,1827,1815
1859,1872,1866
1802,1851,1889
1799,1808,1840
1858,1840,1825
1875,1873,1904
1829,1872,1878
1856,1840,1824
1889,1847,1829
1842,1865,1878
1813,1862,1899
1826,1813,1803
1855,1811,1786
1889,1871,1855
1839,1888,1913
1807,1835,1803
1813,1825,1824
1859,1872,1907
1842,1856,1876
1835,1815,1808
1850,1840,1831
1952,1887,1890
1865,1866,1863
1789,1799,1799
1829,1826,1854
1850,1870,1884
1863,1862,1856
1814,1810,1776
1870,1831,1792
1836,1879,1937
1836,1871,1931
1786,1836,1856
1824,1825,1771
1853,1861,1862
1841,1872,1870
1819,1820,1805
1887,1819,1801
1877,1873,1897
1854,1876,1909
1867,1810,1808
1876,1796,1797
1829,1870,1903
1780,1846,1889
1769,1797,1783
1834,1808,1826
1878,1855,1873
1841,1856,1933
1837,1833,1818
1887,1836,1815
1850,1845,1833
1829,1873,1937
1790,1803,1798
1846,1798,1731
1857,1851,1889
1850,1862,1920
1829,1819,1814
1873,1837,1776
1920,1844,1839
1807,1854,1880
1809,1826,1769
1872,1829,1780
1844,1847,1828
1811,1838,1803
1829,1840,1823
1810,1853,1889
1845,1874,1946
1860,1852,1834
1916,1810,1763
1813,1814,1805
1820,1874,1975
1845,1856,1886
1854,1779,1787
1929,1817,1664
1920,1871,1889
1747,1859,1936
1787,1821,1875
1904,1796,1791
1847,1840,1893
1886,1843,1890
1838,1787,1791
1895,1831,1799
1846,1857,1899
1776,1827,1904
1846,1789,1767
1948,1810,1743
1841,1840,1882
1806,1818,1897
1831,1780,1781
1877,1824,1798
1837,1825,1824
1776,1835,1855
1865,1810,1812
1885,1805,1818
1822,1872,1943
1811,1823,1838
1871,1789,1803
1839,1790,1835
1821,1840,1906
1815,1819,1861
1916,1776,1723
1878,1803,1796
1790,1824,1891
1796,1834,1911
1870,1808,1847
1866,1786,1792
1814,1811,1844
1803,1824,1869
1905,1747,1745
1974,1782,1766
1899,1856,1913
1789,1844,1914
1765,1774,1759
1776,1754,1755
1847,1837,1903
1843,1847,1931
1867,1773,1819
1861,1799,1809
1824,1840,1873
1839,1795,1850
1853,1765,1790
1838,1777,1824
1840,1799,1861
1841,1853,1895
1878,1780,1769
1872,1798,1801
1793,1814,1840
1843,1831,1904
1794,1762,1840
1776,1767,1749
1863,1825,1841
1931,1840,1934
1808,1777,1799
1837,1787,1793
1840,1827,1907
1904,1796,1846
1802,1803,1829
1790,1759,1803
1805,1831,1892
1877,1842,1879
1840,1793,1808
1919,1782,1774
1875,1818,1859
1806,1823,1889
1775,1808,1813
1847,1796,1783
1904,1814,1843
1861,1823,1840
1832,1788,1830
1810,1782,1839
1799,1826,1886
1819,1839,1859
1806,1786,1786
1846,1781,1793
1821,1826,1892
1822,1818,1931
1809,1797,1818
1901,1793,1776
1936,1840,1823
1856,1823,1827
1803,1772,1780
1742,1783,1833
1747,1821,1872
1871,1821,1875
1826,1779,1803
1911,1819,1827
1799,1838,1866
1835,1815,1828
1825,1806,1814
1805,1813,1852
1886,1835,1881
1805,1837,1856
1889,1808,1780
1882,1808,1783
1856,1840,1887
1808,1845,1861
1799,1802,1775
1874,1815,1809
1935,1842,1869
1835,1847,1841
1792,1810,1792
1813,1805,1831
1759,1836,1874
1797,1859,1878
1779,1811,1811
1842,1830,1808
1871,1856,1883
1888,1840,1843
1846,1809,1776
1843,1837,1821
1837,1861,1900
1872,1856,1881
1888,1798,1737
1856,1808,1767
1811,1856,1921
1807,1867,1923
1811,1814,1783
1920,1803,1763
1897,1870,1891
1966,1859,1921
1806,1825,1820
1841,1835,1766
1794,1858,1858
1868,1847,1868
1989,1812,1808
1871,1823,1802
1911,1856,1873
1872,1856,1877
1830,1831,1818
1835,1821,1797
1870,1840,1872
1931,1872,1899
1821,1831,1845
1820,1819,1797
1855,1872,1891
1865,1872,1904
1878,1816,1763
1902,1840,1825
1863,1865,1894
1803,1837,1848
1808,1827,1802
1929,1851,1826
1879,1861,1902
1981,1840,1858
1834,1779,1745
1850,1830,1808
1886,1875,1920
1939,1881,1953
1828,1851,1844
1925,1830,1813
1946,1874,1879
1899,1861,1883
1835,1811,1792
1815,1833,1785
1878,1894,1914
1879,1887,1919
1923,1839,1790
1950,1807,1763
1853,1847,1847
1802,1873,1886
1897,1842,1857
1969,1845,1827
1877,1856,1889
1789,1886,1888
1808,1837,1819
1887,1823,1809
1979,1858,1861
1877,1874,1900
1838,1822,1802
1916,1839,1808
1972,1865,1878
1840,1856,1895
1853,1819,1801
1854,1831,1790
1840,1904,1918
1825,1851,1872
1939,1785,1755
1855,1838,1805
1838,1891,1925
1850,1871,1899
1893,1825,1809
1926,1840,1811
1930,1860,1843
1872,1849,1859
1792,1819,1826
1863,1808,1808
1949,1871,1883
1936,1856,1870
1776,1808,1793
1845,1840,1837
1870,1888,1909
1885,1856,1842
1881,1820,1793
1893,1846,1823
1918,1875,1856
1899,1872,1863
1863,1803,1760
1825,1826,1805
1899,1895,1933
1842,1870,1904
1897,1825,1770
1920,1796,1776
1840,1840,1831
1834,1887,1840
1829,1850,1837
1904,1851,1813
1840,1859,1876
1818,1871,1922
1856,1830,1844
1889,1830,1811
1872,1842,1841
1870,1850,1859
1858,1840,1748
1869,1872,1826
1905,1902,1921
1859,1895,1890
1836,1830,1789
1894,1841,1788
1951,1873,1913
1869,1884,1844
1787,1839,1776
1855,1824,1823
1870,1838,1921
1870,1887,1872
1873,1836,1822
1845,1853,1867
1853,1904,1913
1877,1887,1872
1842,1828,1769
1831,1849,1821
1862,1886,1904
1874,1872,1899
1972,1833,1851
1950,1846,1815
1872,1858,1808
1767,1883,1897
1774,1855,1830
1868,1870,1834
1871,1871,1854
1842,1863,1808
1907,1825,1795
1869,1845,1838
1862,1898,1895
1893,1878,1885
1837,1809,1808
1872,1835,1789
1919,1871,1849
1898,1856,1938
1815,1823,1872
1811,1841,1817
1819,1831,1818
1893,1838,1838
1904,1808,1765
1936,1826,1814
1860,1867,1908
1794,1848,1906
1817,1799,1830
1873,1809,1818
1922,1876,1904
1883,1856,1887
1842,1799,1792
1872,1795,1776
1954,1845,1851
1923,1859,1843
1797,1808,1806
1826,1803,1792
1898,1858,1901
1871,1829,1842
1835,1811,1803
1859,1822,1805
1908,1879,1904
1854,1862,1906
1801,1803,1781
1886,1808,1797
1866,1849,1877
1840,1862,1904
1866,1807,1807
1883,1815,1802
1917,1872,1853
1855,1851,1850
1802,1807,1809
1934,1803,1823
1934,1850,1859
1803,1865,1873
1782,1803,1842
1862,1837,1836
1900,1867,1879
1904,1859,1841
1855,1807,1811
1887,1799,1831
1842,1840,1891
1879,1867,1908
1839,1803,1820
1936,1811,1809
1939,1861,1844
1815,1840,1856
1792,1791,1795
1857,1841,1840
1895,1886,1906
1865,1856,1888
1836,1797,1791
1859,1814,1790
1875,1841,1844
1857,1854,1902
1839,1822,1811
1862,1815,1809
1879,1856,1920
1904,1854,1907
1971,1809,1793
1904,1807,1774
1856,1849,1872
1753,1856,1907
1776,1808,1839
1878,1819,1815
1920,1855,1851
1883,1872,1903
1857,1813,1833
1874,1808,1793
1859,1861,1895
1821,1868,1927
1811,1823,1835
1906,1848,1808
1938,1883,1879
1904,1856,1862
1823,1799,1806
1832,1811,1813
1909,1872,1899
1883,1872,1904
1854,1820,1823
1901,1806,1804
1879,1859,1879
1836,1864,1862
1808,1820,1822
1870,1827,1829
1888,1887,1885
1926,1859,1856
1861,1827,1823
1843,1827,1829
1859,1869,1907
1870,1879,1911
1902,1824,1818
1875,1801,1776
1878,1891,1847
1875,1871,1907
1856,1823,1829
1901,1862,1830
1872,1884,1905
1874,1845,1893
1850,1799,1822
1878,1840,1817
1907,1875,1870
1898,1889,1905
1856,1825,1834
1831,1790,1791
1867,1907,1870
1869,1879,1885
1882,1803,1815
1851,1854,1822
1875,1854,1906
1921,1871,1903
1888,1792,1834
1866,1799,1827
1863,1923,1874
1855,1839,1872
1813,1790,1808
1883,1840,1824
1894,1875,1890
1837,1884,1904
1807,1807,1791
1875,1814,1762
1936,1870,1911
1903,1873,1913
1850,1799,1793
1814,1818,1803
1813,1882,1904
1837,1856,1903
1890,1761,1795
1899,1838,1783
1886,1829,1878
1844,1852,1876
1785,1826,1813
1857,1820,1807
1904,1853,1885
1861,1867,1890
1825,1813,1819
1855,1823,1807
1871,1852,1871
1924,1883,1893
1885,1795,1823
1827,1808,1815
1808,1842,1845
1830,1887,1871
1834,1808,1785
1863,1811,1797
1897,1865,1876
1906,1877,1878
1873,1858,1794
1840,1811,1774
1832,1895,1869
1853,1831,1887
1915,1867,1796
1862,1841,1814
1840,1808,1862
1858,1825,1893
1869,1822,1839
1886,1857,1827
1877,1923,1904
1823,1887,1889
1862,1858,1808
1909,1870,1815
1918,1873,1854
1883,1839,1880
1850,1822,1818
1836,1840,1795
1847,1862,1873
1899,1841,1891
1883,1805,1776
1828,1858,1803
1830,1891,1917
1876,1872,1901
1822,1851,1794
1882,1838,1781
1903,1868,1850
1827,1862,1874
1823,1837,1838
1869,1834,1798
1970,1855,1837
1895,1872,1879
1759,1841,1850
1811,1838,1827
1867,1883,1908
1838,1845,1836
1827,1830,1797
1893,1798,1815
1891,1888,1903
1857,1871,1853
1816,1803,1759
1830,1758,1785
1882,1874,1876
1947,1885,1888
1866,1813,1778
1887,1837,1797
1872,1855,1930
1820,1946,1873
1787,1853,1810
1959,1856,1837
1856,1840,1842
1794,1861,1884
1809,1809,1771
1872,1840,1810
1861,1871,1894
1838,1875,1905
1904,1826,1793
1922,1840,1802
1859,1860,1856
1856,1906,1904
1885,1822,1777
1898,1841,1819
1813,1808,1851
1806,1837,1877
1869,1862,1802
1867,1836,1835
1813,1905,1840
1819,1823,1843
1862,1788,1792
1851,1811,1799
1856,1826,1904
1892,1919,1869
1824,1837,1808
1806,1840,1757
1846,1872,1835
1904,1847,1893
1894,1808,1813
1809,1813,1783
1855,1877,1869
1939,1903,1920
1838,1755,1834
1817,1825,1797
1819,1863,1831
1931,1891,1862
1872,1843,1809
1817,1831,1799
1853,1855,1861
1925,1863,1875
1851,1813,1829
1843,1805,1769
1856,1863,1847
1808,1850,1886
1821,1739,1806
1884,1797,1789
1920,1803,1865
1871,1811,1855
1811,1795,1791
1878,1794,1775
1900,1858,1831
1891,1811,1840
1824,1728,1754
1869,1747,1747
1872,1825,1845
1840,1808,1872
1823,1801,1808
1886,1767,1791
1891,1682,1823
1931,1795,1779
1856,1728,1788
1817,1775,1787
1840,1792,1839
1943,1787,1851
1870,1751,1759
1841,1734,1738
1872,1841,1857
1868,1804,1842
1819,1747,1762
1857,1743,1764
1846,1772,1757
1889,1783,1835
1811,1744,1811
1845,1776,1815
1906,1820,1829
1922,1795,1844
1853,1748,1782
1834,1742,1774
1855,1771,1798
1872,1819,1876
1858,1794,1818
1842,1776,1802
1856,1803,1862
1855,1799,1857
1872,1776,1776
1875,1773,1768
1870,1793,1797
1885,1815,1882
1888,1791,1788
1872,1792,1776
1856,1840,1899
1871,1846,1906
1856,1773,1781
1902,1776,1757
1870,1834,1872
1838,1812,1883
1839,1793,1825
1867,1801,1791
1873,1809,1840
1914,1827,1857
1862,1792,1806
1875,1796,1818
1893,1841,1864
1841,1845,1890
1840,1806,1808
1936,1811,1781
1903,1838,1844
1886,1816,1887
1819,1795,1833
1851,1802,1838
1911,1841,1904
1871,1872,1892
1838,1798,1782
1890,1795,1770
1897,1857,1872
1833,1869,1871
1856,1819,1818
1929,1789,1785
1909,1847,1901
1810,1856,1899
1813,1814,1813
1881,1806,1799
1899,1851,1850
1863,1860,1881
1872,1811,1808
1877,1840,1853
1859,1858,1904
1843,1876,1877
1841,1831,1789
1902,1840,1809
1886,1869,1903
1877,1856,1894
1925,1847,1856
1843,1815,1808
1825,1835,1854
1844,1856,1867
1910,1813,1792
1869,1839,1839
1851,1862,1923
1867,1850,1891
1885,1811,1776
1895,1823,1768
1865,1859,1911
1819,1858,1947
1840,1814,1825
1934,1815,1778
1869,1873,1898
1806,1867,1894
1833,1821,1827
1869,1821,1823
1867,1859,1845
1911,1887,1899
1877,1825,1828
1854,1819,1826
1888,1856,1884
1882,1858,1887
1872,1837,1815
1830,1844,1825
1840,1855,1877
1851,1872,1886
1888,1838,1808
1934,1835,1776
1887,1881,1878
1825,1885,1906
1792,1833,1821
1867,1826,1788
1953,1882,1857
1849,1899,1917
1815,1837,1846
1828,1809,1821
1861,1869,1873
1908,1877,1889
1847,1842,1808
1835,1843,1799
1875,1886,1889
1895,1880,1894
1854,1827,1793
1862,1849,1797
1872,1875,1872
1856,1904,1920
1811,1825,1815
1833,1821,1781
1853,1878,1881
1857,1894,1867
1871,1823,1798
1891,1837,1828
1859,1876,1904
1799,1884,1895
1794,1834,1787
1845,1840,1797
1872,1875,1878
1855,1872,1904
1857,1840,1814
1951,1866,1809
1939,1911,1873
1871,1910,1904
1820,1823,1775
1828,1817,1762
1847,1878,1846
1872,1887,1913
1847,1851,1831
1863,1871,1840
1857,1891,1872
1803,1889,1899
1826,1846,1808
1903,1854,1781
1853,1891,1855
1833,1901,1907
1849,1862,1824
1919,1862,1808
1895,1902,1891
1827,1886,1910
1779,1837,1804
1830,1834,1753
1851,1891,1854
1867,1918,1867
1837,1859,1808
1855,1837,1825
1863,1883,1850
1855,1901,1902
1825,1845,1807
1888,1847,1818
1904,1904,1909
1872,1899,1898
1825,1871,1788
1874,1867,1764
