1849,1841,1867
1872,1791,1779
1863,1808,1808
1860,1895,1920
1865,1796,1863
1846,1895,1763
1869,1851,1815
1874,1815,1904
1837,1802,1884
1837,1808,1805
1839,1836,1811
1853,1927,1883
1826,1845,1869
1833,1793,1794
1886,1836,1807
1938,1821,1904
1828,1847,1889
1799,1797,1773
1883,1817,1802
1933,1841,1904
1801,1817,1843
1759,1808,1792
1815,1819,1814
1873,1845,1897
1879,1839,1885
1861,1779,1788
1845,1797,1792
1851,1799,1892
1824,1786,1923
1826,1797,1808
1872,1786,1766
1872,1815,1855
1885,1889,1894
1842,1792,1809
1855,1833,1804
1856,1873,1918
1850,1859,1931
1810,1778,1787
1821,1866,1773
1879,1846,1878
1872,1808,1909
1846,1785,1791
1955,1855,1783
1845,1868,1882
1792,1877,1903
1799,1808,1776
1862,1793,1803
1856,1870,1904
1836,1828,1889
1826,1803,1825
1867,1810,1798
1881,1950,1886
1851,1831,1863
1829,1776,1789
1840,1770,1824
1874,1823,1930
1865,1895,1897
1854,1776,1741
1828,1808,1806
1853,1872,1936
1872,1786,1905
1854,1789,1747
1862,1797,1772
1872,1851,1897
1846,1855,1926
1837,1783,1795
1841,1834,1803
1840,1822,1890
1840,1933,1875
1857,1763,1769
1889,1796,1776
1883,1865,1909
1855,1860,1895
1844,1875,1776
1879,1891,1810
1833,1932,1919
1813,1840,1910
1838,1807,1787
1873,1821,1809
1879,1819,1921
1809,1855,1909
1808,1810,1787
1842,1808,1773
1863,1870,1883
1843,1865,1909
1840,1809,1807
1882,1808,1808
1839,1882,1915
1844,1879,1920
1824,1805,1790
1863,1822,1802
1887,1870,1877
1841,1846,1888
1807,1807,1790
1828,1826,1803
1837,1868,1891
1850,1835,1873
1860,1803,1796
1871,1821,1789
1828,1861,1874
1840,1865,1889
1840,1824,1807
1855,1853,1834
1856,1883,1894
1826,1872,1883
1835,1821,1782
1868,1808,1784
1875,1870,1899
1841,1872,1903
1825,1823,1792
1857,1838,1809
1884,1892,1899
1875,1847,1872
1862,1791,1744
1899,1812,1776
1872,1883,1933
1837,1859,1894
1815,1795,1786
1858,1820,1810
1860,1872,1889
1837,1859,1893
1837,1808,1779
1933,1846,1760
1867,1886,1899
1775,1851,1927
1790,1801,1824
1843,1819,1824
1870,1847,1891
1874,1861,1881
1905,1808,1742
1875,1807,1770
1830,1871,1936
1809,1883,1910
1831,1814,1807
1897,1830,1823
1942,1867,1911
1847,1846,1870
1813,1798,1793
1866,1794,1780
1872,1851,1899
1843,1837,1904
1823,1782,1787
1861,1810,1790
1899,1861,1894
1895,1840,1840
1836,1797,1765
1826,1822,1818
1843,1858,1920
1839,1853,1911
1819,1802,1766
1873,1812,1802
1884,1840,1855
1844,1842,1853
1882,1823,1792
1868,1806,1814
1867,1847,1905
1872,1830,1872
1845,1754,1709
1827,1802,1822
1818,1856,1941
1835,1840,1872
1857,1802,1764
1868,1806,1791
1856,1849,1909
1855,1830,1870
1853,1775,1771
1866,1791,1801
1877,1855,1906
1849,1839,1899
1851,1792,1773
1861,1819,1786
1846,1845,1891
1856,1840,1902
1837,1793,1802
1879,1795,1808
1872,1840,1886
1890,1857,1890
1873,1807,1808
1852,1835,1794
1879,1844,1845
1829,1817,1824
1799,1793,1808
1857,1809,1835
1871,1854,1904
1863,1839,1869
1873,1776,1747
1868,1807,1817
1871,1862,1914
1864,1866,1910
1819,1799,1798
1852,1797,1797
1899,1856,1861
1890,1861,1877
1823,1818,1805
1857,1793,1801
1872,1845,1901
1853,1839,1872
1838,1793,1779
1858,1797,1819
1849,1871,1901
1872,1843,1838
1850,1791,1754
1883,1829,1841
1883,1869,1905
1812,1847,1867
1808,1786,1773
1860,1791,1779
1904,1843,1873
1860,1847,1872
1857,1808,1779
1847,1815,1792
1838,1853,1894
1804,1845,1865
1852,1797,1733
1843,1818,1776
1826,1867,1905
1810,1843,1899
1851,1791,1787
1870,1811,1777
1941,1843,1852
1874,1835,1866
1742,1798,1787
1808,1825,1819
1859,1860,1893
1831,1843,1890
1840,1792,1775
1829,1805,1771
1833,1857,1863
1885,1853,1843
1910,1799,1751
1866,1824,1786
1834,1867,1904
1837,1867,1910
1826,1811,1822
1835,1811,1835
1920,1859,1910
1876,1851,1878
1804,1809,1766
1808,1812,1814
1836,1856,1893
1830,1835,1893
1841,1809,1731
1856,1822,1782
1863,1878,1921
1835,1855,1893
1817,1808,1786
1903,1826,1849
1911,1871,1898
1851,1853,1866
1814,1829,1792
1856,1807,1797
1895,1846,1899
1825,1840,1883
1815,1819,1802
1843,1840,1803
1854,1874,1899
1841,1850,1862
1904,1815,1735
1908,1837,1779
1895,1879,1890
1799,1859,1931
1785,1810,1826
1851,1835,1808
1910,1874,1871
1877,1868,1844
1863,1826,1791
1865,1811,1766
1835,1878,1905
1817,1873,1926
1820,1813,1790
1905,1841,1814
1882,1886,1914
1821,1872,1888
1862,1825,1760
1875,1841,1778
1866,1890,1891
1845,1862,1900
1830,1830,1794
1866,1849,1803
1871,1884,1873
1839,1870,1858
1830,1863,1827
1856,1872,1811
1875,1876,1887
1842,1844,1904
1846,1827,1825
1862,1856,1749
1872,1879,1841
1872,1863,1842
1840,1837,1797
1878,1858,1830
1862,1895,1872
1811,1881,1888
1822,1834,1775
1909,1867,1782
1904,1914,1872
1815,1874,1904
1801,1839,1840
1845,1836,1811
1881,1879,1952
1902,1875,1890
1872,1818,1770
1835,1839,1792
1875,1891,1925
1851,1872,1879
1802,1840,1825
1844,1862,1835
1871,1894,1925
1888,1887,1902
1841,1837,1777
1875,1853,1776
1839,1878,1914
1827,1863,1920
1840,1826,1814
1894,1829,1771
1920,1872,1851
1822,1891,1894
1792,1838,1799
1856,1843,1821
1883,1881,1913
1875,1890,1902
1857,1827,1782
1852,1842,1807
1853,1878,1901
1859,1878,1893
1830,1837,1871
1881,1840,1808
1886,1871,1940
1898,1870,1904
1842,1807,1671
1843,1835,1840
1869,1904,1920
1860,1872,1884
1842,1819,1779
1863,1840,1793
1858,1883,1919
1835,1851,1886
1802,1811,1769
1890,1841,1807
1899,1896,1917
1862,1872,1911
1840,1830,1754
1845,1823,1770
1876,1858,1888
1862,1855,1894
1840,1842,1783
1902,1855,1861
1884,1892,1968
1854,1867,1839
1840,1821,1802
1886,1825,1795
1889,1873,1909
1813,1872,1872
1810,1830,1808
1872,1835,1904
1883,1880,1920
1833,1873,1846
1856,1836,1805
1875,1842,1841
1899,1883,1907
1827,1866,1837
1836,1840,1802
1910,1858,1759
1970,1899,1898
1839,1851,1871
1792,1820,1794
1859,1847,1783
1882,1890,1870
1847,1866,1835
1824,1836,1808
1866,1839,1813
1856,1889,1916
1826,1891,1958
1835,1839,1802
1934,1843,1802
1917,1865,1875
1825,1882,1877
1811,1833,1809
1887,1862,1847
1883,1879,1941
1840,1859,1907
1825,1839,1773
1853,1865,1829
1889,1899,1967
1855,1888,1914
1815,1822,1791
1877,1822,1787
1944,1881,1872
1915,1882,1841
1811,1825,1901
1814,1858,1837
1861,1899,1922
1861,1886,1893
1830,1841,1794
1837,1842,1830
1841,1859,1914
1839,1888,1888
1835,1843,1808
1852,1851,1821
1892,1872,1909
1895,1857,1872
1811,1816,1754
1835,1847,1804
1856,1893,1898
1884,1872,1920
1842,1828,1818
1873,1840,1807
1809,1871,1872
1827,1853,1879
1821,1831,1791
1839,1840,1827
1872,1871,1910
1856,1872,1878
1834,1826,1766
1830,1836,1822
1831,1846,1914
1857,1866,1879
1872,1790,1783
1862,1843,1818
1850,1866,1908
1831,1839,1903
1871,1822,1744
1876,1840,1808
1840,1883,1904
1852,1861,1893
1872,1806,1797
1872,1834,1813
1856,1883,1891
1829,1872,1882
1837,1813,1831
1821,1827,1815
1853,1872,1904
1914,1855,1887
1859,1819,1786
1869,1841,1791
1857,1868,1904
1840,1873,1872
1851,1797,1797
1936,1808,1833
1873,1847,1905
1859,1855,1889
1776,1789,1767
1822,1815,1839
1906,1856,1892
1818,1840,1845
1830,1812,1777
1871,1840,1808
1941,1854,1878
1872,1825,1873
1793,1790,1784
1842,1820,1809
1895,1867,1940
1901,1838,1865
1772,1790,1760
1860,1818,1835
1867,1845,1904
1808,1831,1827
1835,1780,1773
1857,1787,1827
1860,1856,1927
1868,1866,1898
1856,1810,1779
1828,1787,1814
1840,1866,1885
1867,1849,1870
1872,1792,1789
1881,1785,1793
1853,1831,1884
1875,1839,1906
1809,1801,1786
1910,1818,1791
1876,1842,1893
1807,1825,1899
1783,1794,1810
1869,1808,1808
1849,1830,1900
1801,1831,1883
1841,1821,1773
1860,1814,1809
1844,1846,1882
1920,1827,1858
1859,1753,1739
1808,1780,1811
1871,1860,1935
1859,1845,1891
1856,1795,1791
1862,1823,1830
1818,1858,1911
1809,1843,1870
1756,1776,1751
1847,1791,1797
1904,1857,1910
1845,1856,1890
1880,1809,1760
1831,1803,1793
1805,1863,1920
1870,1851,1911
1889,1821,1765
1922,1808,1788
1807,1841,1907
1791,1830,1911
1791,1808,1814
1842,1830,1803
1890,1857,1885
1882,1835,1856
1854,1782,1761
1898,1821,1811
1855,1869,1920
1818,1840,1893
1807,1779,1771
1853,1787,1785
1840,1861,1893
1853,1872,1889
1712,1792,1753
1751,1808,1798
1941,1855,1890
1758,1832,1844
1774,1774,1753
1853,1807,1795
1905,1856,1893
1834,1826,1885
1857,1765,1803
1835,1791,1806
1869,1858,1879
1838,1845,1878
1805,1802,1804
1840,1810,1776
1837,1840,1872
1808,1830,1879
1788,1796,1782
1828,1801,1793
1834,1843,1882
1806,1836,1878
1872,1782,1749
1808,1798,1797
1843,1839,1878
1750,1823,1869
1798,1765,1767
1775,1787,1783
1855,1849,1872
1851,1819,1849
1841,1787,1817
1874,1778,1810
1865,1855,1890
1827,1827,1856
1818,1777,1755
1831,1795,1801
1863,1830,1931
1823,1835,1902
1866,1790,1787
1857,1814,1802
1901,1862,1873
1856,1811,1808
1809,1781,1792
1838,1792,1810
1858,1843,1895
1845,1838,1872
1818,1778,1759
1869,1805,1813
1938,1858,1918
1857,1838,1895
1840,1783,1784
1872,1797,1785
1915,1842,1851
1808,1818,1860
1788,1777,1763
1853,1796,1815
1831,1851,1936
1732,1845,1910
1840,1809,1802
1930,1826,1799
1866,1840,1860
1860,1840,1856
1842,1787,1787
1788,1798,1822
1829,1843,1904
1833,1840,1883
1842,1805,1791
1941,1815,1778
1885,1852,1868
1782,1833,1847
1846,1808,1750
1873,1833,1823
1845,1847,1904
1755,1834,1882
1914,1796,1777
1860,1821,1809
1884,1856,1883
1879,1859,1891
1871,1805,1760
1840,1805,1776
1834,1845,1888
1792,1840,1901
1821,1799,1803
1915,1837,1791
1878,1847,1856
1821,1843,1902
1793,1805,1805
1874,1840,1808
1935,1856,1846
1874,1840,1876
1794,1792,1795
1811,1835,1859
1843,1867,1935
1866,1867,1904
1870,1818,1789
1862,1809,1791
1850,1869,1899
1817,1840,1861
1808,1819,1791
1887,1836,1840
1877,1872,1897
1883,1850,1855
1842,1793,1763
1873,1826,1813
1906,1872,1895
1862,1872,1921
1801,1808,1803
1839,1827,1807
1904,1872,1897
1825,1867,1885
1834,1825,1792
1895,1835,1825
1855,1875,1906
1838,1860,1895
1857,1810,1798
1871,1845,1809
1852,1893,1904
1840,1876,1900
1849,1834,1790
1897,1848,1788
1902,1874,1904
1936,1887,1881
1866,1820,1775
1886,1849,1843
1846,1887,1939
1831,1859,1902
1859,1810,1788
1922,1840,1809
1885,1877,1917
1909,1878,1905
1901,1808,1798
1802,1811,1793
1879,1890,1934
1889,1904,1915
1857,1822,1786
1877,1827,1810
1963,1866,1914
1863,1872,1921
1823,1837,1808
1893,1857,1824
1922,1891,1932
1818,1845,1883
1799,1806,1776
1859,1854,1843
1911,1901,1943
1906,1894,1911
1861,1808,1765
1874,1824,1790
1920,1861,1873
1879,1858,1907
1808,1821,1823
1843,1821,1835
1877,1878,1922
1886,1885,1894
1919,1831,1732
1957,1860,1805
1922,1883,1920
1846,1847,1894
1824,1826,1799
1814,1839,1810
1840,1872,1913
1852,1854,1888
1911,1813,1803
1922,1829,1797
1873,1865,1904
1840,1894,1898
1889,1842,1807
1883,1840,1809
1853,1884,1930
1824,1867,1893
1842,1827,1791
1907,1840,1821
1894,1894,1890
1815,1853,1858
1831,1806,1777
1895,1835,1777
1885,1882,1897
1811,1865,1861
1857,1812,1761
1903,1839,1792
1936,1908,1931
1885,1908,1899
1829,1811,1776
1922,1823,1774
1883,1859,1889
1782,1842,1898
1784,1844,1798
1888,1875,1834
1978,1913,1950
1794,1866,1888
1790,1812,1761
1821,1835,1778
1839,1877,1884
1841,1870,1872
1885,1828,1790
1904,1840,1813
1853,1897,1937
1850,1886,1904
1822,1830,1773
1863,1835,1804
1950,1894,1937
1905,1851,1887
1784,1794,1744
1818,1850,1802
1834,1892,1884
1839,1872,1899
1831,1813,1797
1915,1830,1798
1905,1891,1923
1845,1880,1919
1837,1827,1811
1834,1837,1795
1968,1891,1872
1827,1855,1876
1762,1808,1799
1824,1834,1808
1884,1890,1881
1876,1872,1879
1886,1808,1747
1894,1833,1797
1828,1875,1943
1839,1855,1883
1887,1825,1776
1859,1856,1834
1900,1891,1903
1885,1867,1870
1810,1824,1808
1827,1840,1823
1875,1823,1914
1835,1870,1876
1840,1854,1767
1904,1854,1808
1920,1931,1909
1849,1901,1889
1777,1827,1808
1834,1791,1795
1875,1905,1904
1873,1858,1872
1841,1803,1806
1838,1862,1867
1853,1939,1921
1904,1869,1887
1863,1820,1759
1903,1873,1840
1893,1934,1918
1823,1808,1886
1814,1839,1791
1861,1860,1820
1878,1873,1894
1888,1865,1861
1831,1866,1779
1847,1859,1824
1913,1915,1903
1823,1842,1886
1831,1858,1817
1906,1843,1825
1938,1875,1890
1843,1876,1863
1877,1808,1799
1837,1763,1778
1834,1891,1884
1899,1962,1927
1830,1829,1779
1826,1846,1811
1857,1894,1926
1874,1858,1900
1852,1836,1789
1856,1840,1780
1853,1873,1904
1854,1872,1886
1884,1820,1763
1840,1819,1805
1859,1904,1919
1837,1844,1872
1834,1808,1783
1846,1846,1807
1841,1871,1923
1835,1858,1913
1840,1828,1787
1871,1842,1803
1933,1881,1875
1833,1835,1868
1789,1767,1808
1840,1821,1845
1862,1869,1904
1838,1842,1870
1826,1776,1777
1834,1835,1768
1870,1899,1835
1920,1899,1867
1840,1839,1825
1850,1833,1818
1871,1870,1872
1843,1837,1856
1828,1828,1775
1853,1891,1792
1905,1887,1870
1862,1855,1815
1755,1837,1763
1805,1807,1808
1894,1855,1903
1860,1840,1888
1840,1835,1792
1845,1856,1788
1823,1907,1904
1849,1853,1882
1883,1824,1753
1872,1802,1799
1871,1863,1862
1904,1845,1803
1856,1818,1803
1813,1836,1831
1867,1879,1880
1903,1840,1824
1826,1830,1791
1851,1853,1840
1913,1885,1885
1871,1899,1893
1838,1825,1789
1919,1844,1810
1846,1905,1887
1779,1803,1863
1811,1795,1761
1873,1840,1793
1883,1843,1904
1853,1885,1856
1835,1811,1765
1863,1830,1814
1893,1859,1882
1847,1871,1870
1872,1827,1791
1872,1840,1809
1867,1881,1931
1835,1863,1882
1861,1808,1779
1930,1828,1791
1904,1871,1894
1849,1849,1904
1805,1741,1808
1830,1818,1811
1871,1939,1885
1843,1849,1879
1881,1806,1789
1919,1872,1808
1934,1887,1895
1870,1817,1888
1847,1771,1771
1913,1829,1802
1919,1872,1910
1808,1854,1909
1786,1831,1805
1889,1837,1813
1920,1950,1957
1813,1838,1875
1817,1772,1762
1904,1826,1776
1957,1823,1877
1841,1871,1869
1797,1770,1802
1857,1822,1824
1907,1857,1898
1857,1872,1872
1822,1781,1782
1872,1837,1820
1955,1882,1855
1908,1872,1851
1858,1794,1789
1875,1810,1842
1871,1863,1915
1813,1855,1888
1818,1810,1790
1854,1841,1779
1894,1887,1904
1857,1857,1903
1900,1812,1794
1905,1830,1818
1907,1859,1899
1808,1813,1887
1823,1759,1772
1893,1805,1807
1911,1862,1913
1814,1842,1899
1793,1872,1826
1863,1827,1847
1897,1878,1916
1851,1765,1859
1877,1806,1792
1871,1801,1802
1829,1904,1917
1831,1843,1931
1835,1804,1808
1891,1827,1811
1894,1856,1891
1833,1825,1867
1823,1803,1796
1867,1828,1840
1918,1873,1904
1941,1857,1874
1780,1792,1804
1787,1842,1836
1861,1859,1886
1882,1855,1869
1843,1803,1794
1845,1813,1829
1863,1863,1904
1839,1842,1891
1840,1815,1811
1866,1829,1827
1856,1875,1918
1858,1839,1825
1902,1813,1770
1904,1826,1838
1890,1877,1903
1803,1856,1903
1840,1821,1805
1847,1845,1824
1866,1888,1936
1921,1860,1859
1811,1811,1758
1879,1846,1795
1909,1878,1892
1819,1853,1902
1821,1817,1793
1847,1844,1836
1871,1898,1938
1840,1869,1890
1823,1822,1774
1890,1847,1810
1917,1904,1904
1872,1888,1901
1861,1840,1805
1841,1838,1795
1872,1856,1873
1938,1863,1856
1877,1826,1779
1815,1843,1831
1809,1875,1920
1799,1854,1862
1882,1828,1753
1927,1859,1828
1882,1901,1902
1836,1872,1854
1872,1835,1797
1899,1865,1819
1845,1889,1906
1851,1856,1853
1849,1808,1714
1835,1840,1795
1856,1886,1903
1849,1875,1921
1844,1822,1803
1904,1833,1781
1936,1898,1887
1857,1863,1865
1805,1811,1770
1847,1867,1837
1869,1873,1898
1846,1859,1839
1863,1830,1773
1847,1830,1813
1868,1857,1872
1869,1851,1861
1866,1813,1763
1844,1841,1819
1834,1877,1905
1836,1854,1868
1890,1796,1747
1872,1825,1792
1837,1861,1893
1829,1858,1867
1838,1817,1746
1886,1813,1761
1856,1863,1904
1808,1857,1875
1842,1806,1745
1888,1843,1798
1890,1886,1904
1872,1856,1875
1829,1798,1770
1878,1829,1813
1882,1865,1840
1839,1844,1822
1809,1822,1781
1850,1842,1829
1865,1877,1922
1841,1858,1875
1840,1821,1778
1898,1842,1785
1888,1905,1939
1821,1863,1888
1831,1806,1794
1929,1839,1811
1907,1856,1881
1819,1849,1837
1799,1809,1799
1923,1847,1773
1907,1875,1891
1807,1855,1872
1850,1840,1814
1872,1861,1840
1922,1901,1956
1881,1873,1885
1817,1810,1776
1862,1840,1800
1865,1874,1867
1833,1865,1863
1860,1826,1805
1930,1851,1775
1867,1888,1875
1791,1867,1904
1776,1802,1802
1875,1835,1798
1907,1904,1907
1854,1872,1930
1863,1811,1801
1894,1840,1803
1920,1909,1930
1851,1858,1861
1848,1776,1696
1793,1782,1777
1835,1872,1927
1882,1898,1938
1886,1841,1840
1825,1815,1798
1831,1868,1878
1858,1836,1839
1884,1782,1761
1862,1833,1840
1865,1889,1936
1836,1856,1889
1847,1818,1809
1885,1831,1770
1867,1869,1890
1794,1819,1889
1819,1798,1813
1936,1839,1843
1908,1868,1949
1870,1881,1915
1853,1834,1783
1857,1838,1840
1902,1875,1913
1871,1829,1854
1876,1809,1757
1855,1809,1839
1899,1872,1920
1798,1817,1774
1778,1789,1811
1841,1827,1827
1899,1893,1970
1911,1849,1920
1842,1798,1763
1834,1812,1845
1824,1841,1873
1901,1869,1855
1857,1825,1789
1871,1808,1826
1878,1819,1851
1851,1841,1834
1870,1795,1807
1885,1830,1849
1840,1860,1906
1868,1843,1918
1891,1778,1749
1872,1833,1819
1824,1863,1923
1777,1819,1864
1856,1808,1763
1856,1808,1840
1873,1828,1852
1895,1808,1808
1908,1799,1783
1818,1818,1865
1811,1850,1892
1829,1845,1910
1950,1804,1758
1851,1824,1815
1843,1878,1997
1850,1856,1927
1871,1795,1776
1842,1806,1792
1825,1830,1853
1868,1843,1886
1840,1802,1761
1819,1805,1795
1846,1859,1905
1851,1824,1879
1829,1792,1799
1936,1819,1781
1872,1843,1871
1792,1834,1909
1795,1795,1803
1853,1829,1812
1904,1861,1915
1874,1826,1870
1894,1803,1790
1842,1805,1759
1842,1853,1805
1839,1824,1844
1812,1750,1762
1890,1781,1773
1875,1872,1936
1793,1853,1933
1815,1795,1813
1911,1823,1842
1874,1868,1914
1835,1845,1857
1796,1771,1754
1843,1775,1777
1868,1827,1808
1821,1815,1833
1845,1803,1881
1837,1834,1867
1852,1860,1920
1872,1825,1818
1823,1776,1794
1856,1804,1793
1874,1856,1919
1882,1827,1885
1779,1750,1705
1849,1808,1822
1843,1856,1948
1802,1826,1885
1849,1808,1802
1886,1797,1811
1835,1823,1872
1803,1829,1873
1847,1781,1825
1903,1802,1814
1886,1831,1920
1798,1803,1767
1775,1757,1765
1837,1815,1817
1842,1854,1899
1853,1818,1859
1887,1783,1814
1841,1829,1835
1828,1827,1907
1863,1808,1873
1799,1791,1790
1809,1797,1774
1920,1855,1822
1923,1821,1819
1863,1783,1762
1792,1808,1822
1802,1856,1947
1827,1833,1872
1849,1778,1763
1822,1791,1813
1819,1829,1918
1823,1807,1878
1816,1783,1774
1872,1797,1821
1901,1840,1961
1843,1830,1861
1822,1786,1819
1853,1805,1823
1860,1840,1854
1792,1809,1869
1828,1791,1793
1933,1826,1843
1922,1839,1879
1745,1811,1913
1793,1778,1759
1945,1824,1829
1867,1857,1894
1769,1829,1877
1753,1759,1831
1851,1807,1871
1889,1856,1977
1852,1819,1906
1839,1790,1803
1814,1762,1739
1871,1840,1921
1867,1834,1872
1831,1782,1789
1799,1801,1815
1857,1847,1871
1877,1835,1876
1858,1805,1787
1875,1840,1837
1888,1829,1827
1850,1818,1843
1808,1782,1808
1822,1795,1856
1839,1866,1907
1837,1829,1858
1821,1783,1789
1865,1813,1830
1874,1864,1887
1873,1846,1937
1833,1764,1744
1850,1802,1750
1856,1854,1889
1871,1830,1894
1808,1775,1823
1856,1804,1855
1910,1838,1910
1831,1806,1866
1794,1782,1801
1856,1825,1805
1832,1845,1973
1837,1823,1849
1861,1771,1763
1880,1791,1840
1855,1842,1879
1823,1820,1851
1805,1787,1787
1841,1803,1828
1856,1844,1921
1847,1819,1872
1867,1776,1765
1942,1811,1791
1863,1854,1904
1831,1810,1894
1829,1791,1808
1887,1817,1826
1877,1835,1895
1826,1808,1855
1841,1786,1779
1876,1822,1840
1872,1887,1957
1856,1833,1904
1811,1791,1791
1834,1808,1791
1872,1863,1879
1863,1844,1872
1847,1784,1728
1893,1808,1786
1829,1815,1871
1840,1850,1879
1862,1814,1805
1937,1827,1825
1857,1863,1904
1774,1815,1878
1807,1791,1798
1916,1831,1830
1915,1855,1894
1808,1804,1832
1857,1797,1761
1907,1840,1840
1828,1848,1915
1781,1835,1891
1794,1791,1787
1857,1792,1797
1845,1837,1909
1831,1818,1886
1863,1798,1793
1926,1824,1817
1887,1859,1886
1827,1819,1839
1851,1786,1801
1873,1834,1854
1978,1885,1931
1840,1829,1877
1827,1795,1806
1845,1818,1831
1861,1856,1901
1839,1844,1885
1874,1794,1776
1853,1824,1808
1839,1861,1901
1814,1821,1868
1872,1791,1778
1885,1824,1818
1917,1856,1893
1826,1837,1881
1836,1799,1793
1887,1831,1819
1860,1866,1903
1871,1841,1866
1851,1766,1729
1874,1813,1808
1854,1881,1941
1866,1851,1872
1815,1794,1755
1883,1835,1809
1890,1883,1920
1846,1823,1815
1859,1794,1754
1921,1815,1827
1869,1886,1891
1869,1869,1906
1831,1829,1827
1872,1841,1871
1969,1911,1931
1875,1840,1845
1792,1790,1733
1840,1861,1855
1971,1902,1936
1817,1870,1899
1815,1818,1775
1872,1849,1808
1893,1904,1929
1905,1888,1909
1913,1810,1774
1856,1840,1808
1851,1901,1883
1857,1877,1869
1871,1813,1777
1893,1840,1782
1983,1906,1895
1927,1865,1853
1807,1840,1822
1807,1853,1863
1885,1893,1955
1886,1886,1863
1837,1820,1770
1866,1822,1767
1905,1875,1911
1839,1873,1929
1881,1825,1837
1901,1857,1850
1871,1869,1899
1843,1860,1870
1841,1847,1808
1893,1838,1804
1878,1858,1877
1850,1873,1889
1857,1831,1792
1882,1857,1828
1902,1881,1936
1819,1850,1887
1811,1809,1763
1947,1835,1763
1935,1895,1919
1835,1861,1887
1765,1824,1761
1843,1872,1843
1870,1895,1954
1871,1861,1897
1871,1808,1776
1899,1833,1809
1872,1872,1857
1710,1847,1886
1776,1821,1808
1893,1845,1835
1962,1870,1900
1909,1850,1811
1797,1821,1810
1794,1844,1863
1894,1905,1950
1918,1873,1877
1849,1818,1782
1932,1835,1866
1915,1897,1926
1878,1842,1831
1835,1811,1741
1823,1846,1838
1843,1900,1936
1840,1863,1872
1930,1821,1744
1959,1821,1805
1947,1879,1892
1825,1884,1911
1859,1831,1812
1874,1850,1819
1947,1878,1898
1882,1876,1899
1861,1808,1754
1932,1797,1771
1878,1889,1913
1923,1860,1912
1872,1814,1788
1852,1832,1831
1904,1884,1920
1939,1851,1871
1827,1810,1762
1838,1828,1789
1840,1871,1909
1827,1851,1906
1889,1809,1783
1885,1836,1807
1863,1877,1907
1838,1840,1881
1835,1778,1813
1920,1831,1834
1936,1875,1899
1841,1851,1859
1792,1805,1786
1850,1825,1815
1922,1877,1915
1831,1851,1889
1870,1786,1766
1835,1811,1805
1875,1869,1902
1903,1861,1884
1870,1804,1797
1891,1862,1842
1941,1874,1919
1843,1855,1867
1879,1808,1763
1853,1822,1801
1865,1862,1906
1833,1839,1886
1849,1811,1791
1836,1821,1818
1929,1854,1913
1904,1857,1867
1852,1803,1744
1838,1835,1826
1872,1897,1936
1879,1859,1886
1886,1808,1733
1931,1818,1764
1853,1854,1907
1853,1860,1879
1860,1834,1786
1866,1834,1834
1844,1863,1915
1840,1854,1873
1846,1817,1789
1858,1835,1810
1867,1867,1895
1923,1863,1857
1863,1823,1766
1835,1847,1805
1834,1879,1905
1853,1855,1886
1842,1841,1808
1862,1844,1824
1885,1878,1861
1862,1859,1853
1794,1799,1779
1849,1838,1821
1888,1889,1919
1890,1866,1858
1929,1840,1795
1947,1836,1773
1843,1872,1907
1807,1864,1859
1818,1814,1777
1863,1866,1824
1838,1895,1876
1820,1843,1853
1827,1815,1806
1953,1866,1871
1888,1886,1904
1815,1856,1854
1819,1811,1749
1935,1847,1773
1931,1887,1869
1797,1872,1897
1791,1821,1805
1868,1863,1829
1863,1902,1895
1823,1866,1856
1833,1827,1776
1902,1861,1835
1874,1885,1918
1854,1846,1847
1834,1818,1741
1854,1840,1777
1885,1909,1943
1913,1903,1891
1870,1825,1728
1898,1843,1765
1887,1895,1899
1824,1872,1891
1793,1835,1796
1844,1854,1787
1852,1872,1850
1837,1877,1862
1825,1843,1781
1887,1869,1815
1872,1884,1890
1821,1877,1850
1814,1839,1778
1866,1860,1813
1881,1890,1887
1881,1885,1866
1861,1840,1744
1875,1857,1798
1845,1919,1914
1850,1872,1822
1841,1808,1712
1906,1869,1809
1863,1920,1931
1797,1886,1892
1819,1831,1764
1872,1872,1811
1933,1899,1893
1917,1882,1821
1808,1825,1717
1823,1839,1773
1893,1875,1901
1825,1891,1891
1806,1856,1778
1844,1863,1801
1855,1901,1887
1835,1872,1874
1840,1824,1774
1850,1873,1811
1822,1906,1886
1854,1877,1850
1822,1822,1773
1857,1851,1798
1874,1883,1879
1830,1878,1872
1817,1833,1769
1869,1858,1806
1884,1905,1893
1872,1878,1854
1825,1810,1737
1875,1839,1762
1841,1902,1901
1844,1878,1877
1850,1829,1753
1849,1852,1773
1850,1859,1849
1840,1868,1883
1812,1843,1808
1856,1867,1813
1916,1919,1883
1811,1874,1840
1821,1830,1807
1824,1866,1827
1865,1902,1903
1831,1883,1855
1804,1839,1747
1847,1850,1783
1890,1887,1892
1862,1858,1834
1822,1815,1729
1867,1875,1810
1870,1921,1910
1810,1892,1862
1793,1827,1776
1856,1855,1813
1903,1899,1869
1865,1850,1808
1840,1811,1734
1847,1875,1809
1867,1919,1919
1790,1884,1848
1805,1838,1728
1831,1862,1814
1855,1905,1918
1847,1872,1868
1851,1834,1756
1828,1854,1805
1858,1890,1909
1840,1854,1870
1795,1821,1745
1828,1849,1780
1863,1896,1897
1902,1875,1856
1827,1837,1775
1791,1862,1827
1837,1904,1906
1830,1861,1842
1863,1824,1747
1901,1859,1799
1840,1895,1885
1803,1849,1860
1857,1830,1787
1904,1804,1806
1843,1897,1905
1808,1849,1873
1827,1858,1779
1837,1808,1797
1872,1872,1902
1839,1845,1828
1831,1781,1751
1861,1781,1812
1861,1903,1903
1825,1873,1875
1877,1822,1735
1887,1885,1816
1856,1893,1922
1811,1922,1878
1792,1827,1776
1835,1843,1796
1903,1875,1900
1862,1858,1858
1808,1827,1759
1839,1859,1792
1843,1890,1916
1815,1905,1887
1884,1829,1785
1879,1873,1808
1834,1888,1889
1818,1879,1859
1835,1796,1763
1887,1901,1835
1867,1895,1904
1813,1833,1872
1808,1829,1779
1873,1857,1813
1872,1877,1887
1811,1872,1862
