1759,1856,1913
1812,1815,1840
1872,1805,1772
1903,1818,1833
1846,1849,1909
1890,1840,1890
1812,1803,1791
1856,1802,1793
1863,1869,1904
1935,1845,1863
1861,1808,1808
1850,1793,1786
1829,1840,1829
1794,1843,1873
1815,1811,1841
1866,1827,1827
1903,1852,1840
1809,1835,1847
1856,1809,1806
1846,1826,1815
1811,1863,1873
1813,1840,1859
1872,1795,1777
1852,1826,1819
1840,1877,1883
1842,1837,1855
1876,1803,1776
1935,1815,1756
1825,1850,1869
1790,1857,1874
1835,1815,1813
1885,1815,1806
1936,1872,1889
1902,1877,1902
1779,1815,1802
1783,1808,1791
1827,1849,1862
1817,1846,1882
1863,1827,1807
1904,1835,1815
1847,1875,1891
1835,1830,1840
1865,1817,1779
1840,1834,1815
1849,1872,1871
1843,1861,1879
1876,1819,1775
1842,1808,1792
1809,1856,1872
1839,1853,1879
1923,1840,1808
1953,1818,1792
1838,1850,1847
1751,1841,1890
1798,1818,1823
1839,1809,1819
1799,1847,1838
1855,1845,1820
1915,1837,1830
1927,1845,1848
1819,1855,1869
1774,1851,1857
1821,1813,1806
1877,1825,1816
1850,1846,1893
1856,1856,1872
1872,1823,1781
1865,1821,1774
1888,1821,1786
1850,1854,1887
1811,1835,1872
1844,1837,1831
1842,1873,1869
1817,1850,1855
1849,1814,1787
1872,1824,1792
1876,1840,1830
1808,1838,1844
1841,1815,1808
1883,1839,1827
1876,1871,1843
1852,1841,1856
1907,1802,1792
1854,1840,1831
1775,1860,1863
1799,1872,1858
1834,1835,1842
1871,1843,1840
1839,1858,1857
1838,1840,1829
1893,1811,1758
1905,1837,1830
1859,1873,1886
1802,1873,1883
1824,1811,1792
1900,1821,1803
1875,1866,1859
1829,1879,1866
1843,1840,1826
1889,1808,1763
1920,1872,1834
1833,1870,1853
1806,1809,1803
1831,1821,1798
1813,1851,1847
1845,1870,1897
1887,1840,1824
1890,1857,1840
1850,1874,1855
1810,1867,1863
1831,1842,1834
1866,1840,1815
1904,1872,1860
1842,1870,1855
1829,1839,1831
1846,1839,1802
1824,1878,1856
1852,1865,1863
1856,1828,1803
1865,1840,1815
1819,1843,1869
1854,1859,1862
1904,1837,1803
1899,1824,1776
1856,1898,1853
1820,1881,1859
1822,1823,1815
1838,1840,1819
1851,1872,1875
1914,1859,1873
1875,1806,1755
1838,1822,1759
1798,1879,1898
1797,1865,1904
1830,1815,1811
1921,1843,1803
1874,1864,1860
1835,1870,1845
1842,1842,1828
1870,1840,1789
1891,1895,1885
1813,1875,1895
1819,1826,1830
1846,1835,1809
1860,1865,1861
1850,1858,1872
1825,1822,1808
1842,1840,1824
1831,1873,1883
1810,1870,1817
1842,1834,1793
1886,1829,1849
1840,1829,1853
1837,1870,1823
1899,1855,1807
1908,1838,1799
1846,1859,1859
1833,1864,1846
1828,1833,1803
1886,1847,1814
1925,1856,1816
1851,1838,1838
1789,1808,1821
1821,1842,1817
1835,1869,1827
1778,1869,1872
1871,1838,1821
1895,1851,1831
1882,1883,1879
1837,1841,1845
1835,1826,1811
1809,1855,1829
1791,1884,1867
1838,1859,1809
1855,1810,1753
1850,1808,1813
1839,1920,1876
1850,1906,1875
1970,1905,1859
1930,1811,1766
1737,1825,1850
1751,1903,1885
1849,1787,1774
1880,1849,1776
1850,1861,1843
1807,1904,1871
1814,1878,1834
1851,1843,1846
1830,1885,1904
1808,1843,1808
1894,1858,1694
1942,1823,1805
1849,1899,1906
1777,1859,1905
1863,1815,1840
1935,1808,1745
1798,1786,1854
1854,1823,1841
1842,1797,1860
1851,1881,1857
1875,1857,1870
1808,1802,1863
1763,1869,1819
1806,1799,1853
1824,1807,1870
1847,1778,1862
1887,1791,1766
1855,1853,1793
1833,1887,1861
1807,1826,1854
1807,1811,1840
1915,1811,1801
1922,1850,1840
1823,1837,1856
1777,1837,1831
1825,1780,1792
1813,1852,1830
1790,1832,1830
1893,1811,1776
1858,1808,1791
1808,1833,1899
1783,1809,1883
1822,1742,1818
1865,1808,1798
1821,1806,1857
1889,1782,1815
1891,1750,1773
1811,1727,1813
1744,1850,1909
1761,1831,1873
1845,1803,1797
1899,1787,1828
1821,1806,1838
1767,1750,1825
1874,1808,1793
1875,1790,1833
1808,1839,1873
1778,1840,1858
1838,1823,1808
1867,1802,1819
1866,1879,1851
1808,1840,1850
1860,1744,1769
1909,1792,1759
1796,1834,1885
1781,1802,1910
1809,1773,1835
1891,1805,1809
1857,1840,1874
1798,1829,1874
1796,1792,1785
1837,1797,1763
1829,1849,1840
1808,1817,1873
1841,1783,1837
1907,1822,1813
1872,1820,1808
1770,1815,1846
1808,1777,1841
1855,1804,1840
1840,1925,1858
1862,1840,1871
1846,1808,1812
1821,1813,1840
1829,1919,1872
1850,1989,1869
1890,1862,1803
1830,1875,1823
1792,1851,1885
1799,1837,1872
1904,1808,1771
1909,1817,1803
1862,1822,1863
1818,1854,1865
1826,1826,1826
1879,1806,1808
1889,1841,1845
1808,1846,1870
1807,1814,1828
1833,1855,1856
1857,1879,1885
1839,1826,1873
1874,1811,1813
1859,1853,1827
1846,1879,1875
1852,1835,1889
1837,1872,1802
1829,1825,1817
1849,1820,1875
1840,1926,1879
1840,1888,1844
1864,1845,1823
1857,1857,1870
1856,1840,1895
1859,1875,1779
1863,1827,1808
1837,1931,1872
1894,1841,1836
1917,1872,1821
1904,1841,1835
1845,1899,1885
1821,1900,1882
1866,1801,1767
1858,1842,1845
1847,1894,1907
1861,1879,1899
1818,1841,1831
1815,1808,1799
1830,1871,1895
1872,1957,1872
1872,1799,1826
1866,1904,1811
1815,1869,1856
1840,1895,1871
1858,1851,1840
1884,1911,1865
1904,1857,1873
1865,1886,1891
1858,1819,1828
1870,1835,1781
1840,1885,1859
1863,1878,1893
1866,1837,1808
1859,1846,1870
1827,1887,1889
1894,1872,1863
1902,1894,1814
1840,1915,1841
1819,1856,1894
1823,1882,1879
1881,1856,1815
1893,1820,1827
1842,1893,1872
1826,1964,1901
1907,1847,1830
1887,1808,1789
1805,1878,1868
1853,1867,1904
1855,1849,1872
1855,1863,1834
1839,1883,1856
1856,1889,1883
1847,1869,1846
1850,1873,1844
1841,1897,1914
1813,1872,1899
1858,1840,1779
1917,1850,1778
1905,1887,1871
1804,1886,1875
1797,1843,1808
1857,1845,1767
1888,1877,1874
1866,1873,1898
1836,1836,1841
1842,1872,1834
1869,1893,1840
1899,1884,1879
1869,1877,1858
1906,1878,1840
1837,1889,1872
1817,1875,1882
1840,1834,1821
1854,1861,1833
1846,1903,1899
1826,1887,1881
1845,1858,1798
1867,1863,1797
1854,1893,1873
1840,1872,1886
1856,1818,1776
1879,1849,1797
1894,1895,1859
1886,1872,1838
1915,1835,1751
1871,1821,1786
1775,1873,1897
1837,1878,1881
1890,1854,1826
1822,1857,1825
1772,1873,1869
1776,1865,1861
1827,1826,1810
1871,1831,1800
1877,1877,1868
1857,1878,1863
1833,1846,1820
1885,1839,1812
1872,1882,1833
1834,1881,1835
1807,1833,1827
1841,1839,1846
1861,1870,1891
1856,1874,1851
1915,1823,1754
1921,1805,1724
1826,1889,1839
1772,1893,1938
1807,1840,1842
1891,1847,1846
1866,1916,1863
1835,1872,1870
1848,1840,1801
1889,1860,1831
1909,1877,1850
1847,1888,1840
1793,1869,1813
1839,1863,1840
1840,1878,1875
1841,1904,1851
1866,1857,1808
1886,1835,1809
1887,1857,1855
1847,1872,1866
1821,1846,1818
1843,1854,1810
1899,1911,1903
1833,1868,1872
1872,1829,1815
1915,1844,1808
1905,1878,1871
1856,1872,1859
1837,1835,1805
1826,1843,1827
1767,1868,1869
1820,1877,1872
1904,1845,1795
1949,1861,1807
1874,1883,1885
1776,1878,1888
1826,1845,1858
1897,1854,1829
1920,1887,1871
1850,1877,1882
1821,1847,1839
1879,1860,1841
1872,1872,1872
1847,1874,1851
1847,1834,1783
1840,1854,1787
1858,1906,1904
1840,1881,1907
1840,1847,1825
1869,1849,1797
1872,1882,1855
1889,1893,1888
1873,1863,1840
1856,1860,1825
1847,1888,1854
1867,1867,1875
1895,1833,1821
1931,1840,1792
1879,1873,1846
1862,1891,1875
1842,1861,1856
1825,1830,1830
1840,1859,1823
1899,1899,1847
1856,1842,1831
1841,1856,1841
1830,1883,1872
1825,1878,1862
1872,1830,1790
1867,1833,1810
1855,1879,1862
1861,1874,1866
1883,1830,1805
1882,1841,1808
1877,1874,1866
1854,1873,1888
1879,1861,1815
1899,1840,1775
1850,1904,1882
1820,1885,1898
1851,1847,1830
1923,1853,1840
1936,1877,1848
1825,1857,1843
1773,1825,1823
1819,1849,1840
1867,1891,1900
1867,1872,1863
1874,1815,1777
1875,1826,1773
1856,1904,1889
1825,1902,1904
1835,1856,1840
1873,1840,1815
1874,1879,1861
1825,1876,1920
1839,1840,1873
1879,1844,1839
1894,1893,1903
1854,1840,1831
1826,1827,1804
1900,1842,1789
1901,1878,1866
1827,1869,1865
1830,1823,1798
1881,1831,1799
1936,1858,1878
1879,1859,1890
1857,1845,1842
1857,1851,1840
1839,1856,1873
1829,1853,1874
1831,1825,1820
1859,1813,1741
1870,1877,1827
1840,1878,1879
1851,1831,1861
1859,1818,1827
1857,1853,1856
1866,1861,1887
1910,1833,1807
1836,1835,1808
1826,1867,1859
1834,1855,1849
1845,1808,1871
1856,1817,1842
1856,1855,1860
1837,1861,1871
1842,1822,1789
1936,1818,1794
1892,1869,1866
1809,1866,1903
1809,1821,1805
1859,1819,1786
1972,1888,1934
1899,1839,1856
1791,1789,1812
1827,1825,1817
1835,1854,1813
1851,1843,1850
1863,1823,1821
1862,1823,1794
1867,1861,1853
1901,1847,1842
1858,1817,1835
1853,1847,1811
1859,1872,1831
1856,1857,1863
1829,1815,1839
1856,1811,1776
1869,1856,1861
1819,1856,1857
1845,1814,1776
1904,1823,1797
1879,1840,1872
1872,1860,1877
1897,1839,1824
1873,1839,1886
1821,1865,1823
1790,1854,1846
1871,1799,1777
1994,1823,1794
1851,1850,1859
1771,1842,1903
1807,1818,1837
1858,1803,1771
1883,1890,1872
1856,1886,1863
1818,1827,1824
1843,1815,1814
1872,1854,1851
1871,1849,1869
1910,1818,1760
1899,1827,1776
1851,1856,1840
1829,1825,1871
1840,1812,1839
1840,1823,1808
1872,1840,1852
1841,1830,1852
1855,1811,1802
1878,1824,1842
1841,1868,1919
1843,1872,1836
1887,1822,1869
1893,1808,1763
1838,1877,1891
1839,1866,1917
1879,1823,1843
1859,1824,1806
1846,1857,1808
1877,1858,1840
1899,1809,1809
1890,1819,1844
1840,1872,1910
1780,1868,1870
1835,1828,1789
1883,1838,1809
1857,1862,1879
1843,1857,1895
1878,1840,1866
1883,1842,1853
1924,1859,1842
1926,1856,1841
1869,1837,1830
1840,1821,1779
1866,1857,1903
1872,1872,1946
1844,1837,1830
1824,1840,1823
1842,1843,1842
1884,1858,1936
1850,1840,1886
1872,1847,1881
1904,1857,1850
1894,1846,1827
1848,1843,1821
1867,1847,1841
1821,1845,1859
1835,1862,1968
1889,1809,1840
2002,1837,1778
1907,1883,1874
1738,1841,1758
1777,1830,1808
1888,1855,1787
1884,1872,1869
1839,1854,1885
1839,1829,1893
1898,1847,1814
1882,1881,1886
1841,1878,1804
1875,1833,1747
1854,1834,1814
1805,1847,1856
1793,1865,1915
1890,1836,1830
1897,1863,1797
1840,1870,1931
1845,1853,1850
1836,1833,1808
1869,1818,1808
1856,1855,1863
1823,1841,1905
1842,1843,1792
1884,1839,1811
1895,1844,1800
1792,1856,1847
1835,1837,1794
1906,1813,1803
1854,1855,1898
1872,1877,1861
1843,1818,1782
1853,1827,1807
1802,1838,1845
1846,1873,1915
1827,1827,1835
1822,1793,1775
1862,1857,1859
1841,1842,1847
1858,1834,1825
1874,1841,1776
1815,1847,1883
1792,1819,1895
1840,1825,1813
1886,1821,1768
1925,1843,1813
1925,1846,1833
1791,1793,1822
1766,1794,1823
1808,1872,1854
1795,1871,1857
1887,1845,1819
1963,1840,1829
1819,1851,1827
1767,1847,1859
1811,1837,1799
1837,1818,1766
1880,1835,1842
1828,1840,1872
1863,1838,1856
1856,1823,1782
1868,1875,1863
1840,1871,1902
1897,1840,1780
1903,1815,1759
1838,1875,1886
1760,1826,1869
1904,1806,1821
1811,1858,1818
1911,1854,1799
1872,1872,1831
1751,1823,1842
1841,1834,1840
1871,1875,1850
1763,1843,1863
1794,1831,1838
1881,1830,1808
1799,1841,1831
1859,1856,1870
1854,1823,1815
1904,1819,1840
1795,1874,1890
1787,1870,1879
1799,1808,1786
1939,1808,1760
1904,1856,1847
1792,1856,1874
1854,1830,1850
1783,1806,1793
1794,1834,1861
1870,1838,1891
1975,1782,1724
1959,1823,1742
1771,1878,1947
1680,1872,1921
1767,1826,1813
1844,1810,1826
1868,1844,1867
1786,1842,1828
1861,1807,1791
1863,1825,1869
1856,1862,1855
1847,1841,1819
1872,1834,1817
1790,1811,1745
1790,1853,1865
1850,1854,1911
1840,1792,1799
1845,1840,1808
1786,1861,1840
1772,1840,1808
1860,1808,1826
1823,1822,1859
1838,1850,1851
1770,1851,1821
1855,1852,1863
1860,1809,1805
1891,1833,1815
1825,1831,1840
1814,1851,1782
1851,1831,1825
1838,1843,1871
1709,1861,1902
1793,1836,1835
1846,1808,1773
1853,1851,1837
1796,1872,1876
1824,1835,1801
1827,1828,1751
1890,1866,1807
1782,1887,1845
1774,1859,1881
1819,1838,1869
1842,1840,1871
1838,1857,1872
1835,1823,1801
1793,1823,1770
1783,1845,1825
1875,1855,1850
1944,1839,1795
1843,1840,1837
1729,1862,1904
1764,1846,1866
1826,1811,1770
1835,1808,1771
1817,1847,1882
1828,1873,1931
1842,1823,1824
1904,1840,1793
1840,1851,1815
1863,1875,1844
1858,1835,1787
1872,1827,1806
1759,1858,1905
1712,1873,1911
1870,1854,1791
1922,1850,1773
1861,1840,1835
1851,1873,1895
1715,1807,1799
1809,1810,1783
1883,1867,1898
1891,1856,1892
1872,1825,1765
1861,1854,1835
1799,1872,1918
1822,1847,1856
1851,1825,1765
1863,1872,1770
1805,1859,1872
1814,1883,1968
1857,1867,1842
1861,1856,1834
1822,1855,1870
1877,1862,1888
1826,1839,1770
1884,1855,1813
1878,1871,1866
1810,1873,1872
1795,1835,1797
1929,1859,1826
1840,1872,1890
1745,1863,1885
1799,1830,1815
1845,1846,1808
1908,1877,1886
1788,1872,1881
1843,1849,1834
1919,1866,1809
1857,1890,1845
1877,1855,1837
1889,1840,1786
1875,1867,1845
1813,1872,1952
1776,1875,1923
1807,1842,1828
1916,1849,1805
1955,1873,1841
1904,1873,1843
1853,1865,1846
1815,1838,1761
1923,1874,1856
1913,1876,1904
1763,1840,1872
1799,1855,1826
1847,1872,1838
1861,1868,1871
1872,1865,1844
1851,1850,1812
1749,1857,1847
1819,1859,1873
1863,1839,1794
1907,1840,1779
1871,1887,1883
1783,1887,1878
1778,1847,1829
1935,1829,1787
1901,1874,1826
1878,1911,1871
1769,1872,1863
1843,1831,1808
1843,1874,1877
1767,1886,1867
1808,1843,1811
1904,1837,1806
1904,1854,1822
1856,1842,1828
1824,1845,1797
1874,1862,1833
1855,1872,1889
1840,1851,1869
1809,1835,1838
1831,1867,1826
1871,1878,1884
1854,1879,1894
1863,1856,1838
1927,1857,1792
1895,1887,1872
1751,1850,1856
1801,1834,1803
1855,1867,1819
1853,1910,1882
1855,1879,1830
1840,1834,1787
1914,1851,1851
1918,1902,1881
1803,1902,1887
1790,1855,1841
1887,1865,1811
1881,1875,1869
1881,1876,1867
1860,1858,1838
1803,1858,1828
1793,1879,1879
1839,1917,1911
1873,1840,1810
1910,1847,1797
1883,1909,1890
1825,1892,1895
1843,1845,1818
1911,1867,1795
1890,1891,1834
1811,1882,1887
1805,1853,1846
1867,1856,1828
1891,1861,1840
1851,1870,1872
1840,1852,1844
1840,1865,1835
1887,1897,1901
1837,1851,1863
1826,1795,1763
1873,1827,1781
1850,1887,1882
1854,1870,1851
1828,1831,1810
1843,1829,1825
1828,1863,1855
1846,1869,1850
1920,1818,1751
1921,1844,1786
1837,1891,1906
1790,1863,1922
1826,1837,1821
1854,1829,1781
1855,1872,1887
1799,1869,1886
1843,1840,1821
1910,1853,1835
1902,1890,1862
1860,1867,1853
1812,1837,1833
1840,1819,1837
1858,1840,1862
1904,1895,1857
1917,1862,1854
1874,1866,1859
1819,1868,1853
1827,1872,1841
1845,1818,1787
1822,1824,1790
1869,1873,1890
1872,1895,1923
1851,1835,1827
1936,1869,1837
1875,1889,1861
1790,1872,1872
1850,1837,1808
1902,1856,1803
1875,1881,1863
1824,1872,1898
1825,1859,1846
1866,1869,1819
1810,1882,1850
1840,1884,1897
1883,1850,1824
1878,1850,1809
1883,1853,1859
1921,1878,1887
1872,1839,1803
1861,1853,1813
1842,1867,1867
1846,1837,1887
1899,1855,1809
1859,1860,1824
1827,1876,1889
1808,1861,1879
1846,1841,1814
1859,1841,1840
1831,1872,1887
1823,1863,1877
1936,1824,1804
1985,1840,1761
1840,1893,1860
1755,1889,1904
1798,1859,1813
1861,1841,1795
1886,1872,1883
1872,1851,1897
1856,1838,1841
1839,1846,1776
1807,1875,1855
1855,1882,1901
1929,1856,1840
1932,1823,1758
1830,1858,1837
1801,1870,1890
1835,1855,1830
1904,1854,1794
1879,1857,1795
1859,1893,1868
1868,1861,1813
1935,1827,1803
1855,1866,1864
1871,1887,1917
1857,1831,1818
1866,1843,1809
1831,1887,1858
1819,1891,1905
1856,1853,1793
1883,1837,1771
1865,1875,1879
1852,1856,1884
1904,1817,1837
1947,1825,1788
1872,1842,1818
1863,1862,1870
1840,1853,1843
1856,1852,1843
1909,1883,1900
1935,1867,1872
1878,1861,1828
1849,1863,1839
1861,1872,1819
1883,1843,1839
1797,1819,1819
1815,1818,1805
1884,1871,1865
1869,1887,1906
1859,1843,1829
1926,1847,1801
1910,1855,1861
1822,1853,1897
1850,1830,1839
1859,1869,1827
1855,1799,1871
1850,1821,1870
1909,1840,1808
1951,1846,1806
1847,1872,1849
1776,1842,1870
1804,1838,1792
1889,1823,1776
1934,1867,1824
1856,1843,1899
1864,1851,1862
1920,1856,1807
1936,1893,1870
1776,1870,1875
1798,1851,1831
1845,1898,1812
1842,1882,1813
1900,1862,1837
1859,1834,1817
1837,1847,1817
1863,1895,1902
1920,1874,1883
1844,1783,1797
1806,1835,1808
1838,1859,1826
1888,1840,1827
1826,1866,1829
1823,1803,1810
1819,1842,1833
1867,1846,1824
1889,1838,1801
1864,1850,1859
1843,1891,1904
1823,1860,1875
1870,1767,1776
1943,1828,1747
1900,1857,1831
1782,1851,1857
1746,1821,1808
1866,1826,1798
1913,1862,1872
1842,1881,1855
1801,1888,1822
1837,1831,1801
1840,1857,1835
1850,1843,1856
1897,1839,1802
1915,1842,1778
1872,1843,1867
1773,1863,1920
1828,1801,1846
1936,1856,1805
1853,1898,1847
1819,1893,1886
1850,1867,1811
1903,1867,1809
1871,1907,1831
1831,1907,1862
1871,1809,1808
1887,1864,1851
1827,1839,1821
1856,1855,1856
1829,1796,1808
1920,1826,1807
1957,1840,1840
1834,1861,1848
1776,1812,1822
1847,1834,1817
1831,1859,1866
1845,1937,1866
1873,1822,1735
1882,1840,1792
1827,1856,1891
1803,1881,1920
1839,1883,1835
1872,1840,1772
1873,1862,1840
1921,1847,1860
1878,1829,1799
1808,1845,1794
1815,1872,1851
1810,1873,1864
1829,1843,1808
1840,1827,1783
1939,1867,1843
1923,1904,1881
1843,1853,1840
1827,1835,1808
1846,1807,1843
1811,1741,1850
1851,1831,1802
1878,1766,1782
1936,1861,1809
1864,1867,1902
1833,1842,1824
1831,1815,1748
1836,1851,1811
1901,1870,1909
1900,1853,1847
1824,1803,1808
1839,1850,1825
1821,1869,1840
1846,1841,1830
1904,1802,1840
1851,1882,1884
1808,1921,1868
1839,1810,1808
1872,1815,1801
1858,1914,1836
1827,1826,1866
1845,1851,1819
1863,1817,1851
1884,1821,1859
1849,1870,1818
1840,1840,1770
1884,1773,1774
1886,1876,1863
1829,1911,1920
1840,1846,1871
1872,1840,1850
1819,1879,1870
1805,1872,1862
1829,1848,1819
1949,1815,1772
1911,1905,1856
1821,1872,1918
1839,1821,1808
1899,1839,1822
1818,1810,1889
1773,1902,1887
1826,1825,1807
1897,1829,1793
1920,1861,1887
1871,1872,1888
1872,1874,1851
1920,1824,1786
1873,1855,1857
1794,1873,1927
1774,1799,1829
1857,1849,1814
1904,1882,1874
1856,1869,1872
1829,1808,1804
1831,1821,1808
1895,1872,1876
1908,1881,1887
1840,1914,1797
1911,1789,1811
1870,1836,1859
1777,1806,1835
1807,1839,1805
1873,1825,1819
1857,1858,1851
1854,1863,1889
1904,1867,1837
1906,1892,1823
1867,1842,1872
1806,1840,1885
1793,1808,1826
1865,1710,1797
1970,1840,1831
1840,1857,1895
1808,1840,1849
1872,1835,1811
1916,1846,1841
1867,1852,1857
1856,1844,1841
1840,1797,1801
1856,1852,1839
1863,1890,1888
1840,1836,1845
1875,1827,1812
1843,1854,1863
1856,1859,1904
1856,1839,1837
1887,1827,1804
1902,1865,1842
1851,1858,1907
1809,1832,1872
1830,1837,1815
1853,1837,1891
1808,1827,1842
1879,1839,1780
1918,1840,1814
1874,1872,1891
1811,1872,1907
1842,1829,1837
1908,1823,1812
1881,1861,1845
1886,1886,1910
1839,1847,1843
1824,1829,1817
1808,1847,1872
1824,1888,1895
1849,1842,1840
1875,1838,1833
1903,1872,1869
1907,1879,1851
1850,1823,1804
1865,1830,1826
1847,1857,1843
1853,1890,1886
1838,1834,1845
1866,1825,1825
1874,1881,1863
1828,1879,1870
1933,1833,1806
1891,1841,1847
1828,1860,1904
1806,1873,1894
1835,1842,1815
1874,1831,1777
1853,1856,1851
1797,1841,1856
1875,1819,1831
2059,1840,1805
1957,1861,1824
1722,1865,1862
1799,1852,1808
1918,1809,1797
1827,1860,1903
1853,1874,1909
1872,1833,1794
1845,1831,1808
1882,1838,1830
1803,1872,1878
1805,1841,1836
1842,1788,1691
1837,1831,1817
1829,1869,1929
1862,1826,1872
1836,1839,1854
1840,1860,1866
1914,1869,1854
1849,1813,1803
1808,1842,1823
1842,1869,1855
1813,1858,1855
1804,1825,1797
1892,1829,1793
1904,1851,1810
1806,1845,1867
1791,1807,1814
1832,1797,1791
1841,1830,1829
1824,1850,1854
1837,1826,1819
1877,1808,1798
1811,1826,1831
1815,1830,1859
1860,1798,1780
1860,1805,1778
1875,1840,1840
1870,1851,1855
1779,1812,1805
1813,1808,1802
1827,1828,1840
1794,1833,1856
1815,1802,1803
1917,1808,1779
1893,1834,1833
1839,1821,1817
1824,1822,1844
1805,1829,1827
1790,1835,1855
1787,1847,1873
1854,1829,1811
1889,1797,1767
1837,1843,1847
1817,1872,1872
1831,1826,1825
1845,1793,1790
1843,1834,1834
1808,1842,1856
1855,1808,1823
1865,1823,1781
1859,1835,1831
1851,1842,1874
1842,1836,1823
1825,1815,1815
1789,1847,1869
1808,1861,1872
1891,1813,1791
1872,1810,1775
1871,1851,1842
1823,1855,1887
1797,1819,1809
1810,1815,1751
1826,1838,1839
1825,1863,1870
1956,1837,1807
1914,1829,1802
1776,1840,1882
1763,1872,1930
1790,1816,1808
1856,1823,1808
1853,1855,1867
1830,1865,1891
1879,1825,1818
1939,1802,1765
1874,1857,1858
1826,1878,1921
1831,1827,1839
1869,1827,1808
1887,1856,1862
1904,1866,1838
1853,1834,1793
1793,1834,1809
1784,1830,1861
1805,1857,1899
1842,1822,1872
1925,1833,1809
1833,1841,1809
1808,1886,1841
1793,1855,1796
1834,1840,1835
1894,1875,1840
1895,1866,1872
1861,1809,1829
1835,1821,1809
1840,1877,1859
1851,1881,1907
1808,1829,1799
1825,1838,1828
1815,1876,1893
1792,1872,1867
1897,1845,1738
1906,1849,1797
1840,1884,1844
1792,1856,1895
1827,1817,1812
1887,1826,1743
1931,1846,1782
1842,1867,1863
1796,1853,1898
1857,1847,1747
1818,1866,1835
1812,1875,1887
1815,1872,1863
1838,1846,1808
1909,1866,1824
1887,1891,1899
1851,1856,1857
1825,1853,1815
1840,1879,1859
1838,1867,1815
1929,1863,1808
1946,1855,1809
1825,1879,1872
1805,1901,1891
1799,1853,1831
1871,1836,1808
1877,1873,1822
1879,1903,1861
1882,1850,1838
1917,1835,1792
1808,1851,1819
1742,1866,1874
1805,1846,1810
1909,1849,1852
1899,1879,1871
1843,1902,1927
1826,1841,1828
1872,1842,1808
1872,1890,1866
1846,1895,1861
1808,1840,1766
1862,1833,1782
1904,1883,1826
1903,1872,1878
1822,1836,1792
1808,1833,1797
1830,1875,1830
1799,1888,1889
1847,1848,1798
1916,1851,1756
1860,1872,1835
1779,1889,1858
1825,1863,1813
1929,1815,1803
1874,1850,1791
1885,1904,1901
1872,1829,1734
1808,1811,1731
1807,1856,1851
1815,1872,1861
1877,1853,1840
1872,1809,1770
1844,1854,1861
1803,1869,1886
1869,1827,1805
1858,1815,1796
1825,1866,1839
1827,1886,1874
1846,1825,1804
1869,1789,1727
1946,1857,1827
1811,1870,1918
1795,1840,1872
1851,1853,1731
1845,1854,1744
1841,1853,1842
1893,1851,1828
1865,1832,1804
1808,1869,1871
1776,1874,1908
1845,1827,1790
1879,1799,1823
1902,1856,1914
1873,1897,1972
1840,1850,1851
1872,1834,1810
1869,1866,1846
1823,1898,1891
1824,1826,1809
1861,1805,1792
1872,1867,1863
1937,1897,1886
1879,1840,1743
1834,1825,1823
1840,1866,1861
1814,1885,1901
1834,1845,1827
1909,1843,1757
1917,1857,1825
1885,1857,1867
1853,1841,1776
1872,1827,1777
1857,1872,1797
1822,1874,1829
1822,1843,1846
1883,1827,1808
1862,1871,1885
1839,1869,1788
1905,1859,1865
1941,1853,1838
1871,1858,1866
1827,1877,1837
1874,1836,1798
1878,1845,1775
1879,1874,1863
1863,1863,1860
1807,1808,1791
1871,1835,1838
1890,1883,1841
1827,1862,1814
1837,1841,1825
1872,1826,1851
1897,1871,1866
1872,1875,1886
1872,1846,1815
1863,1830,1802
1867,1863,1845
1819,1863,1867
1837,1827,1835
1891,1856,1854
1872,1855,1870
1839,1882,1876
1877,1870,1823
1927,1866,1836
1932,1862,1773
1866,1882,1847
1781,1842,1855
1815,1827,1831
1849,1866,1831
1885,1904,1891
1875,1868,1859
1882,1835,1842
1894,1867,1833
1853,1866,1893
1840,1850,1850
1891,1865,1847
1862,1865,1853
1854,1888,1886
1908,1847,1815
1898,1811,1778
1789,1856,1877
1817,1900,1904
1904,1858,1819
1954,1840,1783
1867,1851,1879
1805,1863,1898
1840,1845,1847
1866,1835,1797
1857,1859,1849
1880,1896,1857
1892,1859,1844
1870,1841,1847
1863,1862,1897
1856,1887,1899
1873,1859,1835
1884,1854,1798
1913,1878,1868
1921,1898,1878
1892,1857,1852
1855,1856,1881
1863,1879,1883
1867,1881,1889
1895,1872,1812
1876,1849,1802
1846,1881,1891
1840,1899,1930
1893,1879,1827
1910,1856,1789
1857,1874,1840
1851,1899,1888
1932,1856,1853
1872,1838,1839
1838,1894,1908
1834,1911,1933
1936,1875,1839
1941,1856,1811
1862,1859,1844
1790,1866,1869
1952,1846,1842
1922,1808,1779
1840,1855,1831
1877,1903,1885
1824,1862,1833
1968,1845,1808
1940,1869,1809
1825,1873,1887
1798,1861,1872
1838,1834,1853
1870,1872,1840
1866,1873,1857
1811,1839,1811
1845,1823,1813
1871,1878,1873
1823,1891,1870
1894,1858,1842
1902,1831,1807
1985,1875,1859
1919,1875,1882
1819,1871,1819
1814,1827,1793
1853,1840,1854
1830,1883,1920
1938,1869,1859
1927,1854,1808
1936,1869,1838
1874,1883,1890
1869,1859,1846
1883,1840,1799
1860,1877,1855
1809,1901,1919
1822,1860,1871
1866,1845,1826
1863,1884,1804
1856,1891,1870
1815,1844,1834
1846,1838,1821
1891,1889,1872
1846,1899,1889
1843,1840,1805
1963,1840,1793
1969,1872,1818
1903,1889,1849
1790,1857,1834
1789,1846,1831
1838,1872,1852
1861,1882,1883
1821,1869,1859
1920,1831,1833
1861,1875,1863
1931,1888,1879
1938,1828,1797
1877,1819,1791
1840,1872,1837
1727,1889,1872
1843,1823,1811
1875,1847,1808
1835,1887,1867
1773,1887,1863
1837,1845,1767
1872,1831,1786
1833,1865,1877
1863,1882,1883
1814,1853,1833
1856,1841,1782
1872,1853,1827
1859,1850,1857
1840,1815,1831
1879,1818,1750
1940,1849,1803
1863,1853,1873
1820,1806,1791
1835,1783,1791
1891,1834,1840
1867,1842,1826
1847,1791,1765
1860,1778,1779
1886,1811,1840
1897,1834,1877
1906,1803,1808
1858,1771,1759
1783,1807,1843
1874,1830,1886
1920,1785,1774
1884,1771,1754
1855,1796,1792
