1825,1872,1936
1888,1849,1840
1906,1841,1790
1854,1873,1846
1856,1837,1880
1878,1840,1845
1931,1891,1874
1908,1789,1920
1882,1841,1838
1847,1799,1777
1826,1904,1847
1807,1878,1917
1847,1851,1875
1888,1850,1798
1894,1919,1808
1887,1873,1872
1831,1872,1892
1852,1839,1847
1889,1833,1801
1835,1845,1872
1829,1936,1898
1878,1883,1826
1906,1834,1794
1886,1863,1872
1811,1856,1885
1838,1821,1834
1897,1837,1821
1904,1811,1859
1891,1857,1846
1839,1791,1805
1876,1831,1808
1904,1815,1873
1819,1865,1883
1798,1821,1856
1883,1841,1840
1877,1857,1872
1831,1887,1875
1862,1886,1791
1898,1798,1785
1822,1746,1883
1822,1865,1899
1883,1891,1805
1911,1776,1766
1885,1831,1882
1854,1843,1891
1831,1806,1847
1858,1822,1834
1871,1883,1861
1906,1843,1855
1878,1839,1776
1856,1818,1788
1826,1883,1872
1808,1867,1904
1827,1834,1849
1861,1824,1840
1873,1841,1858
1853,1831,1875
1879,1803,1831
1872,1843,1824
1849,1870,1875
1834,1857,1882
1858,1810,1792
1898,1827,1810
1906,1843,1841
1904,1839,1856
1915,1808,1819
1942,1840,1815
1821,1847,1877
1756,1830,1875
1858,1808,1833
1923,1841,1866
1863,1872,1913
1813,1866,1889
1867,1820,1808
1881,1827,1810
1843,1874,1875
1843,1872,1902
1873,1818,1829
1914,1825,1828
1866,1839,1831
1871,1872,1885
1899,1840,1840
1883,1847,1824
1872,1853,1886
1835,1862,1860
1840,1840,1799
1877,1829,1813
1878,1856,1890
1850,1858,1866
1846,1823,1815
1886,1841,1826
1835,1872,1882
1838,1860,1881
1878,1814,1793
1889,1809,1819
1859,1859,1876
1869,1869,1891
1859,1829,1802
1895,1856,1802
1874,1868,1854
1821,1850,1834
1846,1808,1822
1873,1839,1824
1883,1869,1865
1869,1872,1866
1857,1825,1825
1893,1826,1809
1920,1894,1923
1879,1877,1902
1888,1829,1818
1849,1837,1791
1810,1870,1857
1843,1869,1887
1851,1821,1821
1911,1854,1835
1915,1901,1893
1843,1862,1824
1854,1809,1799
1941,1834,1840
1886,1863,1897
1808,1870,1899
1841,1837,1830
1920,1856,1833
1942,1873,1887
1883,1871,1887
1827,1809,1798
1842,1840,1870
1871,1875,1902
1823,1854,1850
1820,1823,1791
1866,1839,1813
1878,1867,1882
1875,1865,1910
1856,1840,1813
1890,1835,1781
1889,1869,1840
1826,1853,1891
1856,1825,1840
1898,1825,1789
1850,1872,1853
1826,1863,1856
1869,1840,1822
1952,1855,1826
1909,1854,1869
1885,1856,1897
1803,1811,1809
1826,1821,1837
1824,1856,1887
1855,1818,1847
1894,1795,1786
1872,1814,1822
1869,1863,1870
1855,1855,1814
1844,1826,1781
1879,1831,1826
1859,1846,1843
1824,1824,1845
1867,1805,1835
1937,1824,1815
1908,1872,1853
1847,1856,1857
1805,1808,1824
1839,1811,1830
1892,1843,1883
1872,1852,1870
1873,1820,1807
1904,1807,1803
1867,1841,1827
1828,1841,1862
1880,1807,1805
1883,1796,1817
1841,1827,1849
1869,1841,1852
1873,1803,1791
1862,1808,1803
1872,1854,1881
1919,1849,1888
1935,1786,1801
1882,1802,1815
1793,1854,1871
1787,1868,1872
1865,1819,1791
1886,1814,1800
1877,1843,1855
1919,1847,1856
1856,1813,1789
1825,1808,1789
1854,1840,1866
1867,1851,1895
1855,1788,1815
1872,1799,1794
1869,1844,1851
1898,1854,2720
1925,1813,2747
1877,1814,2000
1888,1840,1698
1840,1836,1735
1799,1786,1819
1885,1815,1843
1869,1857,1839
1815,1844,1829
1840,1808,1827
1875,1819,1823
1831,1831,1826
1791,1834,1828
1853,1808,1829
1911,1839,1830
1938,1858,1831
1892,1825,1850
1835,1806,1783
1867,1824,1823
1856,1840,1804
1797,1851,1834
1827,1821,1803
1850,1810,1859
1907,1842,1855
1840,1839,1847
1872,1825,1869
1911,1833,1856
1799,1849,1834
1844,1833,1853
1870,1823,1783
1884,1826,1834
1811,1869,1781
1862,1859,1829
1918,1806,1802
1904,1823,1895
1858,1871,2064
1767,1850,2007
1792,1821,1935
1872,1856,1951
1863,1854,1990
1829,1839,1963
1887,1829,1882
1919,1824,1936
1861,1872,1998
1795,1867,1963
1869,1850,1886
1952,1843,1863
1882,1863,1938
1788,1856,1939
1814,1827,1945
1841,1840,1927
1820,1863,1935
1838,1869,1959
1905,1834,1939
1899,1817,1930
1827,1876,1984
1801,1886,1925
1865,1853,1888
1957,1834,1877
1934,1830,1850
1809,1859,1971
1803,1840,1922
1843,1835,1879
1885,1871,1941
1839,1873,1953
1802,1830,1906
1842,1840,1903
1887,1851,1936
1856,1861,1906
1825,1840,1854
1919,1839,1808
1846,1870,1965
1840,1854,1975
1839,1795,1869
1887,1824,1897
1855,1862,1910
1799,1852,1948
1842,1793,1889
1883,1826,1825
1851,1861,1880
1784,1841,1842
1838,1808,1841
1870,1823,1854
1843,1855,1906
1829,1851,1914
1870,1819,1815
1968,1801,1770
1804,1856,1923
1773,1879,1890
1873,1833,1787
1890,1797,1822
1847,1877,1920
1833,1886,1913
1807,1839,1825
1858,1840,1885
1843,1863,1862
1837,1846,1862
1872,1802,1792
1900,1820,1872
1812,1869,1954
1808,1861,1891
1801,1813,1857
1865,1829,1801
1861,1872,1850
1846,1867,1887
1830,1831,1808
1875,1831,1822
1910,1854,1886
1855,1879,1888
1787,1842,1824
1793,1818,1899
1811,1862,1867
1838,1865,1824
1842,1839,1809
1826,1846,1883
1822,1881,1840
1845,1867,1854
1818,1803,1796
1858,1826,1837
1849,1885,1895
1903,1840,1827
1834,1796,1791
1873,1839,1815
1774,1866,1877
1796,1854,1792
1872,1833,1856
1825,1840,1838
1792,1861,1914
1813,1856,1870
1863,1810,1763
1862,1831,1771
1836,1872,1886
1850,1872,1909
1872,1807,1789
1878,1813,1748
1792,1865,1890
1802,1853,1877
1824,1825,1813
1856,1831,1802
1883,1856,1839
1819,1857,1840
1796,1821,1794
1834,1831,1823
1792,1856,1857
1791,1855,1805
1835,1817,1777
1871,1813,1757
1837,1863,1813
1829,1860,1891
1829,1810,1797
1814,1806,1737
1873,1856,1866
1809,1843,1872
1867,1803,1697
1883,1823,1825
1808,1865,1831
1790,1859,1840
1793,1826,1798
1878,1830,1778
1866,1856,1831
1852,1855,1830
1844,1827,1798
1829,1842,1818
1805,1856,1798
1846,1846,1837
1871,1818,1747
1867,1840,1887
1859,1890,1852
1814,1869,1847
1873,1846,1773
1859,1851,1786
1842,1877,1847
1849,1873,1929
1861,1825,1811
1868,1831,1806
1855,1882,1893
1882,1847,1845
1888,1811,1720
1842,1844,1849
1870,1902,1840
1857,1868,1874
1885,1822,1794
1917,1837,1782
1859,1909,1862
1901,1878,1846
1852,1819,1839
1842,1841,1855
1844,1882,1895
1891,1884,1846
1902,1829,1712
1885,1831,1791
1837,1872,1878
1824,1874,1835
1840,1833,1785
1885,1825,1790
1923,1893,1856
1890,1877,1850
1890,1840,1798
1863,1837,1820
1793,1855,1835
1825,1858,1837
1885,1840,1808
1893,1856,1851
1868,1890,1878
1903,1884,1859
1939,1808,1737
1936,1851,1798
1840,1887,1899
1805,1858,1883
1861,1830,1791
1854,1844,1808
1856,1876,1855
1875,1879,1872
1899,1856,1810
1861,1853,1805
1834,1902,1857
1904,1883,1855
1836,1837,1812
1882,1840,1799
1856,1868,1805
1852,1875,1813
1923,1838,1805
1933,1840,1791
1836,1877,1872
1802,1868,1870
1822,1834,1809
1881,1857,1792
1872,1872,1857
1862,1866,1867
1821,1830,1803
1891,1854,1785
1941,1878,1822
1843,1856,1840
1791,1840,1790
1857,1841,1808
1840,1867,1839
1842,1856,1837
1936,1839,1776
1879,1858,1825
1845,1898,1870
1861,1890,1866
1910,1856,1813
1879,1846,1792
1854,1883,1848
1859,1872,1860
1914,1851,1820
1908,1846,1803
1898,1884,1838
1841,1886,1847
1845,1855,1809
1877,1841,1801
1909,1871,1808
1858,1870,1859
1891,1841,1840
1919,1846,1797
1847,1903,1855
1838,1872,1872
1894,1842,1806
1923,1873,1813
1877,1899,1853
1840,1859,1847
1834,1834,1805
1920,1836,1802
1910,1885,1878
1923,1891,1854
1801,1852,1808
1829,1867,1796
1808,1887,1839
1919,1872,1887
1917,1826,1840
1866,1831,1818
1851,1910,1851
1856,1874,1825
1826,1837,1803
1917,1852,1808
1910,1878,1847
1852,1879,1885
1808,1840,1803
1840,1847,1788
1841,1872,1846
1889,1859,1858
1860,1822,1835
1930,1841,1825
1865,1867,1841
1808,1899,1853
1877,1846,1786
1920,1858,1792
1842,1878,1867
1872,1871,1866
1875,1835,1792
1872,1844,1791
1801,1877,1863
1835,1886,1897
1892,1859,1841
1906,1863,1826
1858,1886,1854
1827,1844,1840
1823,1844,1798
2069,1856,1779
1872,1872,1836
1847,1874,1865
1874,1840,1811
1871,1853,1787
1843,1894,1835
1897,1872,1835
1835,1834,1792
1857,1867,1830
1812,1881,1854
1803,1866,1853
1856,1840,1808
1886,1857,1840
1884,1891,1885
1855,1849,1834
1847,1839,1762
1859,1861,1804
1856,1872,1872
1851,1867,1869
1885,1836,1774
1845,1851,1779
1893,1895,1867
1844,1881,1847
1827,1826,1777
1854,1846,1821
1910,1872,1889
1867,1876,1887
1902,1843,1809
1895,1847,1814
1871,1872,1847
1808,1871,1856
1809,1830,1791
1887,1872,1794
1819,1877,1847
1866,1873,1859
1857,1842,1797
1872,1857,1793
1885,1895,1840
1803,1878,1856
1790,1815,1803
1914,1840,1776
1865,1881,1830
1923,1907,1881
1840,1856,1840
1855,1856,1819
1825,1849,1838
1836,1843,1854
1856,1825,1789
1906,1829,1759
1868,1872,1841
1835,1905,1949
1811,1824,1813
1812,1839,1807
1837,1874,1851
1842,1863,1865
1797,1840,1808
1937,1842,1792
1897,1863,1823
1833,1876,1886
1814,1840,1834
1815,1831,1786
1798,1842,1808
1958,1859,1837
1853,1837,1792
1872,1842,1819
1811,1867,1873
1777,1874,1856
1856,1851,1809
1873,1841,1827
1874,1863,1878
1805,1851,1829
1895,1824,1751
1865,1835,1775
1840,1861,1872
1814,1859,1873
1862,1858,1823
1919,1840,1765
1909,1851,1760
1781,1855,1860
1777,1821,1827
1814,1831,1819
1856,1882,1842
1827,1872,1859
1829,1825,1791
1869,1842,1792
1824,1877,1840
1751,1859,1845
1835,1824,1776
1860,1842,1776
1841,1902,1858
1837,1867,1851
1893,1828,1788
1923,1858,1839
1856,1874,1878
1808,1872,1857
1815,1840,1817
1823,1852,1811
1856,1872,1867
1858,1872,1846
1842,1842,1803
1867,1867,1829
1928,1911,1871
1887,1887,1873
1865,1840,1811
1840,1847,1801
1840,1866,1839
1822,1866,1848
1858,1843,1808
1870,1840,1837
1840,1875,1915
1879,1879,1876
1903,1838,1803
1872,1839,1811
1841,1889,1867
1862,1884,1858
1904,1830,1761
1909,1840,1808
1823,1889,1906
1777,1863,1891
1856,1838,1825
1893,1833,1822
1886,1889,1867
1843,1870,1909
1840,1843,1840
1883,1840,1783
1915,1879,1855
1862,1872,1879
1840,1842,1832
1869,1853,1824
1853,1893,1875
1875,1872,1888
1877,1855,1810
1907,1841,1761
1859,1856,1823
1837,1853,1904
1846,1830,1873
1858,1827,1823
1827,1869,1834
1838,1878,1867
1850,1829,1811
1906,1837,1840
1936,1871,1851
1818,1877,1858
1811,1834,1813
1837,1811,1774
1897,1858,1818
1819,1872,1902
1812,1844,1861
1842,1831,1816
1904,1872,1852
1878,1861,1870
1807,1827,1809
1854,1853,1823
1849,1859,1861
1845,1875,1868
1844,1826,1823
1828,1824,1837
1833,1887,1838
1841,1857,1826
1911,1834,1774
1856,1842,1839
1806,1872,1901
1782,1867,1898
1807,1833,1809
1870,1842,1787
1904,1872,1824
1813,1841,1831
1853,1835,1850
1979,1869,1842
1869,1871,1840
1794,1866,1858
1825,1814,1807
1870,1846,1834
1895,1884,1862
1837,1854,1869
1804,1837,1846
1836,1842,1821
1835,1871,1867
1837,1856,1843
1877,1844,1763
1889,1845,1808
1818,1872,1923
1827,1886,1904
1866,1846,1779
1848,1856,1797
1855,1875,1850
1909,1881,1885
1967,1840,1800
1925,1842,1792
1775,1886,1896
1744,1865,1879
1813,1829,1810
1890,1847,1782
1910,1892,1840
1854,1878,1856
1819,1841,1832
1839,1854,1845
1851,1885,1868
1845,1865,1861
1853,1828,1824
1862,1856,1840
1840,1872,1875
1901,1858,1853
1933,1815,1771
1872,1840,1819
1793,1893,1906
1811,1856,1871
1924,1850,1801
1872,1851,1809
1808,1858,1910
1872,1871,1895
1911,1822,1769
1877,1840,1772
1803,1879,1878
1775,1863,1889
1835,1819,1809
1890,1840,1820
1925,1878,1851
1854,1860,1867
1851,1827,1808
1885,1842,1794
1845,1866,1866
1809,1863,1865
1797,1812,1808
1811,1828,1823
1818,1876,1885
1799,1849,1870
1831,1874,1779
1851,1846,1808
1766,1872,1871
1719,1861,1862
1767,1846,1767
1833,1890,1799
1835,1865,1847
1776,1922,1883
1770,1837,1807
1786,1794,1766
1834,1925,1827
1843,1887,1861
1764,1820,1824
1750,1872,1838
1749,1845,1894
1747,1842,1866
1798,1870,1803
1854,1879,1788
1772,1851,1856
1739,1839,1901
1796,1849,1829
1840,1853,1808
1793,1861,1851
1747,1844,1883
1775,1846,1813
1811,1903,1836
1793,1842,1919
1875,1842,1849
1858,1807,1776
1793,1807,1808
1844,1847,1891
1814,1849,1892
1715,1841,1815
1723,1851,1829
1750,1841,1893
1777,1808,1888
1811,1836,1802
1834,1840,1791
1858,1883,1849
1789,1877,1909
1756,1821,1853
1794,1833,1808
1793,1863,1827
1809,1872,1837
1803,1831,1825
1778,1828,1839
1775,1861,1879
1805,1867,1870
1844,1835,1802
1837,1841,1815
1800,1891,1882
1765,1899,1900
1786,1823,1841
1810,1856,1797
1878,1820,1825
1845,1859,1865
1796,1880,1857
1817,1881,1834
1789,1824,1858
1815,1907,1872
1845,1825,1778
1818,1903,1833
1860,1887,1853
1834,1818,1861
1749,1839,1836
1782,1874,1840
1808,1839,1885
1785,1827,1887
1818,1787,1823
1865,1797,1840
1840,1879,1876
1869,1858,1876
1843,1810,1802
1841,1851,1819
1809,1855,1875
1798,1859,1901
1811,1821,1774
1936,1824,1797
1852,1843,1843
1739,1842,1879
1808,1813,1842
1872,1804,1866
1856,1856,1909
1811,1845,1883
1820,1798,1782
1872,1840,1783
1920,1859,1855
1859,1840,1869
1808,1728,1825
1808,1783,1831
1803,1856,1883
1814,1855,1858
1852,1797,1786
1919,1746,1792
1901,1755,1872
1859,1828,1885
1813,1807,1866
1824,1811,1840
1812,1825,1872
1795,1838,1876
1827,1785,1815
1860,1808,1823
1840,1842,1887
1835,1843,1879
1825,1808,1818
1840,1803,1821
1824,1843,1872
1840,1846,1877
1899,1769,1825
1917,1768,1811
1851,1844,1868
1835,1861,1864
1823,1767,1791
1845,1779,1813
1815,1797,1860
1771,1790,1835
1817,1840,1813
1887,1840,1834
1903,1829,1886
1840,1822,1850
1789,1755,1798
1869,1780,1855
1846,1844,1894
1838,1835,1846
1863,1830,1786
1827,1789,1789
1819,1860,1860
1776,1824,1831
1810,1795,1762
1920,1724,1815
1901,1871,1831
1873,1836,1808
1842,1808,1788
1804,1819,1823
1773,1883,1857
1809,1883,1840
1853,1853,1755
1875,1840,1775
1858,1872,1809
1826,1868,1825
1811,1830,1799
1847,1831,1807
1861,1907,1841
1826,1777,1790
1834,1831,1767
1843,1827,1817
1865,1906,1855
1863,1875,1817
1872,1806,1774
1891,1929,1794
1872,1840,1873
1808,1895,1850
1851,1855,1765
1954,1839,1742
1905,1873,1870
1774,1899,1882
1779,1787,1792
1851,1791,1791
1939,1901,1802
1936,1873,1776
1785,1850,1819
1799,1884,1844
1822,1889,1889
1830,1934,1872
1887,1870,1826
1937,1895,1770
1872,1889,1798
1813,1872,1905
1872,1863,1883
1886,1861,1840
1843,1899,1903
1827,1872,1891
1863,1839,1823
1911,1850,1806
1917,1872,1854
1867,1875,1852
1857,1838,1815
1863,1840,1834
1892,1863,1890
1883,1871,1879
1853,1840,1818
1875,1840,1811
1879,1875,1867
1924,1868,1835
1964,1824,1808
1840,1825,1835
1840,1879,1879
1872,1887,1879
1900,1840,1836
1846,1828,1863
1825,1879,1889
1835,1902,1830
1898,1845,1805
1883,1828,1831
1883,1878,1909
1834,1875,1914
1955,1842,1822
1969,1836,1766
1826,1877,1857
1759,1873,1902
1813,1854,1851
1875,1855,1861
1898,1888,1895
1872,1878,1866
1857,1814,1792
1904,1842,1815
1875,1891,1894
1893,1890,1855
1853,1837,1813
1846,1838,1863
1841,1877,1920
1858,1865,1891
1878,1825,1805
1918,1846,1808
1847,1901,1891
1801,1882,1901
1846,1858,1858
1897,1857,1835
1920,1875,1826
1833,1871,1878
1831,1840,1874
1862,1860,1872
1870,1913,1865
1888,1879,1859
1947,1844,1818
1893,1870,1857
1863,1861,1898
1840,1859,1870
1895,1853,1825
1954,1858,1791
1840,1891,1849
1772,1882,1909
1847,1833,1845
1904,1872,1872
1899,1890,1872
1846,1883,1844
1862,1831,1791
1872,1842,1840
1875,1894,1920
1899,1895,1879
1874,1840,1825
1870,1863,1840
1861,1881,1856
1872,1877,1872
1902,1832,1771
1878,1856,1840
1842,1901,1915
1845,1886,1897
1860,1833,1806
1874,1839,1840
1865,1887,1904
1830,1879,1862
1863,1845,1802
1910,1868,1835
1906,1908,1909
1854,1893,1887
1858,1849,1808
1877,1855,1819
1840,1897,1875
1849,1891,1882
1859,1847,1797
1913,1861,1808
1949,1907,1887
1863,1902,1904
1810,1856,1840
1856,1858,1821
1859,1896,1872
1873,1898,1866
1872,1858,1838
1950,1865,1846
1912,1893,1849
1821,1890,1874
1808,1872,1840
1847,1878,1851
1872,1901,1881
1866,1873,1862
1869,1856,1840
1909,1867,1846
1888,1874,1856
1876,1901,1874
1863,1881,1831
1893,1870,1819
1881,1889,1872
1846,1873,1904
1894,1858,1831
1907,1877,1848
1889,1904,1882
1840,1885,1862
1889,1851,1803
1906,1863,1820
1858,1904,1861
1815,1885,1867
1813,1848,1837
1883,1856,1833
1867,1879,1898
1843,1904,1919
1850,1856,1818
1873,1855,1806
1894,1890,1857
1899,1888,1878
1871,1847,1822
1861,1862,1833
1876,1884,1869
1835,1891,1876
1895,1871,1761
1903,1866,1788
1872,1892,1906
1861,1898,1907
1866,1869,1840
1882,1874,1778
1891,1893,1866
1851,1886,1890
1841,1853,1840
1857,1865,1806
1840,1904,1936
1850,1920,1851
1883,1893,1809
1890,1872,1808
1863,1917,1878
1809,1891,1842
1851,1851,1777
1870,1874,1872
1877,1936,1923
1862,1904,1868
1844,1854,1776
1867,1857,1854
1877,1888,1829
1872,1879,1840
1850,1840,1753
1928,1867,1804
1856,1901,1926
1821,1905,1905
1830,1879,1748
1851,1867,1776
1852,1893,1871
1851,1883,1867
1887,1865,1845
1890,1868,1808
1855,1899,1904
1835,1902,1914
1862,1853,1850
1886,1852,1839
1907,1888,1861
1925,1918,1837
1851,1857,1781
1831,1844,1822
1840,1875,1894
1867,1879,1859
1851,1844,1840
1872,1857,1813
1857,1885,1872
1875,1874,1904
1889,1856,1823
1888,1885,1827
1836,1904,1860
1813,1893,1840
1842,1861,1767
1903,1871,1793
1888,1891,1878
1850,1875,1863
1878,1853,1815
2006,1854,1773
1925,1879,1855
1772,1879,1885
1815,1823,1807
1865,1869,1810
1861,1905,1873
1823,1889,1843
1839,1851,1806
1874,1852,1851
1895,1899,1907
1878,1898,1840
1841,1834,1819
1850,1839,1856
1847,1861,1870
1829,1859,1850
1862,1849,1804
1881,1841,1789
1850,1883,1899
1833,1858,1873
1857,1841,1823
1872,1833,1750
1897,1873,1818
1884,1891,1892
1856,1843,1814
1872,1843,1846
1921,1860,1903
1923,1872,1838
1888,1833,1806
1807,1853,1826
1783,1886,1855
1799,1882,1843
1872,1829,1729
1857,1811,1737
1840,1871,1855
1823,1863,1873
1833,1827,1785
1864,1833,1791
1866,1869,1816
1890,1872,1810
1935,1824,1807
1919,1821,1839
1884,1854,1890
1839,1872,1763
1825,1830,1841
1836,1823,1844
1843,1871,1846
1856,1868,1822
1909,1845,1810
1897,1821,1807
1839,1845,1872
1815,1851,1890
1858,1827,1862
1921,1840,1793
1854,1872,1885
1838,1869,1872
1841,1830,1808
1858,1826,1787
1883,1855,1858
1920,1846,1872
1899,1841,1840
1867,1843,1798
1872,1866,1806
1819,1847,1845
1862,1812,1791
1906,1845,1809
1867,1863,1839
1834,1840,1872
1868,1793,1805
1877,1799,1776
1876,1857,1857
1857,1850,1873
1859,1810,1839
1881,1834,1807
1900,1891,1894
1850,1871,1862
1870,1807,1780
1891,1815,1757
1899,1877,1839
1899,1856,1818
1879,1808,1857
1877,1792,1853
1854,1854,1916
1872,1873,1870
1938,1799,1679
1899,1808,1819
1840,1847,1899
1867,1846,1887
1879,1807,1785
1856,1821,1846
1844,1868,1882
1845,1858,1856
1885,1830,1831
1919,1821,1858
1933,1871,1897
1839,1845,1873
1823,1818,1810
1855,1826,1806
1867,1855,1897
1885,1850,1894
1905,1809,1769
1869,1811,1817
1871,1851,1923
1933,1838,1961
1893,1770,1794
1846,1819,1805
1804,1869,1861
1798,1851,1918
1881,1802,1847
1924,1830,1831
1875,1856,1873
1843,1845,1867
1844,1815,1814
1887,1818,1854
1894,1840,1904
1871,1856,1959
1872,1821,1810
1912,1790,1773
1910,1840,1839
1824,1861,1949
1801,1826,1859
1862,1836,1838
1937,1868,1867
1890,1839,1874
1831,1817,1851
1840,1843,1845
1840,1878,1887
1862,1877,1911
1877,1827,1834
1888,1817,1807
1856,1830,1840
1827,1847,1875
1845,1821,1846
1878,1811,1848
1906,1850,1846
1899,1861,1893
1825,1851,1846
1854,1843,1857
1873,1861,1892
1911,1854,1907
1899,1807,1821
1856,1825,1812
1863,1873,1895
1857,1859,1903
1846,1810,1837
1893,1814,1838
1836,1860,1917
1809,1866,1902
1854,1840,1825
1824,1840,1822
1867,1867,1870
1855,1842,1869
1877,1819,1814
1904,1821,1805
1903,1856,1875
1866,1852,1883
1887,1815,1821
1862,1834,1838
1858,1858,1899
1900,1857,1895
1902,1814,1808
1934,1822,1824
1843,1859,1904
1811,1863,1901
1861,1808,1803
1907,1808,1806
1867,1883,1887
1868,1872,1906
1847,1818,1817
1923,1813,1806
1911,1836,1840
1798,1849,1881
1806,1822,1829
1850,1835,1823
1821,1863,1872
1781,1875,1889
1899,1842,1840
1891,1834,1819
1869,1861,1856
1854,1840,1843
1787,1815,1825
1863,1853,1842
1883,1889,1887
1831,1871,1872
1874,1831,1828
1855,1838,1835
1899,1872,1862
1831,1862,1856
1808,1822,1803
1845,1842,1826
1843,1898,1882
1845,1875,1872
1905,1823,1791
1890,1847,1808
1898,1872,1859
1808,1872,1891
1840,1841,1836
1846,1838,1783
1850,1877,1803
1829,1883,1882
1865,1838,1840
1870,1840,1775
1871,1898,1879
1885,1897,1905
1830,1854,1817
1871,1857,1825
1826,1856,1841
1831,1849,1855
1862,1835,1824
1920,1843,1835
1872,1871,1863
1869,1856,1855
1903,1825,1808
1867,1829,1786
1793,1863,1840
1884,1867,1889
1822,1835,1829
1895,1841,1821
1858,1863,1839
1859,1850,1822
1846,1815,1797
1870,1840,1831
1904,1867,1879
1805,1885,1872
1867,1835,1802
1931,1839,1809
1898,1862,1827
1779,1875,1887
1805,1841,1843
1834,1833,1811
1824,1855,1859
1841,1857,1833
1886,1851,1794
1895,1855,1813
1830,1881,1884
1808,1878,1869
1819,1829,1819
1868,1840,1790
1856,1869,1840
1836,1863,1886
1858,1833,1844
1867,1837,1810
1809,1879,1857
1824,1872,1859
1695,1844,1808
1867,1842,1834
1872,1879,1879
1826,1861,1806
1867,1829,1805
1825,1854,1850
1827,1885,1883
1833,1888,1862
1861,1820,1791
1855,1834,1799
1842,1886,1872
1845,1872,1862
1888,1833,1792
1872,1856,1813
1886,1885,1866
1850,1881,1872
1872,1835,1814
1882,1833,1797
1926,1890,1867
1840,1882,1888
1875,1825,1785
1925,1837,1793
1807,1874,1856
1747,1872,1835
1851,1852,1808
1814,1845,1785
1851,1879,1888
1887,1881,1881
1808,1851,1786
1875,1846,1825
1833,1877,1853
1867,1873,1855
1904,1841,1818
1872,1852,1797
1840,1874,1847
1755,1877,1840
1859,1828,1792
1873,1811,1785
1803,1855,1835
1815,1861,1824
1829,1839,1799
1872,1853,1819
1951,1871,1843
1847,1865,1840
1812,1836,1791
1815,1840,1821
1826,1871,1859
1858,1872,1861
1862,1826,1794
1859,1828,1823
1841,1868,1870
1873,1866,1870
1840,1857,1815
1884,1839,1777
1840,1865,1850
1781,1879,1867
1914,1840,1797
1905,1840,1792
1887,1871,1878
1829,1867,1869
1860,1826,1776
1860,1835,1794
1926,1887,1893
1840,1883,1903
1851,1847,1805
1895,1840,1789
1851,1879,1878
1877,1886,1879
1857,1856,1784
1875,1840,1785
1853,1867,1865
1809,1870,1891
1820,1835,1812
1887,1840,1804
1936,1872,1799
1839,1887,1869
1817,1850,1825
1873,1860,1839
1856,1859,1847
1809,1860,1857
1840,1856,1813
1904,1867,1822
1915,1884,1869
1846,1851,1849
1850,1827,1794
1870,1821,1778
1899,1888,1904
1828,1883,1903
1817,1844,1815
1858,1840,1790
1890,1872,1846
1845,1862,1872
1829,1834,1826
1904,1830,1791
1887,1869,1830
1808,1872,1893
1809,1834,1840
1847,1840,1793
1867,1891,1858
1868,1897,1872
1851,1831,1776
1842,1815,1789
1861,1857,1856
1843,1855,1879
1890,1841,1804
1874,1819,1781
1807,1862,1862
1803,1870,1894
1856,1825,1819
1883,1839,1835
1874,1867,1847
1837,1872,1855
1801,1834,1811
1838,1841,1813
1838,1858,1866
1856,1866,1872
1863,1835,1789
1901,1830,1798
1936,1839,1824
1825,1871,1879
1755,1830,1814
1799,1829,1798
1875,1855,1858
1852,1853,1856
1808,1838,1813
1835,1847,1851
1841,1874,1868
1855,1856,1840
1872,1836,1794
1865,1839,1810
1855,1856,1853
1833,1867,1844
1835,1842,1820
1920,1847,1808
1934,1871,1808
1799,1869,1886
1823,1840,1841
1850,1827,1810
1840,1856,1856
1799,1874,1872
1833,1833,1790
1842,1846,1776
1838,1883,1856
1831,1886,1889
1843,1835,1815
1856,1841,1803
1850,1872,1853
1873,1875,1872
1869,1840,1807
1873,1826,1786
1863,1861,1847
1827,1850,1849
1790,1835,1807
1851,1838,1808
1882,1867,1867
1861,1878,1872
1842,1823,1801
1853,1828,1823
1811,1855,1858
1776,1856,1874
1818,1825,1837
1881,1828,1818
1875,1843,1854
1798,1845,1837
1837,1841,1797
1856,1826,1774
1875,1855,1835
1887,1849,1817
1827,1834,1813
1802,1856,1837
1818,1873,1887
1875,1866,1844
1906,1840,1810
1876,1840,1824
1807,1874,1881
1744,1853,1840
1808,1824,1789
1861,1826,1805
1859,1842,1854
1840,1857,1843
1931,1838,1776
1893,1834,1757
1806,1866,1867
1781,1859,1882
1792,1824,1804
1906,1839,1798
1825,1866,1877
1759,1860,1872
1781,1811,1840
1846,1856,1822
1875,1890,1859
1837,1867,1862
1842,1831,1810
1889,1825,1775
1984,1855,1815
1837,1859,1861
1727,1825,1827
1781,1840,1841
1858,1893,1878
1887,1872,1883
1871,1811,1777
1843,1833,1793
1798,1867,1865
1805,1860,1872
1840,1826,1787
1877,1850,1827
1872,1862,1855
1875,1878,1872
1786,1838,1802
1777,1840,1821
1823,1866,1828
1901,1859,1870
1857,1828,1825
1834,1838,1828
1824,1872,1878
1837,1877,1903
1822,1840,1821
1840,1850,1806
1842,1867,1856
1844,1856,1845
1841,1847,1826
1856,1840,1833
1851,1873,1839
1856,1890,1869
1827,1854,1835
1865,1842,1815
1891,1855,1865
1815,1837,1872
1840,1868,1792
1889,1808,1793
1846,1919,1867
1821,1863,1870
1795,1856,1829
1831,1881,1829
1839,1840,1872
1825,1846,1872
1862,1822,1802
1863,1778,1777
1888,1904,1859
1847,1881,1882
1869,1829,1822
1856,1843,1775
1806,1872,1862
1779,1873,1921
1840,1808,1819
1910,1820,1776
1824,1900,1862
1776,1853,1878
1806,1811,1804
1872,1829,1815
1840,1857,1853
1839,1846,1862
1819,1834,1827
1823,1833,1815
1808,1866,1859
1826,1875,1904
1861,1827,1843
1879,1828,1791
1872,1883,1840
1827,1905,1879
1830,1840,1808
1904,1871,1794
1870,1845,1851
1779,1909,1920
1755,1822,1817
1811,1854,1795
1856,1856,1853
1863,1875,1858
1824,1840,1828
1869,1831,1838
1914,1840,1847
1856,1860,1851
1787,1847,1781
1776,1771,1793
1834,1866,1872
1843,1857,1887
1887,1830,1870
1918,1821,1833
1847,1872,1818
1808,1885,1872
