2499,2182,1898
2485,2197,1917
2448,2218,1979
2432,2167,1931
2415,2117,1867
2375,2112,1931
2318,2096,2294
2267,2031,1982
2257,1968,1796
2218,1958,1774
2145,1961,1815
2099,1915,1836
2089,1843,1833
2045,1838,1834
1990,1829,1825
1946,1775,1835
1935,1718,1826
1904,1715,1829
1840,1707,1872
1791,1651,1723
1771,1600,1828
1747,1595,1808
1694,1585,1828
1630,1507,1828
1605,1441,1836
1556,1427,1824
1472,1415,1838
1439,1361,1741
1438,1307,1887
1369,1262,4095
720,706,3157
0,0,4095
0,0,249
0,0,0
0,0,1353
0,0,1952
0,0,1968
0,0,1856
202,7,1776
499,319,2117
589,452,1738
530,476,2635
421,449,1232
501,486,1120
660,590,1648
762,720,1979
787,835,1891
822,887,1862
897,926,1825
958,1014,1851
975,1117,1885
1003,1168,1781
1061,1204,1854
1099,1287,1866
1117,1376,1840
1137,1394,1886
1194,1420,1807
1225,1479,1783
1217,1535,1831
1232,1557,1835
1285,1574,1831
1303,1629,1857
1295,1687,1847
1310,1699,1825
1360,1697,1850
1380,1755,1850
1367,1807,1933
1370,1808,1811
1408,1801,1903
1437,1842,3173
1418,1891,4039
1409,1876,2352
1439,1868,1648
1451,1893,1610
1442,1935,1818
1170,1661,2768
896,1378,976
974,1458,1217
1098,1573,2192
1123,1556,2811
891,1301,2645
734,1200,467
832,1311,1182
980,1391,1702
1105,1453,1787
1168,1557,1829
1182,1646,1794
1221,1669,1849
1292,1690,2165
1226,1642,2335
1147,1627,1271
1204,1663,1394
1301,1694,1797
1362,1789,1895
1371,1838,1839
1387,1840,1855
1425,1840,1823
1463,1900,1826
1459,1943,1835
1457,1940,1827
1505,1935,1830
1535,1979,1828
1522,2013,1829
1520,2010,1829
1555,1999,1830
1575,2029,1831
1568,2066,1841
1572,2062,1777
1611,2032,1700
1617,2070,1718
1600,2113,1759
1610,2106,1712
1647,2085,1650
1663,2123,1676
1648,2155,1711
1635,2129,1661
1677,2112,1592
1693,2143,1625
1685,2167,1677
1680,2155,1637
1712,2128,1577
1712,2149,1589
1686,2177,1628
1687,2169,1593
1729,2154,1535
1750,2176,1580
1724,2203,1616
1691,2175,1566
1805,2150,1505
1703,2183,1557
1774,2211,1616
1749,2182,1568
1705,2159,1505
1776,2179,1535
1795,2209,1600
1761,2192,1560
1810,2176,1493
1850,2195,1533
1783,2230,1599
1807,2197,1569
1835,2166,1500
1830,2194,1530
1743,2220,1597
1822,2192,1560
1787,2163,1496
1873,2189,1534
1795,2204,1588
1782,2189,1535
1806,2163,1500
1825,2187,1535
1806,2209,1599
1759,2185,1572
1830,2159,1509
1842,2180,1535
1814,2204,1590
1849,2174,1553
1823,2134,1487
1831,2160,1535
1810,2173,1597
1802,2146,1535
1858,2116,1488
1829,2137,1515
1789,2163,1582
1849,2133,1535
1814,2096,1483
1827,2107,1510
1802,2127,1570
1776,2097,1523
1797,2067,1458
1793,2081,1486
1788,2112,1557
1749,2090,1535
1815,2054,1482
1795,2072,1506
1775,2077,1566
1767,2059,1523
1794,2023,1471
1766,2038,1509
1747,2066,1565
1728,2034,1520
1729,1997,1459
1767,2015,1500
1769,2039,1562
1794,2016,1529
1747,1987,1485
1801,2006,1517
1723,2032,1575
1771,2005,1532
1741,1969,1478
1775,1991,1520
1792,2014,1584
1702,1990,1535
1791,1965,1505
1797,1984,1535
1784,2007,1595
1758,1983,1564
1744,1957,1510
1827,1973,1535
1751,1999,1603
1770,1976,1572
1778,1944,1510
1830,1965,1535
1776,1991,1617
1775,1971,1801
1776,1936,2198
1737,1920,2361
1662,1887,1581
1638,1843,1439
1671,1823,1721
1681,1840,1870
1638,1854,1872
1602,1812,1840
1587,1771,1824
1616,1773,1828
1535,1781,2104
762,1082,4095
0,0,4095
0,0,4095
0,0,4095
0,0,4095
0,0,4095
0,0,4095
0,0,4095
0,0,4095
0,0,4095
0,0,4095
0,0,2795
0,0,1779
0,0,1607
0,0,1759
0,0,1856
0,0,1863
0,0,1841
0,635,1832
0,1114,1830
496,1249,1831
924,1290,1831
960,1394,1835
1013,1527,1833
1040,1594,1829
1111,1652,1834
1253,1751,1834
1219,1854,1829
1273,1895,1830
1431,1933,1831
1578,2030,1830
1574,2128,1827
1666,2171,1825
1677,2189,1833
1746,2257,1827
1810,2336,1827
1861,2362,1829
1875,2366,1829
1923,2424,1874
1923,2498,1934
1967,2502,1904
2015,2496,1865
2067,2549,2032
2091,2612,2636
1983,2511,2389
2007,2451,1372
2097,2533,1507
2154,2650,1781
2199,2693,1875
2299,2711,1859
2366,2801,1835
2371,2882,1823
2410,2896,1826
2489,2914,1826
2551,2975,1829
2553,3053,1829
2603,3057,1830
2605,3057,1827
2705,3121,1844
2729,3193,1855
2730,3200,1968
2768,3162,1789
2763,3189,1749
2880,3247,1803
2807,3226,1834
2863,3185,1835
2864,3207,1831
2790,3239,1827
2762,3193,1826
2814,3125,1829
2761,3139,1826
2819,3162,1827
2733,3116,1829
2800,3054,1828
2779,3054,1830
2732,3057,1826
2703,3008,1831
2722,2941,1827
2723,2938,1865
2685,2942,1903
2661,2898,1842
2673,2856,1776
2681,2858,1792
2657,2874,1840
2642,2832,1807
2667,2785,1743
2669,2793,1749
2635,2803,1793
2640,2768,1773
2668,2731,1724
2682,2741,1747
2650,2761,1792
2640,2723,1763
2673,2689,1719
2701,2700,1751
2665,2711,1798
2643,2681,1764
2672,2640,1712
2699,2672,1744
2674,2675,1799
2672,2641,1783
2692,2606,1727
2691,2617,1744
2654,2638,1798
2641,2605,1771
2686,2559,1725
2694,2559,1755
2663,2599,1815
2647,2559,1793
2685,2533,1745
2686,2528,1761
2655,2545,1808
2643,2522,1792
2677,2480,1744
2671,2495,1761
2629,2515,1807
2624,2483,1793
2652,2448,1754
2671,2469,1780
2641,2480,1839
2640,2452,1808
2655,2416,1754
2662,2429,1780
2623,2451,1837
2614,2423,1819
2643,2384,1775
2665,2399,1808
2639,2416,1855
2607,2383,1831
2630,2350,1772
2633,2362,1804
2611,2382,1863
2595,2352,1843
2624,2318,1792
2623,2320,1809
2582,2352,1854
2559,2320,1829
2611,2288,1776
2635,2290,1782
2559,2311,1837
2523,2282,1825
2544,2241,1779
2550,2257,1806
2545,2277,1854
2514,2249,1814
2535,2211,1771
2554,2214,1808
2518,2235,1863
2506,2208,1835
2516,2166,1765
2528,2174,1782
2511,2211,1858
2495,2181,1836
2512,2135,1775
2521,2146,1792
2480,2172,1838
2469,2155,1814
2496,2116,1777
2498,2128,1801
2464,2143,1840
2448,2122,1821
2450,2077,1764
2459,2094,1794
2436,2112,1843
2423,2085,1814
2444,2037,1757
2448,2058,1775
2403,2071,1827
2390,2043,1810
2425,2010,1772
2419,2018,1787
2383,2039,1837
2368,2021,1809
2387,1983,1754
2395,1997,1773
2355,2006,1823
2342,1981,1803
2359,1949,1748
2375,1961,1773
2350,1980,1819
2320,1954,1790
2337,1915,1742
2337,1931,1765
2305,1947,1808
2288,1923,1786
2304,1889,1732
2304,1899,1749
2275,1920,1803
2257,1903,1775
2278,1863,1728
2286,1872,1746
2240,1883,1797
2223,1857,1779
2243,1826,1728
2250,1857,1745
2213,1872,1791
2199,1846,1763
2221,1819,1712
2236,1819,1739
2195,1840,1792
2192,1825,1776
2214,1804,1728
2214,1807,1745
2185,1840,1806
2165,1807,1785
2187,1785,1729
2193,1795,1753
2157,1813,1803
2145,1790,1776
2165,1759,1729
2170,1780,1753
2135,1808,1805
2139,1779,1791
2158,1745,1725
2139,1771,1751
2105,1804,1822
2096,1776,1799
2126,1741,1746
2133,1755,1773
2099,1777,1810
2085,1759,1791
2103,1723,1744
2114,1737,1771
2075,1774,1813
2061,1751,1788
2086,1726,1741
2112,1755,1776
2070,1805,1824
2061,1765,1805
2075,1725,1745
2081,1680,1766
2045,1798,1822
2031,1788,1808
2045,1757,1749
2058,1747,1759
2004,1697,1801
1993,1679,1775
2009,1665,1723
2007,1659,1745
1968,1715,1785
1953,1645,1766
1980,1694,1712
1975,1690,1730
1937,1649,1773
1904,1673,1745
1923,1626,1686
1926,1617,1710
1914,1678,1763
1904,1667,1741
1911,1634,1682
1926,1651,1712
1891,1678,1761
1884,1657,1747
1905,1662,1706
1914,1667,1727
1886,1646,1784
1884,1708,1770
1910,1625,1714
1908,1657,1731
1878,1683,1776
1872,1681,1758
1901,1685,1715
1911,1662,1744
1877,1690,1794
1855,1659,1779
1888,1637,1732
1893,1661,1746
1861,1695,1802
1849,1665,1777
1885,1666,1731
1883,1655,1747
1837,1687,1780
1830,1654,1757
1856,1626,1715
1881,1680,1742
1847,1670,1776
1803,1655,1748
1823,1610,1678
1870,1638,1702
1887,1683,1767
1847,1658,1750
1835,1620,1689
1775,1601,1678
1703,1635,1744
1717,1616,1734
1835,1616,1677
1808,1600,1639
1717,1646,1687
1718,1614,1690
1760,1579,1677
1724,1622,1683
1686,1658,1733
1702,1659,1669
1783,1632,1643
1779,1653,1658
1715,1665,1747
1722,1690,1717
1754,1600,1655
1754,1632,1691
1863,1709,1739
1854,1689,1709
1674,1642,1741
1680,1675,1791
1703,1701,1827
1787,1703,1767
1821,1655,1681
1838,1718,1793
1792,1761,1919
1740,1731,1936
1793,1728,1808
1776,1743,1778
1710,1774,1845
1776,1793,1875
1879,1717,1897
1862,1767,1931
1879,1819,1934
1794,1779,1954
1840,1808,1904
1889,1750,1929
1856,1842,2007
1856,1877,2028
1874,1830,1937
1896,1874,1971
1935,1743,2039
1899,1874,2069
1968,1845,1955
1918,1793,1990
1818,1893,2126
1925,1921,2116
1996,1841,2074
1963,1857,2096
1911,1905,2149
1955,1893,2101
2023,1886,2112
2063,1895,2113
2007,1946,2156
1953,1924,2165
2007,1887,2046
1981,1905,2121
1919,1927,2170
1978,1929,2130
2017,1841,2047
2042,1910,2075
1958,1991,2113
1947,1923,2178
2037,1936,2160
2017,1921,2162
2001,2014,2176
2007,1922,2174
1936,1931,2102
1888,1943,2097
1843,1950,2160
1663,2012,2199
1578,1890,2166
1615,1986,2139
1520,1956,2203
1437,1941,2170
1488,1904,2106
1477,1914,2109
1450,1968,2198
1330,1917,2161
1328,1883,2038
1369,1882,2089
1334,1909,2197
1360,1861,2161
1362,1856,2058
1334,1870,2081
1316,1904,2127
1210,1871,2096
1232,1801,2021
1253,1796,2042
1257,1858,2128
1285,1773,2089
1270,1776,2060
1232,1840,2031
1227,1875,2086
1251,1936,2128
1343,1861,1980
1323,1796,1948
1240,1815,2092
1162,1781,2045
1163,1785,2001
1249,1838,2016
1296,1840,2019
1184,1743,2053
1333,1776,2029
1445,1815,1995
1117,1775,1971
1097,1794,2001
1302,1703,1862
1378,1771,1961
1314,1776,2117
1213,1810,2044
1256,1770,1910
1415,1752,1903
1354,1775,1907
1302,1759,1923
1115,1691,1923
1270,1731,1979
1320,1787,1993
1382,1738,1942
1298,1746,1950
1246,1740,1924
1217,1733,1915
1237,1719,1875
1248,1659,1862
1360,1690,1879
1454,1771,2007
1271,1706,1945
1361,1667,1803
1387,1691,1899
1329,1723,1918
1264,1692,1957
1259,1566,1772
1485,1629,1867
1394,1681,2090
1317,1646,2017
1338,1535,1793
1434,1570,1830
1449,1648,1958
1339,1583,1918
1441,1488,1779
1488,1501,1770
1367,1585,1969
1375,1586,2003
1442,1519,1875
1427,1475,1829
1472,1565,1891
1360,1535,1946
1354,1434,1791
1486,1494,1789
1477,1561,2013
1435,1563,2000
1535,1478,1804
1490,1499,1803
1445,1523,1943
1533,1510,1939
1490,1424,1739
1408,1461,1776
1374,1497,1930
1495,1520,1951
1582,1480,1878
1511,1488,1870
1458,1510,1906
1490,1500,1901
1559,1439,1798
1515,1414,1776
1482,1463,1835
1530,1499,1881
1535,1473,1845
1535,1456,1828
1521,1488,1821
1695,1494,1806
1591,1440,1823
1517,1489,1905
1489,1505,1901
1485,1459,1798
1594,1473,1745
1617,1487,1789
1531,1529,1904
1502,1485,1851
1648,1466,1719
1626,1485,1767
1526,1525,1854
1525,1520,1795
1766,1487,1761
1647,1463,1742
1461,1526,1846
1518,1535,1888
1579,1504,1789
1618,1535,1772
1618,1577,1857
1648,1579,1839
1703,1520,1709
1680,1489,1670
1606,1584,1847
1614,1584,1903
1670,1527,1754
1712,1535,1739
1680,1616,1796
1597,1616,1853
1629,1590,1792
1665,1605,1821
1653,1630,1829
1685,1584,1703
1786,1584,1765
1744,1615,1824
1733,1637,1814
1712,1629,1847
1711,1615,1774
1721,1648,1745
1667,1682,1838
1672,1664,1811
1751,1664,1831
1741,1657,1808
1697,1680,1813
1725,1662,1744
1776,1666,1789
1744,1658,1793
1783,1698,1857
1806,1713,1840
1732,1663,1770
1739,1685,1766
1791,1712,1795
1747,1712,1786
1825,1699,1785
1826,1682,1763
1691,1706,1771
1678,1697,1808
1777,1677,1785
1787,1690,1767
1739,1717,1781
1757,1712,1789
1795,1686,1731
1794,1658,1708
1808,1711,1773
1771,1701,1759
1759,1670,1767
1730,1688,1778
1769,1723,1760
1857,1680,1712
1769,1658,1708
1718,1710,1770
1767,1741,1806
1780,1691,1735
1808,1689,1706
1838,1683,1755
1750,1705,1776
1742,1712,1750
1824,1700,1716
1807,1699,1783
1820,1749,1819
1881,1753,1739
1797,1708,1751
1779,1717,1792
1856,1728,1776
1786,1726,1759
1750,1686,1695
1827,1739,1765
1876,1786,1783
1834,1766,1808
1841,1727,1734
1811,1749,1765
1839,1778,1767
1828,1747,1732
1826,1723,1730
1839,1754,1769
1831,1779,1804
1819,1782,1789
1787,1700,1617
1855,1718,1771
1803,1758,1790
1861,1751,1765
1848,1717,1723
1808,1712,1662
1826,1744,1850
1790,1715,1769
1858,1655,1641
1793,1667,1684
1826,1709,1691
1801,1709,1776
1799,1691,1678
1797,1675,1678
1741,1669,1662
1775,1686,1709
1735,1623,1617
1763,1644,1709
1739,1666,1701
1752,1665,1673
1807,1616,1616
1831,1639,1623
1693,1666,1714
1648,1652,1651
1750,1633,1580
1837,1666,1695
1724,1681,1712
1742,1703,1715
1811,1680,1680
1819,1685,1613
1797,1686,1639
1798,1682,1690
1726,1663,1665
1825,1698,1701
1762,1757,1770
1792,1742,1779
1814,1685,1662
1775,1707,1682
1785,1744,1713
1791,1742,1740
1815,1710,1659
1844,1769,1702
1878,1794,1813
1807,1775,1704
1805,1740,1645
1910,1747,1730
1932,1802,1813
1808,1803,1806
1767,1753,1691
1803,1762,1713
1808,1791,1759
1818,1778,1791
1903,1771,1738
1938,1776,1661
1866,1815,1782
1847,1839,1856
1879,1777,1708
1965,1814,1807
1885,1859,1790
1779,1831,1813
1862,1811,1682
1902,1797,1693
1878,1839,1839
1855,1856,1834
1870,1826,1744
1873,1812,1729
1840,1856,1791
1805,1841,1834
1850,1808,1680
1878,1829,1715
1845,1840,1775
1876,1809,1785
1871,1789,1658
1804,1776,1699
1812,1798,1760
1808,1810,1772
1904,1778,1680
1889,1786,1686
1783,1840,1801
1712,1817,1762
1780,1774,1707
1833,1779,1789
1901,1809,1764
1833,1819,1777
1840,1802,1722
1847,1796,1689
1825,1859,1777
1803,1870,1805
1814,1808,1814
1856,1825,1764
1867,1853,1767
1839,1856,1795
1840,1850,1769
1877,1857,1805
1865,1862,1808
1856,1863,1804
1911,1856,1775
1915,1872,1764
1904,1903,1789
1852,1905,1808
1931,1901,1808
2000,1872,1744
1831,1881,1778
1779,1870,1769
1853,1874,1808
1885,1904,1861
1890,1917,1863
1927,1906,1877
1919,1885,1776
1935,1887,1795
1931,1917,1835
1872,1918,1936
1872,1910,1834
1886,1915,1850
1942,1930,1829
1879,1919,1855
1905,1894,1722
1935,1910,1834
1936,1951,1908
1903,1936,1862
1873,1856,1760
1901,1906,1685
1973,1945,1910
1819,1898,1876
1822,1865,1748
1876,1902,1835
1871,1925,1886
1839,1918,1886
1877,1874,1803
1924,1906,1855
1883,1899,1730
1863,1891,1783
1828,1831,1710
1885,1872,1762
1886,1947,1894
1856,1965,1882
1917,1883,1813
1956,1904,1759
1847,1919,1840
1851,1904,1855
1954,1866,1729
1886,1875,1778
1845,1918,1884
1859,1934,1903
1865,1895,1776
1942,1885,1760
1900,1949,1879
1844,1933,1887
1839,1890,1762
1911,1920,1808
1938,1959,1840
1874,1911,1819
1906,1872,1770
1978,1933,1874
1876,1954,1893
1831,1934,1897
1909,1931,1856
1910,1922,1807
1933,1959,1878
1980,1936,1840
1918,1895,1808
1888,1899,1850
1850,1963,1915
1873,1956,1915
2000,1947,1839
2018,1927,1838
1926,1966,1904
1861,1946,1927
1875,1926,1863
1942,1923,1808
1968,1979,1910
1949,1993,1931
1946,1934,1858
2000,1946,1909
1986,1996,1926
1929,1959,1837
1882,1909,1847
1930,1945,1951
1921,1980,1946
1930,1952,1859
2081,1923,1846
1952,1955,1891
1887,2000,1964
1923,1984,1968
1995,1949,1845
1975,1953,1847
1930,1981,1952
1936,1963,1968
2019,1915,1823
2084,1954,1824
1994,1993,1953
1894,1973,1984
1941,1943,1927
1953,1965,1875
2010,2000,1925
1931,1983,1941
2015,1920,1873
2015,1958,1845
1938,1970,1937
1875,1979,1990
1968,1929,1911
2077,1959,1919
2009,2000,1958
1951,2000,1923
1936,1933,1841
1979,1926,1811
1936,1955,1936
1931,1950,1946
2047,1926,1903
2019,1939,1904
1985,1971,1940
1891,1966,1921
1906,1920,1859
2009,1968,1905
1981,1985,1979
1973,1965,1963
2003,1936,1887
1936,1939,1873
2021,1983,1967
1977,1949,1935
2099,1930,1840
1956,1951,1872
1959,1997,2015
1984,1950,1939
1952,1931,1935
1992,1982,1918
1997,1991,1922
1948,1941,1893
1999,1947,1911
2065,1958,1923
2035,1973,1922
1975,1940,1903
1994,1937,1907
1982,1968,1936
1936,1978,1973
1920,1953,1936
2038,1904,1829
2067,1949,2064
1963,1995,2416
1951,1968,2139
2064,1926,1837
2065,1933,1840
2061,1968,1946
1891,1974,1952
1936,1939,1870
2010,1943,1891
2011,1968,1897
2071,1969,1940
2002,1921,1875
2158,1935,1840
1900,1949,1908
1907,1946,1927
1893,1923,1958
1973,1946,1936
1998,1978,1965
2000,1954,1897
2020,1903,1828
1999,1909,1843
2043,1981,1961
1971,1955,1959
1954,1875,1879
2004,1904,1862
1975,2000,1963
1968,1980,1904
1958,1909,1871
2003,1923,1904
1953,1922,1873
1959,1937,1893
2016,1919,1872
2016,1907,1840
2011,1925,1877
1953,1965,1968
1965,1929,1933
2022,1936,1884
2025,1963,1933
1900,1951,1917
1957,1913,1874
1885,1905,1902
1995,1951,1935
1999,1945,1877
1991,1909,1814
1956,1927,1895
1963,1971,1984
1989,1936,1942
1994,1907,1815
1956,1936,1893
2061,1967,1979
1991,1971,1919
1991,1906,1870
1984,1890,1858
1965,1954,1919
1942,1947,1904
2071,1923,1872
1994,1883,1858
1905,1934,1936
1902,1926,1959
1937,1901,1879
1987,1919,1866
1919,1946,1937
1945,1904,1872
1998,1872,1796
1989,1899,1868
1953,1929,1941
1924,1905,1904
1936,1863,1815
1836,1871,1827
1954,1910,1905
1945,1904,1901
1989,1883,1830
1938,1887,1844
1934,1892,1855
1901,1908,1875
1930,1891,1824
1936,1904,1842
1946,1917,1905
1930,1926,1951
2013,1905,1881
2005,1905,1856
1931,1915,1876
1898,1922,1859
1968,1881,1804
2038,1891,1855
1970,1931,1939
1904,1935,1903
2011,1879,1786
2002,1904,1811
2031,1947,1925
1971,1945,1975
1982,1918,1904
1987,1904,1861
1951,1941,1910
1899,1921,1903
1915,1879,1851
2054,1905,1870
1989,1933,1939
2005,1940,1895
2069,1907,1789
1973,1899,1873
1886,1920,1918
1943,1963,1955
1967,1898,1849
2036,1901,1837
1947,1934,1913
1949,1941,1936
1963,1902,1860
1999,1936,1849
1919,1953,1921
1856,1905,1934
2017,1875,1840
1968,1909,1870
1886,1935,1878
1995,1914,1904
1974,1899,1837
1917,1881,1775
1911,1914,1851
1939,1920,1945
1947,1871,1869
1967,1894,1858
1923,1951,1894
1958,1936,1883
1936,1874,1808
1973,1890,1849
1962,1895,1874
1918,1902,1867
1927,1879,1788
1959,1874,1808
1893,1892,1903
1897,1889,1894
1959,1859,1801
2017,1879,1844
1956,1910,1880
1857,1900,1879
1885,1826,1795
1936,1835,1788
1936,1894,1872
1904,1919,1922
1910,1854,1808
1934,1851,1785
1958,1888,1859
1919,1886,1907
1923,1857,1835
1959,1904,1837
1938,1893,1866
1921,1879,1870
1920,1840,1790
1919,1862,1819
1893,1888,1919
1936,1872,1879
1968,1856,1827
1958,1853,1811
1927,1905,1874
1888,1897,1904
1927,1856,1827
1919,1872,1817
1996,1922,1873
1936,1872,1845
1933,1847,1836
1920,1844,1778
1887,1902,1884
1881,1910,1923
1910,1869,1873
1905,1858,1815
1858,1863,1819
1921,1887,1881
1954,1887,1840
1936,1849,1779
1963,1891,1918
1923,1861,1894
1905,1822,1776
1894,1850,1799
1921,1872,1903
1911,1867,1899
1935,1819,1797
1987,1833,1777
1909,1890,1895
1871,1873,1895
1852,1818,1791
1887,1840,1777
1902,1872,1872
1909,1869,1904
1915,1826,1808
1934,1850,1808
1855,1875,1873
1872,1855,1842
1921,1837,1833
1971,1872,1811
1972,1863,1821
1907,1835,1830
1920,1790,1719
1838,1840,1851
1798,1892,1936
1839,1861,1894
1904,1840,1838
1963,1852,1825
1913,1856,1855
1829,1850,1845
1849,1801,1776
1905,1796,1744
1911,1837,1822
1863,1839,1837
1808,1760,1696
1858,1790,1793
1815,1807,1870
1789,1803,1809
1873,1747,1680
1894,1748,1670
1803,1762,1747
1735,1751,1721
1770,1714,1697
1789,1691,1680
1756,1727,1739
1733,1723,1744
1712,1648,1634
1792,1669,1638
1744,1691,1724
1687,1692,1712
1681,1630,1627
1705,1645,1623
1681,1654,1679
1658,1664,1685
1738,1630,1601
1731,1626,1589
1654,1667,1683
1731,1674,1731
1702,1635,1601
1685,1648,1616
1711,1697,1722
1712,1693,1730
1745,1658,1650
1769,1679,1651
1733,1701,1697
1712,1715,1719
1721,1712,1698
1772,1735,1714
1825,1755,1763
1794,1747,1765
1743,1723,1771
1761,1771,1770
1831,1808,1779
1851,1820,1835
1818,1785,1775
1793,1751,1711
1859,1834,1805
1802,1839,1845
1827,1819,1817
1872,1813,1814
1859,1843,1882
1847,1872,1904
1920,1840,1828
1859,1851,1798
1859,1883,1879
1861,1872,1878
1873,1847,1801
1911,1849,1835
1885,1900,1907
1807,1862,1854
1865,1840,1803
1978,1857,1825
1946,1901,1877
1911,1911,1871
1803,1854,1791
1850,1885,1904
1892,1914,1967
1857,1881,1859
1902,1874,1799
1921,1914,1877
1889,1919,1940
1907,1869,1903
1900,1869,1867
1909,1956,1862
1897,1997,1901
1916,1879,1902
1914,1874,1850
1905,1910,1872
1957,1905,2007
1947,1965,2930
1899,1842,2704
1808,1808,1553
1839,1793,1434
1865,1789,1727
1869,1877,1871
1935,1913,1870
1872,1909,1838
1866,1904,1821
1939,1872,1823
1943,1889,1827
1881,1935,1831
1875,1925,1829
1950,1888,1826
1943,1840,1829
1917,1941,1831
1905,1923,1826
1903,1946,1827
1927,1954,1835
1895,1951,1824
1906,1917,1824
1922,1877,1827
1958,1920,1825
1951,1958,1829
1936,1943,1825
1984,1887,1827
1952,1911,1832
1912,1953,1829
1873,1949,1830
1921,1854,1827
2019,1916,1827
1918,1964,1830
1863,1936,1828
1904,1929,1835
1963,1938,1848
1933,1979,1874
1911,1948,1842
1953,1949,1792
1950,1949,1770
1895,1961,1829
1870,1934,1856
1967,1925,1811
2000,1916,1771
1970,1968,1801
1883,1962,1852
1898,1938,1849
1920,1904,1819
1920,1986,1871
1904,1962,1833
1939,1914,1757
1972,1903,1802
1934,2000,1867
1938,1984,1850
1926,1936,1801
1891,1968,1775
1893,1957,1842
1915,1937,1846
1949,1947,1757
1983,1965,1765
1932,1957,1871
1850,2001,1838
1853,1884,1773
1962,1931,1796
1965,1895,1840
1921,1933,1833
1941,1898,1744
1916,1903,1777
1915,1960,1856
1853,1947,1840
1872,1891,1803
1922,1906,1815
1910,1943,1872
1886,1925,1843
1952,1887,1755
1995,1906,1755
1911,1922,1841
1838,1888,1879
1840,1921,1802
1889,1859,1787
1911,2027,1811
1931,1924,1840
1966,1878,1774
1964,1911,1763
1813,1933,1827
1793,1888,1835
1866,1857,1791
1936,1879,1811
1929,1963,1863
1894,1899,1823
1872,1872,1759
1929,1878,1813
1935,1904,1859
1859,1897,1841
1861,1871,1776
1883,1861,1782
1904,1887,1841
1956,1879,1838
1904,1831,1767
1851,1895,1791
1854,1954,1863
1826,1891,1866
1870,1836,1808
1901,1759,1795
1941,1882,1857
1955,1940,1826
1899,1872,1806
1840,1872,1825
1844,1857,1920
1872,1873,1919
1910,1818,1803
1904,1837,1781
1814,1852,1850
1822,1872,1866
1875,1749,1811
1890,1921,1821
1863,1899,1850
1875,1857,1808
1883,1814,1750
1907,1871,1795
1867,1916,1823
1828,1783,1810
1810,1846,1799
1850,1809,1789
1815,1856,1808
1859,1826,1805
1879,1854,1782
1856,1815,1808
1811,1868,1807
1851,1872,1808
1857,1821,1754
1852,1836,1789
1843,1850,1797
1866,1827,1765
1835,1829,1761
1856,1855,1797
1809,1870,1837
1799,1858,1824
1809,1840,1778
1872,1840,1804
1859,1870,1843
1829,1907,1851
1817,1821,1792
1946,1886,1770
1879,1831,1819
1835,1866,1865
1853,1814,1782
1836,1840,1808
1811,1827,1873
1861,1836,1846
1872,1904,1767
1817,1821,1792
1844,1872,1857
1838,1841,1882
1840,1822,1809
1851,1829,1793
1823,1870,1872
1776,1855,1850
1853,1795,1779
1887,1815,1820
1856,1846,1863
1799,1854,1865
1798,1826,1837
1808,1827,1815
1855,1862,1872
1813,1850,1865
1871,1804,1792
1853,1837,1842
1808,1857,1891
1810,1854,1884
1808,1808,1802
1817,1824,1763
1846,1865,1881
1840,1839,1869
1835,1823,1798
1841,1840,1818
1827,1879,1869
1819,1862,1870
1859,1818,1815
1869,1837,1831
1808,1872,1856
1815,1861,1867
1830,1818,1805
1857,1827,1808
1870,1872,1871
1808,1850,1873
1777,1808,1792
1829,1815,1799
1843,1846,1872
1810,1846,1857
1815,1823,1751
1803,1823,1809
1821,1886,1913
1787,1862,1893
1832,1813,1753
1887,1823,1779
1814,1842,1854
1818,1850,1870
1793,1811,1815
1792,1805,1790
1807,1842,1847
1782,1854,1840
1787,1792,1755
1840,1815,1782
1818,1869,1842
1808,1859,1856
1840,1808,1788
1813,1811,1779
1793,1843,1840
1840,1846,1823
1858,1805,1742
1779,1816,1792
1747,1858,1871
1776,1856,1889
1802,1813,1795
1824,1837,1794
1808,1870,1857
1781,1855,1843
1815,1819,1781
1834,1825,1794
1813,1847,1862
1801,1855,1855
1815,1823,1786
1839,1827,1801
1840,1855,1868
1808,1837,1854
1834,1814,1801
1873,1829,1776
1847,1861,1858
1894,1823,1765
1859,1819,1784
1837,1826,1828
1810,1870,1906
1734,1851,1891
1817,1799,1786
1883,1813,1776
1803,1847,1879
1782,1853,1866
1781,1808,1825
1809,1831,1847
1794,1856,1863
1792,1841,1856
1870,1813,1797
1936,1822,1803
1790,1829,1831
1744,1830,1855
1834,1798,1827
1875,1808,1826
1809,1838,1872
1772,1847,1858
1799,1821,1798
1857,1835,1838
1871,1885,1904
1823,1867,1833
1744,1799,1794
1845,1802,1791
1859,1839,1862
1766,1840,1872
1741,1792,1778
1814,1795,1792
1863,1837,1862
1811,1859,1897
1819,1827,1830
1853,1827,1787
1859,1844,1808
1771,1823,1850
1754,1808,1840
1795,1803,1818
1829,1844,1857
1901,1823,1738
1827,1789,1769
1751,1819,1875
1783,1857,1919
1770,1840,1859
1824,1803,1770
1866,1795,1733
1765,1830,1863
1728,1840,1904
1766,1815,1825
1826,1823,1811
1826,1842,1850
1778,1833,1843
1811,1806,1806
1871,1813,1792
1833,1853,1847
1821,1826,1872
1809,1807,1781
1845,1808,1750
1773,1837,1847
1738,1838,1858
1744,1801,1761
1871,1815,1795
1841,1861,1878
1744,1850,1863
1821,1806,1804
1856,1793,1792
1779,1851,1871
1789,1847,1859
1893,1802,1777
1834,1804,1821
1790,1843,1892
1827,1859,1854
1809,1831,1791
1835,1857,1818
1798,1869,1890
1829,1855,1883
1775,1811,1776
1787,1833,1789
1815,1866,1862
1804,1844,1872
1826,1808,1814
1904,1847,1802
1876,1843,1878
1877,1843,1840
1766,1805,1789
1739,1846,1916
1771,1850,1828
1814,1872,1845
1879,1808,1754
1827,1797,1783
1744,1843,1883
1791,1882,1835
1853,1840,1872
