1776,1835,1862
1791,1797,1808
1799,1775,1747
1824,1819,1797
1885,1842,1855
1776,1818,1839
1754,1777,1741
1808,1782,1782
1840,1839,1872
1859,1823,1835
1849,1787,1751
1776,1801,1787
1776,1840,1869
1782,1810,1822
1813,1776,1761
1843,1797,1795
1847,1845,1874
1795,1819,1834
1855,1780,1746
1853,1810,1774
1926,1845,1838
1776,1826,1835
1770,1808,1775
1890,1829,1809
1874,1853,1872
1833,1799,1808
1751,1756,1741
1744,1817,1798
1917,1846,1901
1795,1815,1850
1794,1782,1753
1831,1831,1803
1834,1869,1890
1818,1840,1837
1850,1765,1743
1840,1803,1787
1795,1863,1904
1797,1841,1872
1821,1798,1779
1858,1808,1796
1856,1840,1886
1818,1820,1862
1818,1799,1749
1846,1809,1776
1842,1842,1882
1837,1838,1867
1809,1761,1712
1856,1791,1783
1866,1853,1901
1867,1839,1874
1809,1787,1759
1786,1808,1777
1879,1866,1930
1853,1820,1861
1782,1775,1734
1827,1805,1768
1862,1840,1857
1826,1803,1830
1795,1764,1737
1926,1810,1749
1917,1836,1853
1803,1808,1855
1783,1797,1791
1823,1794,1764
1877,1840,1872
1915,1824,1854
1854,1776,1740
1765,1793,1785
1778,1824,1872
1805,1813,1839
1829,1776,1725
1881,1799,1774
1873,1840,1904
1829,1845,1863
1843,1791,1712
1841,1789,1793
1815,1836,1906
1825,1807,1853
1842,1804,1784
1837,1808,1776
1837,1835,1866
1907,1838,1843
1840,1787,1738
1808,1771,1727
1863,1845,1884
1830,1792,1831
1825,1755,1734
1853,1793,1775
1840,1821,1885
1921,1847,1828
1904,1776,1713
1839,1791,1777
1907,1841,1916
1845,1801,1872
1778,1763,1762
1842,1825,1827
1856,1850,1895
1841,1814,1831
1894,1793,1786
1905,1815,1807
1818,1839,1858
1806,1808,1809
1843,1778,1758
1871,1808,1765
1889,1840,1861
1829,1814,1845
1894,1790,1779
1909,1797,1805
1870,1829,1883
1776,1819,1834
1835,1790,1790
1873,1817,1808
1931,1843,1839
1807,1795,1840
1790,1770,1776
1864,1821,1799
1882,1828,1838
1871,1810,1802
1838,1786,1805
1862,1811,1810
1874,1843,1894
1819,1799,1811
1851,1774,1743
1844,1811,1808
1847,1850,1904
1859,1806,1850
1853,1778,1761
1862,1809,1795
1846,1845,1883
1819,1812,1859
1874,1777,1760
1920,1790,1742
1840,1853,1871
1815,1827,1851
1830,1758,1712
1891,1793,1791
1891,1856,1925
1806,1819,1874
1789,1758,1777
1898,1837,1802
1885,1839,1872
1808,1820,1856
1809,1776,1783
1891,1803,1813
1929,1843,1886
1893,1771,1806
1886,1776,1757
1846,1799,1821
1835,1831,1899
1796,1809,1875
1810,1782,1767
1855,1798,1808
1890,1817,1907
1867,1807,1843
1872,1754,1747
1919,1808,1808
1873,1843,1926
1828,1791,1876
1824,1744,1776
1838,1794,1807
1867,1837,1895
1873,1813,1872
1881,1781,1802
1905,1810,1853
1846,1824,1879
1863,1808,1840
1831,1761,1769
1842,1791,1799
1873,1847,1927
1845,1822,1875
1856,1779,1778
1902,1801,1808
1921,1825,1870
1833,1808,1866
1810,1771,1813
1869,1799,1846
1902,1843,1891
1951,1826,1851
1823,1763,1765
1830,1798,1842
1871,1831,1917
1843,1808,1858
1911,1793,1771
1918,1789,1788
1936,1825,1897
1895,1831,1872
1792,1767,1779
1819,1754,1837
1848,1820,1954
1856,1794,1901
1841,1738,1755
1919,1818,1817
1935,1810,1904
1871,1862,1861
1871,1763,1774
1872,1825,1845
1865,1808,1909
1856,1808,1893
1834,1821,1786
1899,1844,1829
1984,1842,1904
1897,1853,1863
1829,1781,1808
1844,1831,1857
1867,1855,1918
1872,1849,1858
1911,1796,1760
1943,1825,1813
1879,1891,1941
1827,1843,1900
1846,1811,1808
1904,1837,1838
1934,1866,1911
1909,1867,1879
1870,1808,1771
1867,1808,1815
1893,1895,1920
1871,1858,1904
1865,1825,1808
1912,1854,1812
1898,1869,1897
1890,1841,1863
1887,1846,1789
1918,1811,1840
1882,1807,1936
1890,1821,1873
1974,1791,1776
2027,1853,1799
1909,1871,1920
1787,1838,1883
1797,1858,1810
1858,1840,1859
1885,1882,1939
1873,1899,1893
1808,1770,1692
1945,1843,1821
2010,1909,1943
1895,1886,1901
1840,1810,1840
1872,1806,1862
1891,1893,1936
1872,1819,1899
1874,1791,1793
1919,1789,1830
1927,1875,1917
1899,1883,1872
1858,1859,1804
1891,1905,1872
1904,1904,1910
1861,1856,1822
1904,1775,1709
2029,1869,1859
1929,1899,1949
1807,1861,1927
1815,1815,1829
1915,1872,1835
1939,1918,1899
1872,1902,1875
1858,1853,1807
1900,1856,1826
1909,1885,1927
1855,1856,1887
1853,1820,1798
1917,1849,1826
1904,1877,1910
1886,1872,1883
1882,1836,1805
1904,1868,1840
1902,1889,1902
1909,1860,1851
1936,1820,1785
1976,1847,1819
1963,1871,1937
1825,1872,1895
1812,1839,1826
1878,1818,1857
1902,1900,1927
1881,1803,1888
1901,1702,1772
1946,1808,1811
1911,1889,1918
1865,1875,1894
1867,1838,1808
1911,1811,1840
1914,1884,1926
1887,1865,1892
1886,1824,1821
1907,1866,1856
1910,1872,1907
1887,1843,1868
1894,1802,1803
1931,1753,1849
1930,1926,1935
1889,1899,1881
1885,1796,1792
1918,1890,1837
1924,1891,1920
1888,1905,1889
1891,1824,1798
1913,1879,1829
1911,1923,1913
1891,1876,1878
1897,1774,1799
1931,1743,1841
1939,1856,1938
1901,1945,1887
1903,1907,1787
1938,1770,1829
1939,1818,1917
1904,1813,1872
1919,1727,1801
1951,1871,1846
1949,1893,1920
1929,1874,1884
1927,1663,1797
1965,1754,1847
1989,1839,1955
1985,2014,1971
1958,2070,1825
2003,1969,1870
1990,1807,1919
1957,1588,1897
1984,1600,1986
2011,1713,1863
2015,1827,1837
2003,1989,1904
2014,2043,1828
2032,1882,1795
2046,1848,1856
2032,1854,1875
2047,1870,1798
2096,1951,1855
2070,1986,1897
2032,1885,1851
2039,1776,1771
2087,1834,1840
2102,1936,1936
2061,1859,1862
2060,1950,1761
2084,1851,1808
2123,2080,1949
2106,2063,1943
2087,1894,1809
2092,1824,1757
2071,1825,1847
2039,1843,1858
2047,1904,1787
2097,1874,1815
2101,1921,1920
2064,1940,1862
2064,1806,1751
2096,1957,1790
2106,1881,1892
2080,1776,1872
2064,1810,1766
2089,1925,1806
2096,1936,1886
2080,1825,1861
2077,1840,1759
2119,1920,1775
2094,1885,1851
2063,1785,1849
2080,1823,1788
2096,1801,1792
2082,1841,1871
2070,1840,1850
2067,1776,1744
2070,1776,1782
2073,1856,1877
2061,1810,1872
2044,1744,1755
2074,1775,1771
2073,1833,1855
2035,1824,1823
2031,1744,1739
2082,1759,1808
2071,1812,1869
2034,1787,1811
2026,1735,1728
2063,1758,1773
2070,1801,1872
2026,1774,1831
2018,1725,1734
2059,1745,1766
2074,1787,1862
2026,1759,1819
2015,1717,1735
2063,1743,1783
2064,1776,1877
2023,1755,1840
2017,1714,1744
2045,1740,1778
2054,1778,1871
2015,1746,1834
2007,1702,1744
2053,1718,1785
2054,1746,1872
2009,1713,1840
2011,1675,1759
2053,1696,1804
2035,1725,1889
2006,1687,1842
2000,1646,1766
2025,1657,1795
2037,1697,1891
2016,1673,1866
2013,1622,1774
2043,1650,1808
2032,1677,1883
1999,1650,1856
2018,1627,1791
2058,1684,1839
2061,1647,1916
2025,1617,1883
2006,1615,1791
2061,1697,1837
2066,1647,1919
2038,1567,1872
2032,1535,1793
2074,1659,1841
2099,1811,1947
2057,1574,1901
2047,1562,1804
2106,1904,1878
2094,1648,1935
2047,1459,1872
2064,1633,1815
2106,1738,1872
2097,1777,1937
2038,1472,1866
2045,1435,1808
2090,1521,1854
2091,1616,1929
2041,1613,1871
2025,1617,1783
2078,1627,1839
2095,1682,1937
2064,1668,1903
2042,1638,1803
2083,1669,1840
2096,1695,1936
2080,1675,1878
2046,1637,1804
2073,1677,1855
2078,1715,1939
2037,1689,1893
2032,1650,1776
2095,1685,1827
2129,1712,1922
2069,1684,1900
2027,1650,1820
2046,1681,1852
2068,1723,1936
2022,1702,1902
2018,1667,1808
2057,1694,1845
2067,1737,1951
2035,1706,1915
2010,1661,1799
2042,1694,1855
2064,1740,1951
2017,1720,1906
1998,1693,1798
2055,1711,1858
2096,1739,1972
2037,1711,1927
2011,1706,1825
2069,1862,1890
2083,1782,1968
2027,1631,1907
1996,1572,1795
2042,1675,1858
2101,1988,2007
2024,1762,1922
1954,1469,1762
2029,1572,1846
2069,1733,1984
2007,1651,1910
1968,1626,1790
2021,1712,1845
2064,1776,1969
2012,1730,1920
1969,1668,1797
2030,1721,1851
2070,1775,1965
1997,1722,1882
1958,1683,1778
2017,1742,1858
2064,1793,1987
2003,1764,1919
1950,1709,1780
2000,1742,1830
2046,1790,1936
2015,1771,1907
1964,1719,1793
1979,1760,1845
2000,1810,1947
1963,1771,1882
1938,1713,1775
2000,1767,1842
2032,1831,1958
1972,1782,1893
1936,1735,1767
1979,1779,1872
2018,1838,1986
1966,1802,1904
1923,1743,1792
1979,1776,1823
2014,1841,1999
1968,1808,1942
1937,1756,1802
1973,1803,1905
2000,1847,1953
1957,1810,1947
1931,1767,1776
1984,1798,1854
2013,1846,1954
1966,1827,1936
1933,1776,1797
1982,1807,1853
2016,1847,1957
1984,1827,1933
1959,1782,1805
2005,1808,1840
2101,1871,1961
2038,1821,1888
1936,1769,1776
1982,1821,1879
2025,1862,1995
2000,1859,1915
1983,1836,1881
2000,1809,1904
2005,1843,1933
1969,1819,1906
1955,1787,1814
2000,1829,1861
2022,1873,1958
1968,1838,1917
1942,1799,1806
1980,1840,1856
2014,1883,1949
2014,1859,1915
2032,1808,1797
1999,1827,1821
1981,1879,1951
1967,1861,1915
1994,1834,1817
2022,1851,1840
2017,1893,1941
1846,1822,1854
1814,1793,1777
1967,1857,1867
1921,1883,1941
1839,1855,1893
1823,1807,1761
1909,1854,1808
1932,1898,1953
1909,1882,1911
1872,1827,1778
1895,1855,1811
1922,1908,1911
1871,1872,1846
1856,1821,1746
2083,1895,1778
2064,1914,1840
1790,1883,1886
1765,1835,1801
1920,1874,1798
1861,1901,1875
1819,1891,1914
1806,1872,1867
1742,1907,1769
1744,1920,1878
1822,1905,1910
1834,1857,1789
1775,1856,1872
1770,1919,2078
1700,1889,1940
1745,1859,1809
1753,1845,1803
1725,1872,1874
1834,1902,1893
1825,1837,1776
1744,1835,1739
1678,1904,1859
1693,1921,1901
1759,1843,1814
1750,1847,1827
1801,1890,1755
1706,1872,1823
1663,1825,1759
1721,1863,1851
1703,1906,1924
1709,1907,1878
1725,1857,1801
1711,1861,1811
1651,1883,1900
1697,1886,1870
1703,1877,1840
1706,1919,1856
1661,1920,1897
1690,1913,1834
1697,1869,1711
1617,1844,1789
1617,1905,1889
1625,1899,1865
1606,1868,1729
1616,1858,1799
1723,1931,1936
1566,1898,1914
1456,1869,1818
1531,1875,1746
1646,1911,1852
1607,1895,1830
1565,1857,1777
1570,1894,1920
1530,1922,1855
1566,1898,1857
1661,1849,1683
1667,1875,1904
1590,1956,1891
1485,1936,1940
1519,1893,1782
1527,1904,1794
1570,1933,1910
1627,1924,1897
1594,1842,1647
1689,1951,1723
1535,1968,1835
1454,1943,1898
1505,1910,1905
1588,1947,1850
1606,1937,1861
1618,1935,1789
1694,1910,1786
1588,1936,1861
1476,1987,1980
1486,1950,1843
1495,1908,1804
1557,1936,1837
1517,1985,1786
1379,1984,1872
1439,1917,1754
1585,1923,1771
1502,1982,1897
1333,1981,1910
1358,1904,1719
1506,1944,1763
1522,2030,1895
1513,1963,1847
1433,1925,1797
1405,1968,1844
1455,1995,1846
1567,1984,1808
1424,1910,1755
1457,1952,1738
1465,2007,1850
1411,1991,1931
1408,1936,1751
1503,1998,1718
1532,2001,1834
1406,1981,1870
1488,1988,1776
1513,1977,1779
1473,2001,1872
1433,1996,1827
1414,1963,1778
1495,2005,1771
1563,2025,1795
1527,2001,1806
1414,1967,1730
1449,2003,1791
1470,2032,1835
1481,2017,1807
1498,1978,1719
1573,1962,1765
1509,2001,1846
1483,2025,1779
1535,1959,1658
1520,1983,1751
1424,2000,1870
1431,1980,1791
1535,1968,1761
1530,1967,1771
1558,2002,1861
1663,2027,1815
1635,1940,1671
1487,1886,1684
1409,1983,1894
1438,1962,1907
1516,1946,1797
1632,1966,1702
1674,2017,1712
1504,1993,1857
1451,1936,1818
1492,1915,1747
1487,1931,1714
1553,1968,1791
1627,1924,1757
1757,1930,1671
1674,1974,1759
1454,1959,1840
1389,1872,1698
1535,1905,1680
1773,1969,1733
1691,1943,1680
1510,1906,1696
1425,1931,1799
1437,1952,1827
1502,1849,1655
1657,1911,1663
1648,1979,1827
1613,1981,1860
1635,1958,1776
1745,1908,1608
1663,1942,1739
1435,1930,1744
1584,1969,1798
1567,1913,1753
1635,1953,1776
1600,1947,1758
1728,1969,1775
1693,1921,1753
1616,1955,1769
1567,1953,1776
1521,1932,1745
1693,1931,1712
1613,1956,1854
1590,2010,1882
1627,1978,1800
1648,1953,1712
1648,1974,1735
1686,2017,1799
1737,2003,1746
1662,1986,1723
1707,1999,1738
1616,2007,1715
1535,2027,1733
1631,1975,1677
1705,2011,1714
1767,2090,1749
1646,2055,1767
1531,2018,1753
1623,2038,1744
1612,2054,1779
1682,2073,1745
1746,2045,1686
1689,2014,1677
1653,2063,1762
1698,2066,1748
1611,2006,1701
1678,2006,1681
1760,2085,1767
1745,2085,1753
1616,2033,1706
1565,2064,1692
1615,2089,1794
1608,2062,1773
1638,1973,1611
1750,2028,1658
1711,2077,1814
1659,2022,1744
1745,1979,1619
1760,2007,1664
1705,2085,1851
1648,2011,1732
1711,2010,1718
1727,2021,1756
1676,2045,1757
1677,2035,1789
1704,2000,1712
1728,2002,1693
1713,2061,1744
1690,2023,1744
1725,1978,1683
1772,2002,1726
1711,1986,1718
1831,2007,1741
1744,1981,1721
1702,1986,1754
1767,1977,1702
1728,1981,1726
1666,1971,1803
1643,1981,1794
1712,1936,1659
1807,1984,1754
1809,1964,1777
1707,1913,1717
1535,1936,1685
1761,2000,1815
1818,1964,1808
1781,1963,1776
1814,1989,1760
1761,1968,1717
1710,1879,1611
1681,1906,1563
1750,2032,1906
1807,1987,1945
1968,1911,1734
1872,1941,1715
1648,1983,1850
1589,1926,1779
1776,1855,1584
1872,1968,1796
1728,1999,1895
1586,1863,1661
1786,1895,1625
1824,1900,1709
1846,1942,1797
1751,1971,1911
1791,1891,1739
1784,1840,1566
1841,1967,1759
1761,1947,1849
1812,1885,1791
1757,1895,1746
1669,1887,1633
1831,1917,1758
1888,1922,1893
1795,1935,1865
1829,1949,1827
1777,1879,1750
1853,1850,1699
1781,1884,1711
1794,1937,1878
1813,1910,1866
1789,1831,1729
1783,1818,1651
1807,1936,1833
1747,1917,1840
1781,1845,1719
1750,1823,1666
1811,1920,1840
1818,1924,1895
1814,1840,1750
1854,1855,1700
1734,1943,1885
1705,1929,1872
1775,1872,1776
1877,1856,1747
1893,1906,1793
1727,1840,1766
1737,1827,1750
1808,1872,1797
1889,1922,1883
1807,1904,1858
1891,1837,1754
1872,1847,1763
1823,1910,1831
1806,1863,1800
1732,1823,1803
1728,1877,1846
1854,1904,1870
1841,1847,1811
1788,1809,1713
1843,1851,1799
1840,1887,1866
1808,1872,1853
1805,1819,1747
1886,1854,1791
1845,1890,1886
1863,1867,1857
1827,1809,1775
1811,1831,1718
1849,1899,1876
1782,1856,1860
1862,1831,1782
1853,1825,1798
1876,1851,1833
1872,1866,1829
1845,1825,1828
1807,1833,1854
1826,1877,1883
1884,1863,1870
1833,1779,1733
1835,1804,1802
1891,1858,1903
1857,1877,1897
1821,1793,1743
1961,1810,1771
1929,1840,1857
1856,1840,1922
1819,1809,1828
1819,1814,1750
1856,1855,1840
1804,1834,1873
1905,1817,1862
1906,1802,1823
1927,1857,1902
1819,1856,1856
1837,1821,1787
1905,1809,1826
1918,1835,1899
1813,1843,1889
1853,1813,1840
1920,1808,1849
1931,1824,1841
1891,1853,1856
1894,1819,1819
1855,1803,1847
1882,1835,1859
1895,1849,1897
1855,1817,1893
1850,1812,1829
1897,1865,1856
1840,1821,1846
1878,1778,1808
1936,1809,1855
1907,1840,1905
1917,1802,1805
1867,1802,1839
1900,1812,1887
1897,1858,1922
1840,1812,1798
1855,1791,1744
1895,1835,1850
1907,1878,1974
1871,1841,1937
1859,1783,1807
1935,1818,1821
1875,1849,1935
1843,1853,1935
1845,1795,1829
1873,1803,1829
1905,1853,1911
1910,1818,1856
1948,1782,1781
1877,1793,1821
1892,1845,1895
1872,1843,1927
1906,1795,1819
1936,1808,1820
1919,1871,1945
1884,1824,1889
1935,1799,1830
1921,1796,1822
1892,1835,1886
1846,1840,1914
1872,1781,1827
1945,1808,1858
1894,1853,1936
1867,1846,1929
1901,1791,1858
1894,1798,1840
1935,1830,1868
1931,1825,1901
1920,1781,1858
1891,1771,1814
1936,1840,1855
1931,1857,1949
1870,1793,1872
1911,1808,1859
1957,1843,1873
1946,1834,1814
1895,1780,1789
1923,1792,1871
1911,1850,1965
1890,1817,1872
1915,1795,1780
1919,1791,1814
1920,1847,1935
1902,1835,1904
1917,1807,1811
1941,1793,1803
1926,1821,1887
1914,1832,1929
1904,1786,1861
1878,1795,1837
1904,1846,1888
1934,1813,1840
1947,1814,1837
1922,1807,1840
1971,1802,1831
1913,1801,1890
1884,1798,1865
1947,1811,1853
1872,1858,1931
1856,1846,1901
1939,1789,1808
1923,1786,1819
1922,1822,1921
1911,1819,1933
1904,1786,1838
1921,1801,1824
1934,1840,1891
1982,1801,1871
1927,1754,1828
1919,1791,1836
1904,1844,1930
1910,1808,1862
1955,1765,1765
1955,1792,1818
1918,1803,1891
1936,1807,1877
1970,1781,1824
1835,1788,1825
1846,1822,1899
1899,1802,1900
1899,1747,1795
1919,1789,1840
1872,1826,1911
1889,1809,1888
1933,1763,1808
1911,1766,1799
1922,1827,1874
1935,1823,1872
1899,1749,1801
1925,1769,1854
1905,1822,1916
1863,1781,1895
1863,1733,1821
1908,1798,1834
1952,1788,1871
1906,1850,1817
1855,1744,1728
1904,1727,1862
1884,1803,1927
1875,1824,1874
1961,1829,1808
1951,1755,1825
1975,1809,1799
1919,1762,1810
1821,1813,1776
1844,1806,1859
1840,1803,1959
1863,1815,1932
1902,1821,1823
1934,1818,1839
1906,1840,1882
1857,1817,1857
1930,1773,1779
1951,1755,1729
1919,1809,1926
1877,1879,1955
1889,1797,1842
1887,1794,1842
1898,1804,1887
1863,1851,1897
1886,1795,1765
1914,1775,1774
1963,1837,1895
1897,1840,1901
1872,1793,1835
1899,1794,1837
1918,1812,1872
1859,1839,1875
1883,1765,1806
1914,1760,1806
1936,1835,1830
1942,1818,1845
1893,1792,1849
1825,1808,1873
1842,1829,1927
1872,1767,1895
1935,1774,1814
1918,1770,1817
1872,1845,1904
1835,1812,1872
1883,1760,1776
1939,1763,1819
1878,1793,1906
1829,1823,1857
1947,1826,1799
1904,1797,1847
1861,1847,1846
1862,1840,1863
1843,1791,1863
1894,1791,1856
1875,1821,1909
1858,1835,1867
1854,1802,1775
1871,1806,1812
1870,1835,1902
1872,1814,1889
1887,1777,1815
1936,1804,1847
1930,1823,1902
1885,1833,1821
1822,1795,1798
1840,1818,1851
1858,1851,1912
1892,1874,1881
1870,1765,1790
1853,1802,1846
1893,1872,1933
1925,1852,1893
1904,1792,1799
1850,1790,1790
1921,1837,1884
1808,1830,1915
1798,1806,1842
1854,1823,1815
1879,1863,1911
1872,1840,1892
1837,1781,1826
1877,1850,1859
1877,1849,1899
1857,1863,1873
1884,1838,1799
1955,1813,1784
1847,1849,1889
1829,1872,1904
1855,1808,1839
1892,1810,1805
1873,1887,1870
1867,1838,1898
1808,1707,1831
1840,1814,1851
1827,1849,1869
1853,1865,1903
1904,1778,1726
1902,1826,1826
1824,1860,1904
1826,1862,1902
1859,1809,1854
1883,1808,1872
1845,1921,1872
1884,1847,1825
1838,1811,1795
1857,1771,1815
1861,1841,1867
1867,1818,1897
1830,1748,1790
1838,1718,1853
1889,1898,1934
1872,1794,1882
1872,1855,1776
1838,1834,1809
1854,1875,1900
1831,1802,1904
1850,1872,1826
1879,1796,1803
1872,1833,1883
1858,1857,1882
1818,1867,1850
1851,1840,1839
1866,1832,1875
1839,1754,1865
1840,1740,1810
1855,1807,1814
1869,1873,1895
1851,1854,1879
1879,1811,1803
1871,1795,1840
1899,1872,1915
1839,1840,1857
1808,1807,1767
1829,1827,1814
1843,1870,1920
1872,1839,1882
1854,1799,1782
1827,1829,1794
1837,1861,1875
1846,1851,1895
1886,1837,1819
1913,1913,1792
1807,1777,1823
1808,1794,1840
1829,1867,1814
1840,1791,1868
1820,1858,1913
1850,1856,1849
1831,1821,1803
1840,1765,1815
1839,1926,1842
1887,1840,1856
1917,1728,1774
1846,1727,1825
1804,1877,1909
1758,1840,1841
1891,1821,1792
1936,1869,1810
1838,1869,1878
1809,1859,1858
1818,1808,1811
1859,1809,1793
1919,1867,1877
1906,1871,1907
1842,1811,1821
1806,1807,1754
1786,1840,1829
1786,1850,1889
1810,1829,1856
1849,1835,1831
1875,1856,1865
1845,1829,1829
1808,1787,1772
1835,1808,1807
1831,1871,1886
1840,1856,1883
1897,1818,1805
1936,1810,1809
1922,1853,1863
1899,1830,1839
1769,1839,1821
1777,1842,1829
1776,1840,1878
1810,1824,1847
1899,1825,1787
1894,1833,1809
1853,1872,1907
1827,1859,1909
1808,1805,1805
1863,1841,1829
1867,1872,1885
1811,1827,1840
1835,1808,1765
1968,1848,1787
1874,1862,1872
1797,1853,1919
1872,1846,1871
1959,1829,1802
1840,1863,1872
1779,1845,1889
1807,1787,1778
1824,1816,1818
1845,1867,1881
1839,1855,1894
1840,1829,1855
1841,1844,1840
1894,1853,1843
1919,1823,1804
1812,1799,1792
1769,1823,1831
1847,1870,1905
1871,1872,1935
1873,1810,1826
1869,1818,1824
1846,1866,1863
1870,1840,1857
1841,1813,1827
1830,1829,1841
1868,1854,1843
1772,1829,1872
1767,1808,1808
1846,1840,1855
1834,1857,1902
1818,1843,1878
1862,1823,1811
1895,1835,1839
1814,1853,1858
1806,1856,1842
1831,1791,1809
1840,1815,2493
1845,1823,2785
1877,1862,2075
1827,1819,1710
1897,1838,1724
1893,1840,1809
1822,1855,1843
1745,1799,1840
1776,1803,1831
1819,1834,1823
1873,1840,1827
1901,1809,1829
1810,1822,1828
1773,1840,1829
1782,1840,1827
1797,1812,1826
1832,1807,1826
1870,1839,1827
1884,1827,1827
1792,1819,1830
1770,1840,1828
1789,1866,1829
1826,1827,1829
1808,1774,1829
1841,1825,1829
1822,1866,1830
1821,1839,1830
1840,1808,1824
1851,1829,1827
1823,1865,1830
1794,1843,1826
1808,1803,1829
1898,1817,1827
1946,1858,1808
1844,1862,1761
1763,1844,1723
1776,1809,1702
1843,1830,1722
1806,1831,1703
1798,1799,1665
1840,1840,1747
1829,1867,1802
1852,1840,1759
1883,1809,1679
1882,1839,1691
1840,1877,1789
1829,1843,1754
1790,1810,1703
1856,1837,1697
1888,1875,1784
1825,1869,1794
1795,1808,1715
1807,1821,1715
1809,1879,1799
1831,1859,1775
1840,1809,1703
1810,1835,1730
1814,1872,1791
1837,1857,1786
1840,1827,1714
1888,1866,1794
1856,1878,1843
1798,1858,1833
1827,1820,1743
1911,1841,1737
1904,1869,1788
1858,1842,1774
1780,1821,1744
1808,1850,1782
1809,1885,1855
1822,1881,1863
1845,1839,1798
1873,1852,1776
1854,1871,1840
1825,1877,1858
1834,1835,1806
1904,1843,1753
1891,1881,1833
1826,1878,1851
1805,1838,1783
1839,1831,1779
1942,1870,1831
1927,1861,1891
1824,1856,1828
1775,1853,1882
1777,1872,1910
1786,1847,1910
1839,1841,1791
1872,1858,1738
1898,1895,1904
1887,1873,1891
1859,1853,1795
1846,1851,1762
1812,1871,1867
1819,1873,1808
1855,1850,1748
1875,1869,1834
1815,1895,1872
1806,1877,1872
1833,1835,1813
1850,1831,1777
1847,1886,1858
1851,1884,1866
1868,1845,1843
1863,1841,1805
1840,1897,1857
1867,1885,1845
1831,1831,1758
1823,1846,1841
1802,1893,1886
1838,1885,1882
1855,1829,1801
1904,1834,1834
1887,1897,1871
1830,1873,1853
1870,1835,1831
1827,1841,1825
1831,1903,1875
1806,1863,1863
1826,1835,1787
1873,1853,1830
1914,1892,1904
1835,1886,1873
1830,1847,1808
1903,1834,1775
1881,1867,1815
1847,1879,1893
1817,1842,1806
1824,1847,1802
1876,1876,1838
1888,1872,1904
1805,1808,1813
1794,1838,1767
1867,1902,1941
1861,1873,1867
1906,1847,1823
1889,1845,1803
1833,1883,1840
1856,1871,1850
1903,1851,1766
1922,1862,1781
1808,1872,1857
1819,1867,1840
1867,1825,1827
1867,1841,1776
1842,1891,1889
1899,1885,1893
1873,1819,1771
1877,1841,1856
1839,1883,1967
1824,1870,1916
1904,1840,1822
1873,1849,1776
1830,1881,1896
1782,1871,1901
1803,1837,1803
1904,1847,1783
1871,1867,1872
1822,1854,1874
1829,1835,1872
1869,1858,1857
1866,1869,1872
1878,1861,1879
1856,1828,1819
1849,1857,1856
1866,1872,1889
1863,1855,1841
1840,1840,1821
1856,1858,1887
1808,1859,1843
1827,1856,1872
1861,1840,1840
1866,1855,1915
1892,1889,1889
1853,1885,1916
1869,1839,1811
1882,1849,1831
1886,1872,1841
1814,1872,1878
1813,1841,1961
1871,1840,1856
1824,1869,1898
1859,1871,1879
1859,1843,1838
1904,1846,1831
1871,1897,1919
1814,1872,1889
1794,1831,1824
1839,1841,1811
1871,1865,1867
1818,1853,1899
1859,1849,1863
1863,1866,1847
1871,1889,1922
1854,1874,1887
1865,1839,1794
1850,1840,1896
1899,1890,1987
1872,1881,1911
1911,1819,1765
1854,1835,1840
1823,1882,1934
1808,1850,1859
1898,1837,1778
1914,1865,1889
1838,1897,1898
1798,1885,1886
1838,1871,1903
1857,1855,1808
1840,1895,1904
1827,1886,1877
1840,1849,1837
1907,1843,1799
1920,1886,1856
1838,1882,1904
1810,1831,1822
1838,1831,1827
1866,1874,1890
1886,1879,1876
1840,1828,1827
1828,1840,1844
1831,1891,1909
1839,1887,1919
1878,1840,1846
1871,1840,1823
1871,1873,1872
1835,1854,1890
1855,1829,1829
1846,1846,1904
1818,1869,1855
1823,1872,1867
1926,1841,1795
1926,1842,1856
1841,1863,1863
1811,1880,1900
1844,1834,1841
1854,1840,1821
1842,1871,1891
1840,1858,1869
1872,1827,1862
1844,1831,1813
1836,1872,1891
1835,1869,1923
1856,1823,1840
1867,1835,1846
1859,1877,1894
1840,1851,1858
1854,1822,1817
1863,1829,1837
1872,1887,1903
1863,1857,1872
1874,1822,1817
1860,1823,1837
1887,1857,1854
1853,1872,1861
1873,1847,1829
1886,1841,1834
1863,1867,1910
1889,1863,1904
1872,1834,1831
1886,1871,1861
1820,1863,1878
1797,1840,1875
1855,1819,1826
1877,1839,1823
1840,1873,1876
1851,1871,1875
1870,1830,1828
1878,1840,1831
1919,1872,1840
1846,1856,1854
1830,1826,1793
1885,1840,1830
1930,1872,1922
1911,1872,1904
1915,1841,1808
1873,1837,1811
1822,1862,1870
1851,1869,1872
1836,1827,1834
1911,1830,1808
1910,1854,1825
1898,1833,1845
1823,1812,1803
1877,1845,1835
1838,1874,1867
1843,1872,1918
1878,1840,1855
1888,1849,1840
1801,1874,1875
1915,1852,1847
1827,1818,1788
1857,1840,1794
1857,1866,1887
1849,1879,1919
1865,1840,1810
1891,1843,1799
1855,1882,1905
1920,1871,1851
1917,1826,1812
1867,1841,1854
1833,1883,1882
1797,1845,1861
1879,1817,1768
1868,1835,1814
1917,1887,1897
1793,1861,1887
1815,1824,1813
1863,1842,1837
1828,1876,1895
1879,1862,1879
1849,1829,1811
1830,1842,1828
1823,1861,1887
1805,1860,1874
1845,1826,1808
1872,1840,1822
1837,1868,1867
1840,1843,1828
1885,1808,1762
1923,1840,1804
1837,1867,1879
1811,1867,1911
1857,1839,1833
1965,1824,1822
1885,1872,1878
1778,1853,1861
1821,1841,1809
1828,1833,1818
1787,1856,1882
1853,1851,1872
1910,1809,1779
1938,1841,1810
1888,1865,1872
1825,1865,1895
1827,1840,1808
1867,1857,1790
1943,1877,1840
1947,1872,1856
1802,1810,1808
1822,1844,1831
1851,1872,1891
1822,1849,1879
1812,1831,1789
1859,1834,1806
1865,1846,1853
1834,1861,1853
1874,1839,1805
1966,1867,1834
1840,1845,1819
1825,1856,1872
1840,1813,1799
1896,1825,1791
1849,1839,1851
1779,1839,1859
1779,1822,1798
1867,1834,1815
1936,1871,1875
