2457,2769,2280
2466,2797,1706
2477,2825,1634
2480,2779,1794
2519,2769,1846
2542,2826,1855
2512,2832,1831
2479,2799,1832
2480,2741,1871
2555,2783,1866
2592,2827,1840
2640,2777,1841
2466,2732,1846
2371,2749,1821
2406,2755,1840
2480,2725,1873
2478,2672,2189
2432,2653,2178
2349,2559,2318
2162,2367,2511
1962,2156,957
1954,2153,946
2064,2230,1312
2282,2310,1682
2353,2425,1815
2322,2496,1880
2293,2526,1792
2325,2489,1840
2448,2553,1826
2467,2585,1794
2403,2608,1810
2398,2559,1865
2490,2559,1887
2513,2623,1978
2502,2645,2043
2478,2651,1883
2544,2630,1819
2445,2657,1825
2420,2656,1807
2530,2619,1725
2477,2640,1679
2448,2674,1749
2447,2630,1727
2511,2647,1936
2555,2650,2003
2474,2653,1778
2431,2657,1622
2497,2615,1552
2514,2623,1535
2446,2640,1602
2420,2646,1671
2529,2611,1526
2523,2559,1414
2451,2625,1577
2359,2615,1675
2415,2559,1677
2460,2559,2363
2435,2559,4095
2398,2599,4095
2391,2543,4095
2474,2509,4095
2424,2539,4095
2368,2519,2983
2353,2482,2027
2393,2480,1746
2416,2512,1386
2463,2512,1059
2415,2448,1053
2374,2466,1166
2405,2512,1237
2384,2490,1163
2313,2444,1143
2311,2431,1111
2391,2453,1170
2373,2458,1199
2330,2410,1200
2352,2395,1139
2352,2421,1185
2351,2454,1263
2355,2375,1123
2401,2346,1105
2429,2368,1182
2303,2379,1233
2272,2369,1174
2308,2315,1148
2362,2345,1234
2293,2368,1281
2274,2297,1223
2322,2300,1232
2335,2321,1221
2275,2325,1295
2250,2286,1240
2300,2245,1185
2311,2294,1288
2287,2323,1381
2270,2261,1271
2307,2211,1207
2335,2227,1216
2237,2243,1313
2192,2224,1262
2241,2196,1277
2259,2207,1312
2231,2229,1378
2224,2205,1343
2277,2165,1283
2294,2193,1372
2220,2218,1408
2155,2157,1278
2205,2124,1249
2214,2151,1335
2245,2156,1287
2142,2141,1365
2147,2131,1328
2176,2114,1250
2208,2128,1359
2170,2112,1502
2192,2080,1393
2174,2099,1369
2112,2121,1475
2137,2091,1499
2192,2060,2445
2099,1963,4095
1699,1658,1265
1682,1569,592
1799,1647,1439
1905,1762,1951
1915,1834,1967
1942,1823,1798
1974,1834,1809
2032,1870,1809
2027,1871,1797
2019,1856,1808
1973,1881,1803
1986,1919,1826
1994,1935,1856
2000,1904,1750
2097,1913,1839
2113,1942,1792
2093,1939,1741
2055,1906,1853
2042,1918,1900
2023,1946,1738
2022,1968,1825
2075,1937,1808
2103,1899,1809
2047,1911,1837
2000,1954,1776
2042,1938,1857
2069,1905,1833
2037,1911,1821
2041,1954,1811
2080,1920,1823
2085,1878,1825
2112,1923,1842
2026,1937,1791
1968,1906,1728
2004,1882,1765
2018,1885,1743
2059,1916,1767
2055,1897,1739
2042,1871,1673
2015,1872,1697
1990,1905,1754
1971,1873,1655
2005,1861,1648
2021,1890,1683
2029,1909,1717
2010,1860,1646
2059,1867,1614
2094,1872,1585
2003,1882,1687
1938,1843,1715
1959,1833,1634
1983,1853,1728
1952,1874,1673
1949,1842,1666
1983,1812,1488
2022,1834,1655
2029,1854,1687
1936,1849,1664
1933,1819,1593
2011,1840,1623
1971,1841,1648
1939,1804,1658
1943,1808,1574
1946,1839,1690
1945,1827,1698
1943,1794,1599
1965,1790,1559
1951,1838,1631
1943,1840,1680
1957,1803,1642
1940,1776,1567
1935,1825,1637
1907,1819,1694
1904,1777,1535
1904,1775,1611
1955,1804,1652
1965,1811,1673
1935,1778,1618
1968,1760,1584
1927,1814,1616
1889,1840,1679
1933,1786,1627
1975,1790,1578
1905,1784,1619
1878,1800,1680
1897,1775,1568
1930,1744,1638
2005,1783,1620
1923,1796,1735
1890,1746,1691
1904,1757,1632
1934,1794,1639
1875,1804,1679
1859,1779,1646
1871,1737,1616
1931,1759,1588
1937,1776,1675
1909,1725,1595
1872,1731,1600
1881,1776,1712
1857,1790,1747
1889,1740,1699
1929,1726,1628
1959,1751,1628
1838,1773,1670
1787,1731,1655
1856,1735,1647
1903,1778,1698
1901,1775,1707
1904,1740,1655
1904,1731,1618
1941,1762,1699
1837,1765,1775
1807,1723,1733
1865,1715,1585
1922,1760,1651
1915,1761,1723
1904,1732,1691
1860,1730,1731
1825,1763,1701
1827,1758,1734
1861,1738,1716
1894,1745,1654
1941,1781,1735
1919,1758,1783
1839,1722,1712
1882,1725,1703
1871,1760,1695
1838,1776,1781
1898,1729,1702
1877,1719,1648
1840,1737,1712
1846,1765,1760
1853,1744,1757
1933,1730,1744
1879,1754,1752
1779,1769,1690
1802,1717,1730
1841,1694,1727
1910,1734,1831
1858,1767,1795
1790,1722,1731
1877,1726,1707
1887,1746,1757
1805,1737,1776
1815,1717,1761
1858,1743,1746
1842,1765,1729
1819,1767,1822
1847,1734,1755
1889,1728,1797
1879,1761,1831
1839,1767,1799
1777,1747,1758
1851,1753,1731
1865,1793,1851
1815,1792,1837
1839,1744,1825
1888,1734,1748
1871,1771,1763
1831,1759,1837
1891,1753,1789
1973,1754,1734
1874,1776,1794
1751,1780,1872
1767,1771,1821
1811,1749,1750
1869,1773,1824
1855,1771,1883
1819,1717,1770
1840,1705,1744
1861,1755,1840
1803,1758,1817
1786,1723,1767
1804,1693,1746
1840,1739,1735
1789,1725,1807
1701,1671,1700
1690,1650,1728
1737,1685,1678
1783,1678,1789
1695,1623,1644
1636,1600,1684
1607,1616,1650
1645,1610,1661
1653,1573,1590
1645,1558,1648
1600,1579,1658
1532,1578,1599
1535,1520,1509
1618,1521,1616
1646,1568,1641
1595,1567,1680
1562,1525,1593
1584,1515,1465
1530,1535,1593
1566,1593,1664
1600,1555,1680
1588,1535,1616
1567,1582,1711
1618,1626,1725
1648,1581,1621
1616,1575,1610
1600,1617,1681
1641,1655,1751
1631,1626,1651
1614,1614,1638
1625,1642,1680
1662,1680,1751
1663,1645,1686
1701,1635,1674
1701,1675,1660
1663,1699,1779
1618,1663,1758
1655,1662,1767
1658,1705,1757
1709,1726,1855
1726,1681,1730
1668,1683,1757
1658,1729,1758
1637,1749,1827
1658,1717,1789
1723,1707,1723
1789,1743,1776
1728,1743,1779
1636,1731,1808
1666,1743,1779
1692,1776,1847
1696,1785,1904
1712,1754,1794
1722,1733,1744
1718,1746,1832
1741,1751,1770
1715,1767,1807
1744,1747,1808
1700,1744,1810
1679,1763,1809
1643,1702,1726
1653,1682,1712
1627,1714,1779
1611,1735,1826
1600,1687,1746
1669,1666,1669
1683,1711,1680
1631,1731,1811
1635,1694,1775
1691,1701,1713
1719,1775,1807
1680,1793,1847
1663,1760,1788
1702,1731,1737
1791,1781,1809
1708,1813,1865
1662,1808,1822
1697,1787,1799
1712,1815,1886
1712,1840,1901
1817,1811,1819
1777,1824,1856
1765,1856,1904
1753,1878,1920
1729,1844,1832
1778,1845,1861
1858,1891,1950
1863,1920,1968
1791,1892,1851
1759,1859,1866
1772,1902,1967
1814,1919,2027
1985,1889,1939
2176,1891,1872
2299,1911,1968
2352,1928,2025
2414,1929,1893
2490,1877,1871
2544,1905,1943
2559,1904,1957
2595,1917,1891
2663,1902,1936
2685,1907,1957
2711,1915,1968
2671,1914,1934
2747,1920,1935
2747,1926,1990
2668,1916,1983
2687,1899,2382
2730,1879,3105
2812,1911,2430
2875,1922,1792
2710,1893,1677
2790,1886,1774
2901,1908,1841
2769,1947,1846
2865,1930,1837
2819,1904,1829
2845,1922,1830
2963,1963,1825
2955,1919,1826
2699,1904,1844
2682,1933,1908
2810,1962,1769
2784,1923,1781
2782,1910,1823
2800,1917,1841
2770,1951,1829
2694,1915,1825
2783,1911,1827
2843,1929,1825
2774,1958,1830
2679,1929,1828
2721,1919,1826
2714,1938,1829
2731,1968,1827
2749,1912,1828
2714,1895,1828
2640,1941,1831
2559,1979,1829
2642,1940,1831
2655,1905,1828
2650,1925,1838
2635,1973,1904
2559,1946,1885
2626,1905,1836
2671,1934,1867
2627,1983,1935
2559,1919,1818
2531,1903,1817
2498,1951,1889
2598,1977,1934
2647,1939,1849
2498,1921,1820
2480,1963,1909
2427,1969,1918
2487,1922,1812
2546,1921,1789
2508,1967,1840
2382,1983,1919
2390,1937,1889
2519,1907,1845
2435,1923,1851
2422,1931,1884
2445,1924,1877
2409,1923,1806
2486,1953,1859
2384,1970,1921
2412,1936,1839
2455,1919,1794
2438,1935,1859
2416,1929,1886
2390,1903,1835
2488,1898,1782
2499,1914,1808
2416,1929,1871
2409,1939,1840
2421,1921,1781
2480,1920,1825
2399,1937,1928
2399,1917,1839
2395,1904,1786
2366,1920,1837
2359,1952,1893
2352,1909,1811
2386,1874,1783
2410,1908,1888
2358,1963,1925
2403,1922,1839
2398,1890,1797
2345,1902,1853
2354,1936,1882
2352,1920,1833
2417,1906,1779
2378,1895,1822
2326,1933,1904
2350,1908,1839
2394,1877,1789
2501,1898,1808
2412,1929,1890
2231,1899,1847
2343,1873,1797
2368,1898,1858
2336,1931,1913
2325,1907,1853
2343,1891,1787
2343,1904,1843
2319,1914,1895
2315,1898,1834
2343,1887,1791
2337,1925,1855
2292,1936,1875
2266,1882,1815
2395,1861,1779
2384,1898,1813
2291,1950,1886
2282,1892,1878
2301,1879,1779
2222,1905,1795
2323,1915,1869
2275,1890,1797
2310,1877,1779
2141,1904,1842
2235,1919,1894
2207,1883,1805
2240,1874,1804
2290,1905,1895
2202,1934,1913
2144,1895,1805
2227,1863,1765
2273,1886,1827
2225,1921,1881
2178,1872,1826
2203,1857,1792
2352,1922,1850
2160,1936,1855
2064,1867,1814
2121,1856,1793
2187,1883,1809
2175,1925,1905
2072,1870,1831
2099,1870,1802
2160,1899,1840
2122,1895,1872
2079,1867,1842
2096,1854,1808
2103,1872,1845
2096,1891,1862
2114,1856,1808
2102,1834,1764
2112,1862,1824
2081,1907,1901
2046,1840,1838
2092,1831,1754
2137,1878,1849
1965,1879,1882
2087,1859,1825
2042,1841,1786
2039,1859,1840
2023,1887,1902
2031,1849,1830
1969,1823,1776
2033,1858,1821
2017,1891,1882
2003,1860,1819
2000,1822,1799
2013,1863,1837
1988,1886,1872
1985,1855,1807
1989,1840,1803
1983,1867,1856
1958,1888,1899
1967,1852,1830
1982,1829,1788
1973,1863,1834
1957,1883,1890
1949,1840,1821
1979,1833,1790
1978,1871,1842
1957,1887,1893
1952,1849,1825
1975,1833,1781
1975,1867,1837
1955,1883,1878
1951,1840,1818
1985,1826,1789
1987,1859,1843
1968,1885,1886
1967,1856,1821
1988,1835,1774
2000,1872,1842
1977,1886,1893
1968,1849,1831
2000,1840,1791
2019,1872,1855
2002,1890,1904
1983,1847,1831
2000,1826,1782
2032,1874,1855
2054,1936,1948
2027,1877,1867
1974,1822,1771
1981,1857,1822
1981,1892,1889
1985,1872,1828
2006,1871,1780
2018,1958,1847
2000,2035,1898
1986,2064,1833
2015,2096,1803
2021,2179,1855
1999,2283,1901
1991,2334,1838
2009,2411,1808
2023,2516,1872
2017,2607,1938
1991,2559,1845
1984,2533,1777
1988,2640,1849
1966,2732,1894
1965,2717,1831
1998,2713,1798
2015,2765,1871
1984,2775,1909
1953,2754,1831
1955,2783,1776
1969,2855,1836
1961,2895,1887
1952,2877,1823
1968,2880,1780
1973,2945,1835
1950,2960,1873
1938,2914,1811
1957,2903,1776
1963,2941,1829
1939,2960,1875
1941,2918,1823
1965,2896,1789
1968,2929,1840
1936,2943,1885
1939,2906,1835
1991,2906,1818
2000,2925,1872
1914,2877,1865
1895,2823,1790
1926,2811,1776
1942,2849,1840
1925,2868,1888
1923,2822,1830
1939,2777,1788
1938,2832,1840
1922,2855,1883
1909,2800,1817
1926,2767,1783
1936,2787,1840
1911,2783,1888
1904,2731,1819
1922,2714,1776
1925,2747,1839
1917,2756,1887
1901,2701,1829
1921,2663,1790
1935,2717,1853
1908,2703,1887
1893,2652,1826
1910,2608,1781
1920,2625,1846
1898,2635,1888
1891,2586,1833
1914,2529,1799
1911,2607,1845
1894,2623,1894
1887,2555,1837
1906,2513,1791
1904,2537,1854
1887,2530,1901
1881,2480,1845
1908,2449,1797
1917,2480,1851
1890,2507,1906
1869,2434,1831
1881,2363,1783
1894,2390,1851
1873,2405,1904
1866,2354,1839
1872,2336,1796
1883,2359,1845
1861,2359,1891
1857,2304,1839
1886,2286,1806
1889,2311,1861
1863,2317,1905
1840,2260,1841
1872,2239,1808
1879,2259,1870
1856,2256,1909
1845,2209,1846
1866,2175,1807
1873,2204,1872
1859,2198,1904
1849,2160,1841
1861,2127,1801
1867,2144,1855
1846,2154,1905
1834,2121,1842
1846,2097,1798
1847,2105,1858
1838,2102,1904
1827,2059,1851
1844,2031,1808
1856,2064,1865
1840,2067,1918
1824,2043,1847
1835,1977,1786
1842,1997,1855
1819,2007,1904
1815,1978,1845
1841,1959,1799
1854,1982,1859
1835,1976,1920
1820,1936,1855
1834,1927,1798
1841,1947,1862
1823,1957,1904
1815,1913,1845
1834,1890,1801
1838,1915,1857
1824,1930,1904
1815,1877,1856
1834,1847,1809
1838,1870,1862
1815,1883,1909
1808,1839,1850
1826,1811,1808
1836,1841,1859
1805,1856,1902
1799,1814,1840
1821,1792,1802
1824,1814,1862
1808,1828,1904
1799,1786,1840
1818,1765,1792
1819,1794,1853
1792,1802,1904
1781,1761,1840
1804,1740,1793
1808,1757,1851
1792,1778,1901
1776,1731,1835
1795,1730,1786
1809,1755,1850
1805,1765,1904
1791,1715,1842
1806,1689,1792
1811,1723,1858
1781,1744,1899
1770,1696,1835
1796,1667,1795
1808,1709,1854
1783,1714,1894
1770,1674,1829
1803,1655,1793
1805,1680,1844
1775,1693,1891
1769,1626,1830
1792,1614,1798
1795,1664,1863
1763,1676,1897
1760,1639,1841
1801,1617,1809
1805,1647,1857
1781,1615,1905
1761,1605,1841
1781,1623,1781
1791,1659,1845
1777,1642,1900
1775,1589,1839
1784,1582,1794
1782,1621,1847
1758,1634,1887
1744,1561,1820
1774,1535,1791
1792,1613,1851
1755,1630,1883
1744,1585,1822
1775,1574,1779
1785,1574,1840
1767,1584,1882
1747,1535,1818
1772,1522,1776
1774,1574,1837
1759,1584,1877
1745,1535,1824
1764,1517,1785
1764,1609,1837
1746,1606,1874
1744,1573,1809
1763,1527,1776
1776,1570,1837
1745,1598,1861
1728,1610,1805
1773,1631,1783
1763,1451,1805
1741,1472,1831
1726,1484,1833
1758,1488,1809
1773,1482,1859
1744,1535,1877
1709,1514,1776
1727,1466,1750
1749,1478,1841
1747,1489,1904
1739,1509,1826
1742,1455,1761
1761,1469,1810
1743,1494,1869
1743,1431,1819
1755,1392,1786
1762,1473,1855
1744,1454,1903
1743,1499,1808
1744,1434,1709
1731,1407,1783
1727,1433,1875
1727,1413,1802
1747,1378,1776
1753,1406,1840
1735,1426,1876
1728,1394,1823
1776,1375,1832
1776,1419,1833
1904,1441,1851
2192,1406,1695
1829,1317,1630
1524,1366,1856
1535,1408,1963
1713,1382,1872
2278,1435,1825
2431,1442,1638
1568,1328,1670
1287,1327,1877
1489,1339,1871
1670,1387,1873
1727,1366,1893
1712,1270,1792
1703,1262,1735
1757,1312,1834
1751,1344,1889
1735,1261,1832
1812,1224,1705
2081,1232,1648
1846,1293,1847
1584,1244,1860
1763,1241,1807
1791,1227,1731
1835,1261,1808
2045,1292,1871
1799,1247,1822
1443,1232,1910
1471,1236,1963
1664,1229,1820
1780,1230,1775
1744,1267,1881
1764,1269,1905
1667,1159,1776
1739,1191,1757
1807,1232,1859
1794,1282,1962
1780,1227,1886
1873,1227,1840
1744,1258,1877
1626,1238,1866
1649,1191,1826
1829,1213,1859
1745,1234,1867
1741,1238,1911
1773,1186,1774
1787,1181,1747
1709,1168,1882
1670,1226,1957
1808,1229,1857
1858,1182,1798
1705,1175,1884
1679,1194,1927
1836,1173,1845
1734,1150,1799
1684,1184,1881
1670,1166,1874
1711,1115,1806
1756,1107,1775
1809,1163,1872
1785,1184,1884
1694,1088,1718
1855,1078,1723
1741,1116,1909
1743,1139,1971
1782,1121,1835
1755,1127,1841
1875,1168,1849
1634,1155,1840
1647,1064,1836
1875,1040,1725
1776,1076,1831
1608,1111,2006
1646,1104,1874
1731,1067,1762
1742,1063,1776
1746,1088,1956
1779,1039,1859
1813,1007,1665
1742,1046,1853
1680,1039,1918
1835,995,1791
1985,986,1739
1746,1052,1913
1691,1013,1911
1639,914,1867
1741,913,1813
1808,974,1834
1665,1008,1901
1787,973,1745
1809,896,1734
1680,960,1876
1630,1005,1859
1715,924,1788
1833,927,1829
1837,1009,1936
1683,1008,1904
1703,950,1806
1828,987,1702
1763,971,1762
1710,981,1853
1727,959,1869
1761,949,1826
1769,994,1815
1707,1084,1827
1719,1039,1835
1751,1005,1788
1863,1040,1811
1840,1021,1904
1795,1047,1778
1717,1021,1744
1814,1072,1857
1755,1105,1812
1642,1063,1819
1699,1104,1830
1865,1170,1906
1905,1195,1946
1710,1127,1833
1655,1135,1753
1719,1165,1814
1808,1186,1872
1757,1216,1825
1727,1174,1802
1765,1188,1879
1798,1211,1846
1857,1225,1853
1783,1248,1825
1735,1290,1862
1722,1296,1857
1902,1296,1779
1907,1249,1718
1619,1296,1872
1639,1353,1943
1733,1341,1818
1854,1349,1786
1837,1401,1843
1775,1413,1915
1728,1372,1863
1762,1364,1797
1845,1456,1841
1781,1481,1856
1680,1415,1787
1740,1422,1739
1831,1488,1817
1883,1505,1933
1808,1497,1889
1777,1472,1830
1779,1531,1819
1807,1557,1899
1818,1523,1846
1809,1533,1759
1723,1553,1813
1810,1645,1954
1862,1582,1877
1778,1582,1765
1744,1631,1847
1755,1673,1937
1763,1639,1847
1761,1600,1756
1823,1641,1818
1933,1728,1931
1856,1698,1859
1873,1690,1817
1839,1741,1873
1738,1741,1961
1773,1707,1906
1894,1705,1749
1903,1791,1871
1692,1782,1954
1661,1744,1843
1779,1741,1802
1856,1799,1840
1841,1841,1901
1954,1801,1846
1894,1758,1771
1744,1805,1872
1697,1856,1968
1738,1845,1884
1819,1808,1790
1898,1835,1820
1843,1879,1927
1814,1860,1901
1819,1850,1809
1763,1866,1809
1799,1923,1919
1808,1887,1893
1839,1897,1865
1936,1893,1770
2005,1953,1931
1849,1931,1899
1697,1882,1809
1745,1923,1805
1856,1974,1909
1825,1965,1943
1814,1985,1889
1818,1985,1856
1831,1975,1871
1850,1978,1837
1947,1949,1808
1861,1973,1847
1831,2003,1914
1760,1983,1840
1790,1962,1840
1861,2058,1896
1907,2046,1937
1974,2038,1904
1860,2006,1780
1753,2007,1811
1776,2053,1907
1766,2013,1867
1861,2010,1830
1853,2030,1865
1840,2066,1861
1915,2047,1792
1909,2043,1821
1909,2083,1866
1846,2090,1988
1787,2018,1821
1760,2022,1809
1744,2068,1829
1847,2100,1933
1856,2067,1934
1851,2032,1792
1838,2109,1838
1830,2105,1869
1806,2023,1813
1858,2039,1855
1904,2096,1793
1853,2112,1843
1808,2035,1869
1899,2027,1786
1969,2099,1813
1758,2096,1835
1683,2058,1840
1824,2063,1856
1872,2113,1883
1881,2133,1989
1867,2054,1851
1808,2083,1717
1909,2087,1929
1850,2070,1845
1729,2093,1761
1885,2083,1799
1900,2093,1909
1808,2126,2015
1765,2079,1840
1843,2066,1785
1872,2112,1786
1904,2119,1831
1815,2065,1881
1833,2077,1874
1863,2116,1877
1797,2156,1795
1803,2091,1817
1857,2058,1859
1975,2121,1868
1907,2147,1889
1851,2101,1749
1765,2054,1794
1797,2097,1870
1878,2128,1932
1827,2086,1787
1809,2118,1788
1873,2134,1963
1855,2124,1970
1817,2099,1838
1819,2059,1810
1807,2093,1837
1879,2119,1877
1909,2096,1866
1861,2092,1797
1802,2105,1829
1789,2097,1862
1779,2080,1820
1830,2075,1793
1893,2128,1788
1841,2131,1887
1831,2096,1830
1914,2038,1751
1894,2073,1814
1872,2118,1822
1815,2128,1869
1840,2097,1882
1791,2096,1878
1811,2098,1833
1871,2064,1806
1887,2034,1777
1890,2092,1854
1810,2123,1918
1774,2070,1866
1813,2057,1790
1870,2085,1838
1847,2128,1905
1841,2043,1827
1886,2021,1790
1872,2077,1843
1839,2131,1889
1826,2057,1763
1871,2037,1727
1838,2071,1904
1799,2069,1853
1894,2067,1815
1943,2067,1783
1877,2075,1779
1808,2112,1828
1867,2045,1789
1839,2019,1775
1831,2070,1904
1854,2102,1941
1836,2032,1828
1843,2003,1789
1922,2080,1918
1819,2066,1853
1810,2047,1858
1879,2029,1838
1920,2055,1743
1853,2074,1903
1857,2013,1753
1929,2013,1778
1874,2065,1836
1841,2069,1904
1818,2032,1751
1869,2032,1857
1922,2056,1867
1890,2061,1931
1799,1986,1824
1902,2014,1769
1897,2043,1890
1813,2047,1918
1803,2026,1930
1862,1973,1815
1842,2011,1840
1815,2051,1829
1869,2023,1819
1887,1974,1756
1891,2002,1813
1831,2026,1931
1817,2002,1843
1853,1969,1749
1958,2011,1860
1954,1985,1791
1858,1984,1839
1751,1959,1791
1785,2001,1899
1808,2006,1904
1826,1984,1754
1842,1939,1769
1840,1977,1892
1856,2000,1931
1881,1968,1893
1918,1956,1744
1855,1981,1835
1798,1979,1899
1840,1911,1851
1971,1936,1716
1915,1999,1849
1827,2011,1949
1831,1935,1799
1897,1967,1776
1846,1974,1860
1792,1975,1904
1829,1943,1809
1895,1931,1712
1888,1986,1872
1823,2007,1930
1819,1953,1919
1828,1918,1778
1827,1905,1818
1907,1975,1830
1921,1955,1898
1893,1965,1809
1954,1990,1864
1937,1981,1931
1793,1936,1840
1754,1921,1808
1826,1968,1904
1901,1993,1899
1855,1968,1791
1889,1916,1748
1877,1947,1859
1811,1977,1920
1791,1919,1863
1878,1894,1802
1936,1965,1902
1826,1978,1936
1792,1950,1838
1838,1930,1767
1910,1949,1869
2031,1973,1911
1824,1936,1840
1808,1920,1783
1857,1920,1826
1883,1936,1869
1799,1919,1839
1854,1929,1828
1842,1935,1866
1856,1949,1895
1889,1918,1791
1847,1905,1847
1817,1927,1873
1881,1968,1939
1885,1934,1869
1893,1920,1741
1935,1949,1807
1851,1940,1908
1853,1894,1856
1906,1887,1742
1846,1916,1760
1764,1933,1942
1763,1891,1867
1853,1916,1819
1913,1971,1842
1824,1972,1827
1829,1873,1801
1806,1834,1708
1838,1905,1840
1807,1902,1978
1840,1862,1830
1868,1851,1769
1753,1903,1798
1744,1903,1881
1778,1905,1853
1825,1884,1762
1889,1937,1834
1813,1901,1899
1785,1868,1808
1809,1831,1787
1812,1936,1811
1889,1915,1902
1837,1904,1841
1726,1893,1744
1755,1850,1788
1807,1863,1917
1865,1920,1878
1842,1890,1777
1845,1874,1798
1815,1883,1945
1776,1887,1853
1792,1853,1713
1792,1888,1810
1799,1890,1892
1786,1840,1859
1792,1824,1763
1844,1872,1815
1782,1911,1899
1795,1827,1806
1837,1777,1799
1832,1857,1813
1817,1850,1857
1827,1845,1824
1813,1898,1825
1777,1952,1887
1757,1947,1904
1792,1834,1818
1824,1893,1793
1814,1874,1860
1793,1882,1946
1808,1851,1853
1827,1859,1838
1799,1856,1809
1829,1840,1869
1750,1856,1811
1774,1831,1787
1791,1903,1911
1857,1918,1947
1840,1865,1794
1859,1859,1722
1793,1933,1872
1771,1923,1955
1806,1844,1874
1893,1835,1804
1840,1866,1869
1804,1915,1872
1862,1843,1775
1808,1833,1791
1694,1932,1915
1725,1903,1937
1778,1849,1854
1841,1851,1792
1822,1971,1809
1749,1891,1904
1753,1870,1845
1796,1845,1866
1792,1844,1885
1770,1867,1892
1764,1855,1792
1797,1806,1772
1791,1872,1869
1750,1888,1907
1776,1882,1828
1808,1840,1701
1831,1803,1774
1812,1819,1814
1808,1825,1804
1787,1808,1856
1786,1835,1797
1753,1891,1860
1761,1817,1856
1801,1840,1815
1865,1861,1830
1756,1859,1936
1690,1869,1872
1707,1793,1805
1790,1870,1878
1788,1759,1886
1806,1808,1799
1860,1822,1779
1874,1859,1847
1755,1861,1872
1673,1835,1812
1739,1748,1749
1837,1830,1871
1845,1834,1922
1787,1814,1840
1792,1810,1798
1776,1920,1865
1778,1838,1821
1809,1825,1808
1910,1821,1803
1799,1831,1868
1703,1769,1906
1709,1815,1754
1787,1850,1758
1776,1870,1904
1717,1859,1967
1743,1834,1847
1805,1831,1731
1697,1808,1799
1625,1799,1930
1653,1836,1850
1712,1787,1803
1744,1807,1851
1698,1857,1863
1706,1877,1800
1831,1777,1767
1797,1856,1876
1634,1924,1967
1591,1811,1868
1648,1872,1806
1712,1879,1850
1754,1918,1902
1747,1804,1808
1725,1831,1742
1708,1891,1865
1719,1892,1879
1674,1863,1881
1667,1905,1840
1678,1851,1854
1749,1907,1889
1712,1827,1876
1715,1830,1819
1762,1868,1867
1808,1861,1921
1693,1905,1835
1638,1840,1808
1696,1871,1846
1716,1887,1901
1728,1808,1893
1773,1817,1842
1828,1867,1862
1664,1894,1858
1603,1823,1837
1732,1842,1824
1767,1879,1894
1755,1909,1874
1727,1851,1850
1807,1809,1841
1751,1889,1883
1719,1856,1920
1867,1840,1859
1843,1833,1776
1712,1884,1871
1713,1899,1926
1657,1815,1886
1690,1844,1827
1776,1853,1863
1772,1888,1940
1781,1889,1869
1810,1862,1806
1742,1894,1843
1742,1875,1924
1808,1791,1830
1845,1850,1834
1825,1902,1902
1776,1898,1871
1776,1808,1853
1813,1826,1843
1783,1819,1819
1746,1828,1872
1765,1830,1895
1831,1878,1825
1838,1858,1890
1775,1917,1943
1766,1856,1854
1849,1840,1817
1885,1853,1817
1818,1863,1905
1772,1917,1814
1774,1820,1785
1803,1854,1899
1840,1853,1915
1809,1791,1831
1791,1872,1808
1811,1878,1873
1861,1886,1901
1889,1831,1776
1810,1836,1811
1802,1897,1875
1776,1891,1921
1792,1849,1871
1835,1779,1809
1866,1809,1823
1907,1895,1859
1827,1859,1827
1776,1824,1842
1807,1874,1856
1861,1799,1901
1859,1712,1845
1849,1831,1825
1867,1883,1871
1904,1898,1950
1822,1723,1853
1808,1840,1813
1832,1850,1846
1863,1902,1889
1858,1837,1823
1837,1808,1785
1830,1882,1858
1872,1926,1917
1936,1896,1828
1922,1810,1783
1847,1859,1874
1791,1872,1934
1807,1872,1857
1865,1819,1798
1872,1885,1859
1854,1878,1926
1918,1890,1808
1975,1909,1778
1870,1838,1844
1837,1885,1895
1878,1818,1858
1859,1937,1861
1868,1951,1887
1883,1901,1915
1870,1810,1807
1918,1919,1803
1936,1840,1867
1902,1865,1922
1821,1871,1829
1889,1850,1793
1927,1872,1815
1904,1792,1833
1903,1875,1799
1918,1842,1858
1840,1845,1925
1850,1872,1938
1917,1877,1850
2047,1841,1804
2035,1865,1819
1808,1850,1888
1782,1840,1827
1889,1813,1806
1902,1905,1875
1908,1873,1879
1898,1840,1835
1905,1829,1786
1888,1885,1845
1873,1890,1899
1883,1776,1821
1936,1763,1807
1955,1868,1844
1957,1898,1863
1883,1902,1777
1840,1800,1833
1899,1833,1893
1904,1904,1904
1891,1840,1817
1883,1838,1790
1920,1909,1872
1936,1938,1916
1969,1745,1747
2054,1869,1784
1932,1854,1839
1829,1888,1911
1858,1825,1859
1970,1869,1811
1968,1872,1905
1863,1891,1926
1861,1856,1857
1932,1840,1767
1991,1861,1861
2007,1885,1900
1884,1840,1809
1845,1827,1802
1888,1869,1872
1905,1838,1907
1905,1856,1865
1936,1859,1838
1918,1929,1830
1942,1885,1884
1966,1803,1826
1967,1818,1799
1942,1887,1872
1888,1840,1874
1887,1824,1798
1983,1856,1792
1982,1862,1829
1955,1860,1856
1933,1842,1827
1878,1862,1819
1883,1877,1895
1903,1889,1898
1906,1876,1800
1987,1850,1777
1967,1872,1866
1877,1897,1933
1834,1821,1793
1909,1791,1802
1968,1845,1840
2005,1920,1885
1906,1850,1821
1874,1866,1823
1887,1897,1889
1917,1861,1879
1893,1846,1867
1887,1865,1828
1894,1860,1841
1966,1872,1856
1998,1829,1795
1931,1840,1804
1875,1888,1843
1861,1863,1919
1901,1809,1821
1930,1838,1779
1936,1857,1838
1956,1892,1850
1968,1840,1798
2026,1829,1762
1942,1846,1879
1872,1894,1931
1929,1868,1888
1957,1841,1823
1936,1872,2199
1866,1874,3357
1872,1815,2256
1952,1859,1671
1963,1856,1667
1939,1881,1801
1904,1860,1851
1923,1789,1846
1946,1838,1830
1929,1840,1829
1987,1835,1826
2005,1803,1829
1922,1838,1829
1914,1920,1828
1907,1811,1831
1923,1856,1830
1947,1921,1831
1969,1901,1829
1878,1795,1831
1882,1828,1827
1925,1829,1828
1920,1830,1829
1919,1773,1829
1961,1824,1826
1985,1845,1827
1960,1844,1826
1938,1817,1830
2007,1808,1829
