1819,1793,1840
1823,1770,1776
1856,1835,1869
1865,1868,1881
1842,1812,1829
1893,1767,1776
1917,1829,1835
1858,1890,1930
1872,1824,1818
1926,1808,1837
1867,1840,1849
1781,1872,1935
1766,1831,1835
1839,1791,1779
1888,1831,1851
1894,1859,1914
1846,1808,1839
1815,1777,1744
1862,1856,1868
1970,1906,1958
1929,1808,1834
1826,1822,1794
1782,1853,1872
1827,1890,1932
1914,1821,1772
1904,1808,1735
1799,1831,1842
1794,1886,1954
1799,1840,1866
1856,1815,1788
1904,1865,1882
1900,1877,1901
1840,1815,1838
1805,1794,1766
1893,1874,1895
1894,1906,1905
1808,1830,1853
1843,1808,1776
1919,1856,1824
1888,1884,1949
1846,1827,1874
1815,1802,1764
1891,1843,1853
1964,1897,1908
1872,1851,1842
1819,1831,1808
1821,1856,1853
1833,1885,1931
1833,1829,1840
1878,1797,1777
1918,1831,1866
1891,1899,1930
1806,1823,1822
1782,1782,1744
1859,1858,1841
1878,1904,1945
1887,1851,1851
1933,1809,1713
1879,1855,1766
1811,1901,1951
1796,1814,1752
1840,1798,1798
1876,1840,1901
1872,1892,1953
1856,1845,1810
1872,1804,1754
1904,1845,1859
1856,1904,1927
1830,1836,1843
1856,1817,1760
1869,1851,1835
1962,1903,1938
1887,1843,1861
1811,1808,1767
1851,1870,1939
1895,1900,1916
1815,1832,1867
1841,1823,1751
1902,1885,1905
1886,1917,1955
1885,1849,1846
1892,1808,1777
1861,1856,1851
1840,1900,1968
1872,1845,1744
1872,1808,1741
1859,1869,1889
1838,1894,1943
1834,1849,1862
1969,1813,1795
1999,1868,1919
1853,1932,1922
1759,1868,1783
1799,1834,1808
1939,1859,1850
1921,1872,1904
1840,1839,1849
1808,1813,1819
1877,1868,1927
1954,1894,1867
1836,1814,1715
1883,1839,1797
1905,1889,1936
1808,1903,1968
1797,1837,1865
1860,1806,1806
1901,1859,1863
1904,1905,1895
1841,1839,1794
1863,1803,1819
1846,1840,1900
1869,1904,1893
1898,1852,1831
1891,1831,1840
1866,1872,1872
1897,1923,1952
1795,1829,1840
1822,1806,1770
1903,1856,1841
1904,1897,1894
1819,1838,1781
1849,1814,1717
1871,1854,1842
1846,1875,1920
1889,1842,1840
1897,1808,1839
1915,1872,1905
1823,1881,1911
1801,1850,1844
1835,1797,1760
1862,1840,1841
1903,1888,1920
1949,1836,1787
1846,1776,1776
1809,1837,1846
1837,1872,1968
1840,1849,1871
1920,1802,1764
1875,1840,1875
1860,1877,1963
1851,1862,1840
1871,1818,1757
1919,1847,1829
1904,1859,1958
1804,1825,1901
1872,1790,1751
1887,1823,1797
1812,1887,1951
1808,1829,1871
1854,1799,1808
1881,1830,1841
1941,1885,1968
1920,1845,1819
1798,1775,1755
1830,1829,1903
1869,1869,1968
1957,1849,1840
1936,1785,1712
1797,1836,1835
1787,1879,1936
1804,1817,1858
1877,1799,1815
1918,1846,1880
1835,1883,1896
1835,1840,1821
1874,1787,1758
1850,1803,1904
1840,1886,1983
1866,1851,1867
1893,1795,1741
1946,1834,1791
1923,1855,1872
1744,1808,1871
1790,1789,1774
1845,1827,1855
1850,1837,1964
1850,1821,1873
1821,1779,1745
1914,1868,1844
1903,1898,1933
1802,1826,1834
1841,1808,1770
1957,1850,1821
1860,1877,1902
1751,1790,1813
1819,1758,1783
1890,1857,1914
1860,1880,1968
1836,1781,1878
1977,1822,1789
1947,1866,1823
1825,1887,1936
1785,1808,1847
1840,1783,1788
1920,1853,1870
2014,1904,1918
1846,1802,1770
1735,1780,1753
1782,1823,1847
1885,1847,1965
1844,1799,1879
1813,1791,1863
1840,1842,1906
1887,1862,1893
1821,1797,1791
1815,1765,1787
1836,1824,1886
1846,1833,1947
1830,1777,1835
1945,1744,1744
1960,1840,1853
1844,1861,1934
1807,1805,1899
1801,1758,1793
1840,1780,1857
1889,1821,1898
1808,1793,1834
1852,1763,1766
1889,1840,1887
1922,1854,1934
1826,1771,1828
1878,1762,1793
1837,1812,1872
1843,1834,1910
1879,1786,1831
1903,1767,1759
1819,1808,1852
1846,1820,1905
1859,1792,1822
1810,1775,1777
1878,1802,1847
1815,1825,1903
1843,1805,1855
1904,1776,1776
1933,1840,1845
1887,1857,1929
1762,1771,1840
1797,1739,1758
1897,1805,1835
1890,1862,1920
1835,1776,1795
1792,1757,1769
1847,1817,1872
1885,1858,1907
1859,1803,1808
1825,1766,1756
1888,1808,1840
1839,1837,1903
1803,1759,1835
1856,1743,1763
1871,1825,1886
1889,1858,1910
1893,1786,1771
1791,1744,1764
1840,1808,1877
1841,1825,1924
1847,1777,1811
1829,1760,1744
1880,1803,1830
1867,1821,1901
1867,1770,1821
1870,1743,1787
1871,1808,1874
1822,1817,1890
1776,1767,1830
1824,1750,1776
1907,1814,1853
1883,1839,1904
1791,1761,1807
1820,1760,1770
1849,1793,1856
1855,1822,1916
1846,1732,1815
1863,1727,1731
1783,1773,1789
1835,1808,1904
1793,1775,1858
1821,1748,1743
1814,1795,1842
1847,1823,1926
1845,1763,1819
1813,1726,1749
1871,1792,1842
1837,1799,1899
1853,1770,1817
1802,1719,1765
1843,1766,1804
1860,1817,1927
1863,1754,1840
1793,1712,1765
1827,1781,1823
1823,1810,1906
1819,1759,1835
1853,1727,1749
1849,1780,1815
1971,1806,1923
1871,1753,1823
1813,1715,1744
1841,1805,1875
1879,1829,1949
1837,1749,1824
1842,1728,1759
1897,1817,1886
1810,1814,1904
1818,1754,1819
1849,1725,1755
1883,1815,1867
1902,1811,1901
1786,1738,1782
1762,1759,1779
1872,1829,1904
1871,1810,1879
1791,1769,1811
1842,1745,1783
1883,1823,1882
1859,1850,1941
1835,1769,1813
1831,1742,1744
1811,1799,1831
1890,1858,1951
1822,1771,1845
1843,1750,1775
1886,1831,1877
1888,1872,1920
1914,1789,1803
1875,1739,1719
1847,1829,1879
1854,1866,1971
1807,1783,1808
1811,1756,1778
1886,1819,1865
1907,1862,1929
1885,1821,1839
1843,1782,1766
1870,1840,1872
1847,1873,1950
1803,1799,1815
1851,1772,1776
1942,1839,1859
1899,1865,1882
1810,1797,1823
1806,1787,1775
1911,1869,1909
1902,1883,1923
1845,1808,1815
1831,1778,1759
1872,1869,1877
1876,1893,1942
1838,1827,1822
1835,1807,1767
1877,1873,1855
1890,1886,1923
1843,1808,1810
1868,1808,1776
1927,1883,1877
1899,1881,1925
1872,1823,1826
1886,1819,1793
1873,1871,1893
1850,1888,1925
1853,1839,1811
1869,1813,1767
1881,1884,1886
1867,1909,1930
1799,1823,1824
1831,1827,1787
1881,1883,1879
1905,1890,1931
1863,1839,1814
1924,1818,1744
1890,1855,1840
1843,1901,1951
1834,1840,1857
1885,1828,1776
1909,1895,1878
1906,1901,1903
1842,1843,1821
1921,1850,1799
1931,1891,1843
1863,1910,1887
1776,1843,1818
1808,1840,1808
1902,1879,1867
1937,1903,1923
1881,1834,1824
1808,1833,1786
1898,1919,1872
1867,1934,1929
1813,1847,1831
1874,1833,1790
1925,1896,1844
1889,1931,1895
1837,1869,1815
1840,1856,1779
1872,1904,1871
1887,1946,1941
1887,1869,1833
1924,1815,1776
1949,1889,1819
1905,1937,1919
1805,1881,1835
1777,1842,1791
1863,1888,1860
1904,1933,1911
1883,1872,1817
1862,1842,1777
1891,1889,1845
1883,1932,1883
1841,1874,1840
1846,1858,1810
1914,1903,1888
1917,1936,1904
1843,1883,1837
1856,1846,1776
1851,1897,1849
1859,1931,1929
1853,1872,1863
1808,1858,1803
1874,1919,1878
1868,1934,1914
1833,1879,1831
1844,1853,1787
1911,1910,1866
1917,1927,1904
1827,1875,1822
1869,1870,1803
1918,1942,1883
1867,1955,1938
1842,1857,1792
1907,1858,1776
1922,1894,1885
1902,1936,1963
1835,1872,1825
1807,1862,1792
1873,1899,1854
1889,1913,1907
1843,1873,1825
1859,1857,1787
1899,1908,1866
1872,1966,1934
1838,1889,1851
1888,1840,1757
1902,1923,1876
1865,1922,1919
1810,1851,1827
1840,1847,1815
1917,1911,1861
1877,1931,1907
1834,1872,1803
1854,1835,1754
1895,1907,1883
1867,1930,1918
1807,1861,1823
1841,1834,1771
1904,1913,1871
1902,1920,1941
1852,1829,1817
1814,1804,1759
1899,1901,1871
1868,1936,1903
1781,1858,1809
1814,1854,1792
1884,1914,1867
1912,1933,1904
1862,1858,1818
1840,1840,1759
1866,1913,1881
1834,1927,1910
1866,1847,1825
1891,1830,1732
1897,1884,1867
1891,1926,1915
1829,1890,1832
1851,1855,1758
1855,1885,1828
1824,1919,1936
1809,1831,1835
1846,1904,1782
1920,1889,1862
1878,1939,1920
1822,1809,1823
1833,1774,1778
1861,1858,1865
1889,1921,1926
1887,1871,1829
1878,1861,1765
1846,1903,1843
1862,1872,1901
1839,1839,1822
1843,1871,1751
1871,1889,1856
1878,1961,1946
1815,1882,1794
1803,1823,1776
1837,1901,1904
1846,1918,1919
1829,1840,1802
1869,1841,1784
1923,1914,1890
1886,1917,1910
1817,1895,1811
1807,1802,1735
1865,1839,1839
1891,1916,1913
1856,1859,1830
1885,1823,1757
1867,1915,1847
1791,1921,1943
1776,1861,1821
1812,1815,1774
1878,1885,1872
1905,1927,1909
1849,1840,1797
1888,1831,1777
1832,1870,1834
1808,1954,1919
1803,1842,1841
1825,1807,1779
1871,1883,1853
1877,1965,1923
1818,1835,1783
1809,1815,1747
1879,1885,1872
1876,1915,1937
1852,1889,1815
1837,1844,1767
1849,1911,1867
1818,1946,1936
1783,1854,1814
1835,1795,1760
1878,1916,1856
1895,1980,1939
1867,1856,1840
1813,1808,1707
1840,1889,1815
1857,1967,1934
1819,1808,1814
1869,1799,1789
1893,1911,1865
1825,1895,1937
1774,1855,1840
1814,1847,1809
1873,1937,1904
1863,1916,1901
1830,1846,1797
1899,1862,1770
1891,1892,1883
1836,1904,1898
1787,1808,1821
1808,1842,1783
1872,1907,1872
1842,1926,1939
1878,1907,1839
1872,1839,1766
1872,1874,1837
1872,1910,1931
1840,1841,1815
1821,1808,1781
1865,1875,1884
1870,1906,1931
1840,1861,1809
1850,1834,1743
1929,1872,1867
1891,1945,1968
1789,1787,1808
1808,1766,1771
1883,1878,1872
1853,1934,1904
1856,1871,1811
1891,1808,1745
1872,1850,1874
1900,1878,1935
1841,1840,1818
1824,1863,1790
1837,1915,1898
1891,1904,1885
1842,1824,1789
1872,1813,1789
1954,1872,1885
1848,1898,1920
1776,1849,1808
1812,1827,1790
1890,1891,1875
1873,1877,1864
1820,1821,1808
1845,1838,1825
1882,1868,1888
1886,1907,1934
1853,1842,1821
1886,1879,1782
1862,1835,1877
1831,1794,1931
1866,1859,1788
1882,1783,1762
1925,1834,1875
1842,1868,1938
1808,1842,1825
1859,1867,1819
1895,1918,1875
1858,1902,1899
1799,1821,1803
1829,1759,1784
1872,1857,1872
1876,1885,1922
1845,1798,1838
1867,1792,1751
1911,1859,1840
1872,1947,1903
1824,1809,1840
1841,1813,1787
1857,1835,1859
1852,1859,1904
1814,1815,1807
1846,1763,1770
1887,1854,1863
1846,1861,1936
1799,1783,1792
1840,1771,1733
1872,1821,1841
1910,1833,1943
1873,1757,1845
1779,1762,1735
1818,1808,1868
1903,1840,1926
1830,1801,1803
1839,1735,1752
1839,1839,1869
1861,1859,1936
1827,1767,1810
1818,1819,1760
1854,1825,1835
1837,1773,1899
1810,1771,1794
1906,1739,1755
1870,1812,1849
1798,1840,1898
1772,1856,1783
1818,1803,1760
1899,1809,1872
1890,1843,1869
1848,1758,1742
1825,1775,1744
1866,1842,1852
1851,1857,1923
1776,1781,1818
1809,1776,1743
1842,1852,1854
1853,1864,1904
1837,1776,1778
1808,1762,1765
1837,1846,1871
1854,1862,1937
1835,1792,1793
1845,1775,1721
1879,1824,1837
1830,1846,1879
1757,1773,1789
1808,1786,1777
1867,1842,1842
1943,1869,1901
1843,1802,1799
1789,1795,1782
1812,1841,1839
1811,1855,1879
1859,1792,1803
1926,1779,1763
1872,1840,1869
1810,1856,1920
1806,1805,1815
1779,1751,1761
1840,1840,1861
1855,1863,1889
1830,1809,1778
1867,1808,1786
1881,1841,1871
1840,1872,1891
1802,1809,1793
1833,1783,1751
1851,1845,1882
1859,1862,1927
1855,1794,1791
1872,1800,1754
1881,1841,1870
1840,1875,1927
1825,1808,1801
1809,1776,1744
1810,1853,1851
1833,1872,1895
1854,1778,1792
1840,1773,1744
1857,1875,1887
1839,1899,1949
1798,1787,1792
1840,1765,1712
1858,1854,1855
1822,1875,1964
1787,1815,1835
1808,1797,1764
1879,1868,1871
1951,1891,1903
1858,1809,1791
1757,1778,1765
1794,1863,1894
1817,1865,1902
1799,1813,1796
1847,1793,1776
1838,1855,1875
1791,1871,1936
1773,1817,1807
1825,1790,1748
1879,1873,1849
1856,1888,1887
1817,1786,1730
1870,1805,1769
1856,1863,1872
1873,1897,1923
1819,1842,1825
1823,1787,1727
1835,1829,1833
1782,1869,1919
1744,1808,1808
1801,1811,1752
1874,1862,1859
1855,1861,1887
1787,1827,1787
1841,1803,1758
1888,1867,1869
1849,1891,1918
1797,1804,1804
1805,1805,1775
1855,1855,1855
1902,1875,1903
1871,1837,1776
1825,1808,1766
1839,1872,1887
1805,1901,1904
1779,1809,1761
1828,1811,1754
1867,1867,1841
1854,1861,1894
1840,1822,1792
1808,1806,1770
1851,1872,1874
1846,1904,1913
1803,1839,1797
1838,1819,1775
1900,1889,1870
1871,1873,1905
1771,1808,1787
1778,1803,1757
1872,1882,1872
1867,1914,1918
1834,1843,1809
1853,1801,1722
1851,1858,1853
1804,1889,1966
1789,1840,1849
1863,1812,1767
1871,1870,1849
1826,1882,1887
1818,1841,1808
1862,1835,1775
1870,1887,1889
1833,1889,1918
1819,1837,1807
1867,1843,1778
1909,1902,1874
1850,1882,1920
1769,1813,1820
1809,1793,1778
1872,1870,1831
1840,1900,1889
1766,1838,1796
1820,1826,1766
1867,1872,1888
1885,1894,1905
1833,1825,1803
1843,1830,1767
1894,1904,1881
1941,1926,1954
1782,1811,1793
1755,1805,1737
1840,1899,1904
1858,1922,1933
1786,1831,1813
1791,1815,1766
1872,1883,1869
1872,1897,1863
1849,1831,1790
1858,1830,1798
1845,1889,1863
1829,1921,1984
1815,1840,1792
1820,1821,1776
1886,1903,1846
1903,1936,1943
1839,1854,1762
1799,1819,1710
1780,1886,1949
1824,1919,1963
1792,1839,1814
1845,1823,1754
1930,1887,1898
1860,1901,1869
1804,1843,1791
1824,1819,1747
1859,1897,1874
1856,1924,1947
1815,1840,1783
1957,1847,1795
1923,1874,1869
1738,1879,1919
1718,1829,1827
1801,1826,1766
1872,1872,1891
1867,1903,1943
1817,1842,1822
1823,1807,1758
1863,1890,1862
1845,1894,1898
1801,1825,1798
1829,1824,1752
1874,1906,1900
1877,1937,1943
1786,1831,1813
1807,1812,1781
1876,1904,1903
1879,1901,1898
1810,1824,1811
1809,1808,1750
1855,1889,1859
1853,1887,1914
1819,1823,1808
1839,1809,1776
1872,1882,1901
1819,1893,1911
1809,1836,1781
1843,1836,1753
1879,1881,1897
1860,1911,1934
1814,1842,1808
1872,1830,1739
1902,1871,1859
1821,1868,1937
1783,1831,1831
1819,1814,1744
1862,1868,1859
1907,1920,1882
1839,1828,1789
1792,1829,1753
1831,1889,1925
1825,1904,1886
1793,1840,1834
1840,1827,1776
1907,1886,1875
1908,1917,1923
1760,1843,1830
1787,1835,1759
1844,1879,1851
1826,1899,1943
1782,1825,1781
1824,1857,1794
1893,1902,1900
1863,1886,1920
1833,1806,1788
1811,1807,1769
1856,1909,1909
1843,1919,1890
1846,1826,1775
1839,1808,1804
1827,1895,1918
1833,1906,1921
1791,1829,1785
1867,1830,1773
1904,1882,1857
1825,1882,1943
1776,1823,1839
1858,1811,1794
1872,1882,1840
1819,1907,1885
1775,1833,1825
1823,1812,1763
1921,1898,1872
1824,1903,1886
1744,1821,1790
1811,1826,1758
1904,1893,1851
1891,1888,1968
1814,1813,1790
1758,1810,1770
1836,1887,1879
1827,1905,1909
1794,1830,1797
1841,1817,1750
1834,1872,1863
1847,1881,1894
1843,1835,1813
1815,1841,1782
1875,1898,1851
1821,1898,1881
1759,1840,1744
1825,1811,1749
1842,1883,1911
1860,1891,1910
1802,1825,1776
1791,1819,1796
1854,1884,1904
1882,1903,1923
1810,1835,1760
1883,1857,1718
1866,1882,1904
1815,1893,1904
1792,1826,1807
1844,1834,1755
1905,1887,1877
1840,1897,1905
1811,1824,1810
1790,1821,1810
1857,1882,1867
1872,1908,1982
1792,1823,1758
1882,1817,1753
1903,1871,1904
1823,1881,1936
1776,1856,1840
1829,1857,1855
1930,1892,1857
1873,1872,1917
1809,1811,1806
1775,1798,1781
1844,1883,1910
1899,1895,1935
1886,1815,1778
1862,1814,1695
1833,1903,1915
1865,1907,1935
1808,1835,1775
1876,1824,1735
1862,1867,1914
1869,1887,1931
1842,1818,1808
1871,1811,1815
1857,1899,1907
1814,1898,1895
1830,1815,1856
1917,1811,1744
1874,1902,1917
1821,1909,1938
1776,1813,1811
1846,1808,1790
1906,1904,1876
1866,1915,1928
1791,1809,1786
1851,1823,1776
1902,1891,1895
1849,1893,1927
1786,1803,1765
1814,1808,1743
1952,1888,1869
1934,1874,1885
1780,1834,1809
1808,1847,1799
1911,1896,1857
1867,1867,1841
1767,1805,1745
1798,1806,1789
1846,1893,1919
1877,1909,1953
1811,1809,1782
1826,1802,1744
1887,1871,1847
1851,1900,1916
1793,1821,1776
1875,1810,1723
1915,1901,1895
1819,1904,1962
1798,1814,1840
1845,1810,1775
1905,1872,1876
1856,1883,1906
1808,1821,1786
1783,1799,1745
1839,1873,1883
1846,1879,1905
1798,1840,1794
1815,1832,1769
1911,1883,1866
1856,1875,1892
1859,1792,1762
1831,1814,1777
1926,1911,1930
1868,1903,1904
1794,1809,1761
1774,1799,1760
1890,1867,1891
1879,1872,1919
1825,1817,1767
1894,1808,1723
1921,1916,1903
1793,1891,1927
1728,1808,1791
1808,1809,1778
1899,1886,1883
1904,1894,1909
1851,1839,1802
1891,1830,1788
1887,1872,1881
1823,1889,1939
1762,1814,1815
1842,1827,1771
1904,1887,1866
1814,1885,1913
1821,1817,1795
1817,1804,1744
1900,1877,1882
1872,1901,1945
1808,1809,1806
1867,1806,1771
1889,1863,1839
1856,1903,1904
1795,1845,1840
1846,1847,1803
1875,1901,1895
1856,1871,1879
1778,1779,1775
1902,1840,1766
1873,1892,1872
1903,1890,1893
1799,1819,1772
1815,1798,1776
1874,1869,1882
1822,1879,1903
1911,1853,1794
1898,1799,1740
1861,1857,1865
1777,1895,1939
1777,1844,1835
1882,1840,1776
1810,1878,1878
1906,1907,1940
1914,1840,1814
1838,1806,1744
1833,1889,1891
1871,1906,1930
1809,1792,1778
1794,1852,1759
1837,1909,1872
1898,1905,1903
1812,1834,1792
1861,1830,1809
1894,1909,1904
1876,1897,1904
1842,1839,1791
1876,1833,1808
1874,1886,1920
1839,1883,1929
1840,1840,1808
1888,1839,1795
1901,1882,1871
1870,1898,1867
1847,1846,1763
1890,1847,1771
1880,1910,1928
1827,1921,1956
1813,1829,1822
1898,1811,1781
1929,1859,1837
1901,1907,1889
1814,1851,1810
1843,1826,1817
1878,1872,1885
1866,1878,1887
1850,1815,1799
1842,1825,1794
1904,1904,1879
1861,1893,1893
1797,1827,1811
1841,1835,1825
1975,1903,1918
1934,1892,1893
1802,1808,1785
1780,1819,1793
1859,1885,1879
1882,1895,1926
1830,1808,1803
1858,1828,1787
1886,1901,1905
1849,1899,1949
1820,1821,1785
1858,1823,1770
1936,1885,1895
1872,1893,1906
1792,1829,1814
1829,1813,1774
1911,1891,1877
1881,1922,1927
1807,1827,1801
1821,1808,1767
1856,1897,1904
1859,1884,1915
1883,1823,1790
1833,1823,1776
1949,1897,1935
1836,1897,1935
1850,1840,1808
1854,1831,1761
1882,1889,1872
1889,1917,1945
1854,1823,1840
1865,1814,1787
1919,1882,1843
1818,1891,1883
1803,1825,1797
1906,1831,1794
1858,1886,1879
1875,1904,1927
1805,1847,1829
1839,1845,1808
1913,1905,1904
1910,1909,1917
1884,1840,1802
1823,1817,1762
1833,1872,1877
1899,1908,1974
1860,1843,1840
1828,1846,1807
1873,1917,1909
1867,1901,1908
1851,1847,1787
1865,1865,1808
1904,1897,1898
1847,1902,1940
1806,1827,1819
1808,1824,1762
1877,1895,1892
1905,1906,1942
1872,1835,1845
1853,1825,1797
1947,1908,1891
1877,1903,1929
1794,1819,1798
1755,1841,1808
1899,1882,1902
1904,1904,1920
1829,1811,1755
1841,1808,1774
1879,1900,1910
1883,1907,1963
1876,1837,1790
1839,1809,1761
1835,1883,1899
1843,1879,1923
1851,1815,1803
1934,1843,1790
1936,1909,1891
1886,1907,1937
1815,1823,1818
1843,1808,1775
1867,1892,1889
1853,1913,1922
1830,1849,1803
1925,1822,1808
1950,1898,1891
1862,1894,1921
1763,1815,1809
1825,1838,1818
1905,1885,1910
1899,1887,1899
1854,1841,1796
1807,1829,1807
1906,1899,1921
1943,1917,1907
1849,1811,1785
1833,1787,1774
1841,1873,1903
1830,1893,1932
1813,1824,1818
1883,1821,1791
1969,1906,1911
1891,1904,1904
1808,1829,1809
1818,1837,1791
1873,1884,1874
1914,1881,1895
1873,1809,1753
1821,1810,1758
1857,1904,1925
1833,1899,1920
1811,1815,1786
1859,1814,1761
1894,1872,1894
1889,1891,1936
1840,1837,1779
1851,1808,1770
1856,1897,1889
1857,1899,1927
1824,1815,1791
1843,1806,1759
1904,1893,1877
1860,1883,1911
1811,1803,1791
1871,1801,1751
1898,1870,1854
1826,1890,1897
1806,1821,1797
1856,1813,1790
1868,1878,1909
1839,1889,1893
1856,1813,1773
1883,1805,1761
1868,1915,1911
1834,1897,1917
1808,1803,1767
1840,1795,1744
1943,1868,1872
1889,1872,1895
1803,1809,1785
1808,1810,1776
1863,1878,1872
1861,1872,1859
1825,1817,1791
1853,1817,1773
1919,1889,1881
1914,1892,1942
1797,1827,1828
1830,1817,1746
1843,1851,1875
1856,1873,1890
1879,1799,1747
1895,1794,1762
1821,1885,1901
1782,1904,1936
1839,1840,1789
1872,1830,1774
1873,1873,1882
1879,1890,1894
1839,1854,1815
1847,1829,1756
1858,1869,1859
1859,1888,1910
1869,1807,1781
1819,1808,1777
1851,1861,1918
1849,1872,1899
1798,1814,1767
1886,1831,1751
1920,1885,1872
1867,1904,1917
1776,1810,1788
1827,1794,1774
1872,1872,1843
1903,1886,1856
1833,1789,1793
1843,1809,1795
1896,1907,1913
1839,1896,1872
1823,1809,1733
1847,1825,1782
1899,1890,1893
1873,1882,1878
1839,1795,1772
1826,1818,1792
1899,1889,1888
1854,1872,1872
1790,1798,1749
1856,1811,1737
1892,1891,1904
1841,1899,1913
1807,1814,1773
1859,1810,1762
1988,1904,1920
1904,1897,1894
1798,1809,1747
1783,1791,1766
1840,1885,1866
1886,1914,1904
1858,1830,1796
1824,1799,1761
1847,1871,1862
1830,1892,1863
1793,1818,1728
1863,1838,1763
1913,1898,1883
1857,1885,1893
1826,1827,1805
1843,1822,1764
1883,1889,1871
1838,1872,1862
1805,1819,1779
1856,1838,1766
1856,1899,1856
1863,1903,1887
1791,1811,1765
1827,1814,1762
1889,1878,1877
1856,1893,1901
1797,1819,1766
1853,1829,1751
1904,1878,1850
1867,1901,1904
1797,1818,1781
1827,1891,1780
1910,1856,1885
1856,1872,1879
1842,1798,1772
1857,1856,1779
1861,1885,1884
1843,1878,1895
1817,1791,1798
1868,1808,1744
1903,1888,1842
1856,1921,1909
1789,1881,1808
1831,1810,1748
1872,1932,1874
1877,1841,1905
1867,1824,1794
1855,1840,1763
1873,1920,1875
1835,1884,1904
1792,1805,1779
1824,1831,1763
1915,1898,1862
1926,1903,1898
1885,1808,1789
1804,1824,1777
1819,1891,1873
1885,1897,1911
1840,1811,1778
1863,1806,1776
1851,1875,1843
1857,1905,1901
1855,1807,1767
1840,1821,1787
1895,1903,1930
1841,1899,1904
1781,1813,1780
1853,1840,1781
1927,1949,1890
1897,1900,1913
1810,1826,1776
1904,1825,1773
1877,1911,1890
1822,1889,1872
1808,1824,1789
1841,1824,1790
1892,1882,1869
1870,1872,1899
1827,1842,1793
1847,1851,1775
1856,1941,1917
1875,1849,1925
1851,1854,1762
1839,1854,1786
1860,1902,1882
1892,1904,1914
1872,1791,1791
1840,1770,1796
1911,1924,1870
1861,1910,1920
1791,1822,1808
1853,1773,1783
1919,1892,1920
1866,1876,1921
1776,1837,1774
1842,1865,1775
1898,1932,1905
1935,1915,1917
1872,1837,1785
1866,1825,1778
1831,1859,1904
1826,1899,1948
1826,1831,1809
1878,1829,1766
1968,1915,1872
1851,1871,1857
1769,1790,1777
1813,1814,1808
1883,1888,1914
1891,1887,1918
1878,1829,1763
1840,1830,1744
1839,1895,1906
1819,1888,1936
1823,1842,1792
1904,1829,1780
1926,1931,1906
1872,1881,1924
1791,1819,1796
1843,1822,1757
1903,1872,1878
1884,1906,1931
1799,1810,1775
1860,1743,1776
1921,1903,1936
1854,1891,1906
1805,1823,1769
1838,1838,1751
1931,1900,1874
1872,1889,1927
1808,1811,1799
1856,1830,1802
1891,1899,1917
1885,1882,1927
1827,1828,1774
1851,1783,1759
1872,1881,1890
1854,1909,1950
1886,1879,1808
1893,1873,1775
1868,1855,1882
1808,1951,1901
1808,1765,1763
1872,1752,1776
1931,1939,1917
1871,1866,1936
1807,1777,1808
1869,1766,1788
1886,1874,1891
1865,1872,1904
1797,1834,1785
1840,1797,1809
1921,1858,1913
1920,1910,1947
1913,1808,1808
1856,1813,1784
1883,1871,1887
1871,1875,1872
1783,1811,1780
1837,1797,1775
1881,1934,1943
1867,1907,1962
1845,1836,1775
1840,1871,1745
1904,1899,1904
1893,1904,1950
1792,1814,1794
1858,1807,1776
1920,1915,1895
1854,1889,1917
1797,1850,1811
1872,1828,1776
1930,1904,1854
1904,1949,1897
1831,1862,1828
1838,1840,1808
1843,1859,1897
1827,1888,1906
1840,1807,1808
1891,1824,1794
1914,1998,1906
1857,1877,1898
1799,1803,1827
1837,1894,1795
1914,1889,1909
1876,1904,1939
1825,1818,1785
1840,1821,1744
1907,1895,1883
1898,1889,1931
1840,1840,1819
1849,1808,1815
1887,1875,1910
1842,1889,1922
1828,1829,1820
1868,1822,1779
1893,1905,1925
1899,1897,1915
1855,1823,1797
1808,1827,1804
1875,1898,1910
1860,1879,1919
1829,1821,1792
1905,1840,1805
1920,1883,1873
1852,1897,1919
1823,1842,1828
1861,1846,1797
1897,1889,1894
1858,1890,1904
1834,1821,1781
1887,1839,1808
1904,1909,1933
1872,1879,1917
1834,1825,1808
1917,1847,1834
1936,1920,1913
1862,1912,1893
1781,1805,1749
1799,1812,1776
1886,1907,1943
1890,1907,1938
1873,1844,1792
1882,1827,1771
1872,1879,1914
1845,1883,1926
1803,1821,1803
1850,1840,1787
1905,1910,1914
1889,1910,1935
1869,1811,1775
1879,1829,1774
1877,1921,1924
1838,1903,1918
1831,1825,1795
1878,1844,1809
1895,1917,1911
1881,1886,1897
1828,1808,1779
1840,1820,1806
1904,1907,1925
1918,1899,1919
1818,1825,1787
1863,1831,1807
1878,1903,1904
1841,1904,1901
1859,1845,1796
1935,1847,1808
1933,1905,1938
1812,1899,1945
1786,1825,1803
1849,1830,1790
1918,1887,1915
1908,1891,1911
1809,1838,1805
1834,1834,1819
1936,1905,1926
1945,1907,1921
1866,1830,1778
1883,1829,1771
1869,1883,1895
1801,1899,1935
1797,1827,1814
1872,1824,1803
1939,1882,1872
1921,1881,1901
1830,1821,1806
1819,1846,1808
1846,1901,1904
1902,1904,1921
1873,1824,1793
1904,1840,1764
1950,1914,1898
1914,1918,1925
1775,1793,1773
1850,1803,1775
1931,1890,1911
1886,1863,1906
1829,1797,1755
1887,1840,1791
1970,1911,1920
1874,1900,1921
1774,1823,1789
1818,1813,1806
1887,1901,1914
1919,1886,1914
1845,1813,1783
1853,1817,1763
1904,1905,1923
1904,1885,1923
1872,1814,1803
1895,1835,1777
1899,1889,1877
1843,1872,1888
1814,1799,1778
1849,1822,1776
1870,1909,1890
1864,1903,1920
1874,1815,1817
1903,1801,1763
1924,1891,1859
1843,1882,1878
1780,1797,1795
1818,1820,1809
1911,1899,1923
1891,1891,1914
1862,1826,1791
1870,1810,1767
1854,1891,1885
1849,1884,1917
1856,1799,1801
1864,1826,1793
1877,1902,1888
1943,1904,1915
1861,1811,1808
1842,1814,1759
1847,1879,1886
1840,1875,1904
1808,1818,1793
1850,1813,1775
1899,1872,1895
1863,1899,1914
1812,1819,1790
1866,1814,1754
1904,1872,1894
1907,1872,1899
1856,1820,1792
1840,1834,1775
1872,1883,1901
1845,1904,1935
1835,1808,1762
