2000,1770,1882
2027,1763,1871
2033,1760,1921
2023,1877,1959
2031,1808,1906
2078,1786,1903
2032,1535,1913
2032,1813,1966
2028,1716,1940
2025,1424,1894
2042,1632,2035
2023,1637,2262
2015,1591,2623
2018,1584,1939
2028,1633,1627
2010,1691,1710
2017,1693,1824
2036,1533,1853
2032,1584,1840
2014,1664,1837
2010,1523,1813
2047,1562,1831
2047,1639,1881
2013,1603,2168
1939,1466,2046
1920,1457,1438
1936,1515,1733
1925,1584,1874
1913,1445,1717
1920,1453,3104
1786,1338,2319
1505,1091,2796
1212,789,511
1327,846,783
1508,1013,2913
1341,867,4095
805,327,2149
576,58,309
542,163,3191
0,0,3552
0,0,1718
0,0,1171
0,0,2343
0,0,3442
0,0,854
0,0,4095
0,0,2480
0,0,1406
0,0,1483
0,0,1776
0,0,1882
0,0,1859
397,0,1834
1133,66,1823
1424,661,1823
1465,1097,1830
1474,1127,1824
1556,1183,1827
1645,1259,1834
1711,1488,1825
1762,1350,1825
1840,1395,1827
1895,1653,1830
1905,1589,1829
1950,1591,1830
2034,1761,1831
2064,1791,1829
2069,1822,1831
2098,1813,1827
2159,1901,1829
2193,2054,1833
2202,2106,1826
2211,1942,1826
2246,1979,1832
2283,2090,1833
2266,2141,1829
2273,2128,1825
2310,2147,1827
2325,2203,1840
2326,2240,1838
2339,2224,1770
2379,2235,1734
2383,2288,1775
2366,2320,1791
2373,2298,1719
2402,2295,1670
2413,2342,1725
2404,2368,1749
2393,2339,1685
2402,2341,1662
2410,2384,1711
2395,2403,1724
2386,2375,1652
2418,2379,1634
2422,2418,1680
2403,2438,1701
2406,2409,1637
2426,2397,1600
2431,2433,1661
2417,2449,1702
2431,2416,1645
2458,2414,1614
2450,2452,1649
2421,2462,1680
2417,2419,1615
2450,2410,1599
2455,2451,1666
2439,2469,1690
2432,2423,1630
2464,2409,1599
2461,2447,1649
2427,2463,1683
2422,2418,1616
2449,2411,1589
2460,2445,1655
2448,2461,1690
2442,2420,1626
2451,2401,1597
2467,2435,1663
2465,2447,1711
2455,2395,1650
2480,2381,1614
2466,2416,1652
2432,2419,1668
2451,2384,1633
2490,2381,1637
2482,2417,1691
2450,2421,1700
2437,2365,1641
2482,2349,1617
2494,2384,1685
2470,2385,1715
2465,2339,1648
2495,2316,1618
2492,2347,1677
2459,2352,1715
2453,2303,1662
2476,2282,1627
2460,2301,1661
2428,2301,1679
2432,2256,1615
2469,2240,1603
2458,2263,1655
2419,2270,1691
2414,2221,1615
2429,2198,1571
2423,2226,1619
2397,2229,1657
2389,2176,1605
2416,2149,1581
2399,2187,1622
2352,2182,1634
2320,2121,1535
2367,2119,1535
2367,2154,1635
2333,2156,1655
2307,2096,1570
2318,2082,1530
2337,2122,1609
2317,2128,1655
2311,2078,1595
2329,2063,1571
2318,2096,1625
2289,2105,1666
2297,2059,1611
2330,2047,1593
2337,2102,1679
2311,2112,1714
2299,2061,1648
2320,2046,1614
2320,2089,1677
2309,2096,1723
2319,2059,1682
2339,2032,1650
2317,2064,1703
2286,2075,1738
2288,2035,1691
2313,2029,1663
2303,2063,1719
2278,2069,1757
2258,2026,1691
2294,2010,1678
2304,2041,1738
2260,2053,1763
2240,1995,1704
2250,1970,1663
2227,1994,1710
2202,1999,1742
2186,1939,1665
2190,1918,1634
2182,1939,1682
2149,1937,1723
2129,1875,1648
2123,1840,1591
2086,1842,1612
2021,1822,1617
1971,1743,1520
1952,1693,1464
1907,1691,1485
1845,1676,1488
1820,1603,1398
1815,1559,1351
1771,1573,1387
1708,1535,1386
1670,1462,1296
1650,1421,1229
1604,1429,1246
1535,1418,1266
1511,1348,1180
1487,1297,1108
1447,1296,1125
1411,1296,1156
1390,1248,1103
1381,1206,1053
1354,1216,1087
1292,1211,1127
1264,1141,986
1254,1104,949
1232,1123,1023
1189,1115,989
1152,1047,906
1151,1023,880
1133,1049,906
1099,1060,918
1070,989,883
1062,944,877
1010,957,906
958,957,836
923,891,850
938,853,725
913,872,818
865,879,816
835,822,723
839,776,757
814,795,752
763,791,757
734,739,682
764,724,697
752,752,717
704,755,735
699,713,640
715,692,640
673,720,687
630,735,726
618,686,656
623,655,607
603,672,642
574,686,679
544,635,651
546,601,582
528,622,624
475,630,659
454,583,592
453,556,540
433,583,624
422,601,612
420,563,592
435,543,561
419,577,595
385,593,607
369,556,582
390,543,570
393,585,615
372,607,656
379,578,622
407,572,624
397,610,649
323,592,3602
0,0,4095
0,0,4095
0,0,4095
0,0,4095
0,0,4095
0,0,4095
0,0,4095
0,0,4095
0,0,4095
0,0,4095
0,0,4095
0,0,4095
0,0,4095
0,0,4095
0,0,4095
0,0,4095
0,0,4095
0,0,4095
0,0,4095
0,0,4095
0,0,2736
0,0,1808
0,0,1613
0,0,1740
0,0,2400
0,0,2484
0,0,827
0,0,2462
0,0,2091
0,0,1561
0,0,1633
0,798,1379
0,1763,1739
0,2238,1869
720,2544,1835
1651,2823,1861
1919,2951,2135
1954,3113,1407
2109,3452,1501
2306,3882,1792
2514,4095,1764
2747,4095,1863
2945,4095,1835
3110,4095,1830
3278,4095,1825
3491,4095,1872
3694,4095,1974
3869,4095,2035
4065,4095,1999
4095,4095,2014
4095,4095,2081
4095,4095,2152
4095,4095,2127
4095,4095,2163
4095,4095,2163
4095,4095,2230
4095,4095,2227
4095,4095,2214
4095,4095,1885
4095,4095,1808
4095,4095,1793
4095,4095,1795
4095,4095,1870
4095,4095,1851
4095,4095,1837
4095,4095,1825
4095,4095,1826
4095,4095,1827
4095,4095,1874
4095,4095,1840
4095,4095,1840
4095,4095,1813
4095,4095,1761
4095,4095,1834
4095,4095,1859
4095,4095,1917
4095,4095,1797
4095,4095,1793
4095,4095,1831
4095,4095,1810
4095,4095,1831
4095,4095,1830
4095,4095,1818
4095,4095,1840
4095,4095,1836
4095,4095,1828
4095,4095,1797
4095,4095,1830
4095,4095,1842
4095,4095,1807
4095,4095,1881
4095,4095,1805
4095,4095,1849
4095,4095,1898
4095,4095,1881
4095,4095,1966
4095,4095,1941
4095,4095,1888
4095,4095,1936
4095,4095,2036
4095,4095,1989
4095,4095,1968
4095,4095,2038
4095,4095,2122
4095,4095,1921
4095,4095,1957
4095,4095,1943
4095,4095,1919
4095,4095,1886
4095,4095,1866
4095,4095,1872
4095,4095,1889
4095,4095,1835
4095,4095,1809
4095,4095,1859
4095,4095,1871
4095,4095,1814
4095,4095,1770
4095,4095,1794
4095,4095,1814
4095,4095,1776
4095,4095,1739
4095,4095,1776
4095,4095,1811
4095,4095,1754
4095,4095,1710
4095,4095,1744
4095,4095,1771
4095,4095,1718
4095,4095,1680
4095,4095,1726
4095,4095,1758
4095,4095,1713
4095,4095,1685
4095,4095,1712
4095,4095,1742
4095,4095,1690
4095,4095,1665
4095,4095,1706
4095,4090,1738
4095,3902,1692
4095,3767,1664
4095,3743,1700
4095,3722,1722
4095,3643,1689
4095,3577,1652
4095,3513,1682
4095,3499,1710
4095,3376,1678
4095,3319,1648
4095,3337,1697
4095,3541,1742
4095,3267,1669
4095,3009,1626
4095,3024,1659
4095,3087,1697
4095,3033,1666
4095,2981,1639
4095,2973,1683
4095,2985,1728
4095,2955,1680
4095,2934,1650
4095,2943,1680
4095,2858,1718
4095,2734,1685
4095,2736,1659
4095,2775,1689
4095,2727,1742
4095,2661,1697
4095,2642,1661
4095,2638,1694
4095,2608,1731
4095,2555,1671
4095,2512,1643
4095,2515,1680
4095,2496,1705
4095,2429,1641
4095,2373,1595
4095,2373,1623
4095,2352,1648
4095,2289,1587
3985,2348,1554
3823,2268,1577
3762,2088,1565
3616,2028,1495
3583,2026,1455
3529,2067,1501
3411,2096,1518
3376,2018,1457
3390,1866,1417
3407,1860,1455
3300,1859,1482
3190,1821,1424
3166,1795,1388
3243,1807,1415
3088,1801,1437
3058,1755,1402
3081,1712,1362
3014,1711,1390
3019,1693,1399
2921,1641,1378
2923,1614,1366
2853,1619,1391
2767,1613,1413
2864,1573,1385
2851,1535,1359
2773,1535,1404
2737,1535,1431
2709,1490,1374
2701,1458,1340
2711,1474,1376
2672,1483,1420
2640,1445,1380
2653,1410,1351
2559,1418,1395
2542,1426,1435
2512,1392,1380
2519,1369,1349
2513,1392,1421
2482,1409,1470
2474,1373,1438
2483,1347,1401
2464,1360,1439
2416,1375,1485
2402,1335,1435
2418,1322,1415
2354,1342,1457
2394,1349,1505
2383,1313,1466
2448,1297,1433
2350,1337,1493
2305,1357,1510
2306,1334,1503
2321,1305,1471
2307,1329,1521
2244,1355,1573
2172,1327,1530
2286,1310,1501
2271,1347,1568
2226,1343,1607
2224,1309,1567
2251,1302,1535
2239,1328,1596
2194,1360,1638
2192,1329,1604
2217,1314,1584
2208,1345,1626
2175,1360,1669
2172,1329,1633
2175,1318,1604
2192,1345,1652
2179,1366,1703
2183,1337,1664
2167,1325,1643
2117,1360,1698
2087,1377,1742
2075,1344,1699
2114,1326,1674
2097,1360,1717
2158,1390,1761
2061,1359,1715
2112,1325,1672
2135,1355,1737
2042,1380,1792
2122,1360,1754
2112,1344,1714
2035,1366,1757
2037,1383,1804
2010,1360,1757
1959,1347,1733
2015,1372,1776
1980,1399,1823
2032,1375,1792
2010,1360,1758
2000,1381,1791
1943,1395,1829
1956,1367,1798
2027,1360,1776
1967,1392,1818
1942,1415,1860
1952,1377,1830
1962,1361,1799
1954,1400,1840
1907,1415,1870
1904,1387,1829
1904,1373,1793
1963,1397,1831
1855,1418,1872
1867,1389,1834
1982,1378,1807
1942,1414,1850
1898,1424,1867
1797,1397,1862
1845,1391,1845
1819,1421,1891
1826,1440,1921
1829,1414,1870
1936,1395,1833
1911,1436,1881
1810,1462,1931
1767,1424,1889
1850,1410,1856
1822,1440,1887
1792,1470,1931
1767,1435,1898
1808,1422,1865
1809,1452,1907
1783,1481,1947
1789,1452,1911
1811,1443,1881
1811,1470,1926
1777,1496,1974
1779,1479,1942
1799,1462,1904
1791,1497,1937
1757,1525,1974
1770,1495,1939
1790,1488,1920
1781,1521,1955
1751,1535,1999
1749,1514,1965
1776,1513,1927
1778,1554,1973
1755,1582,2016
1748,1535,1984
1769,1533,1949
1758,1578,1984
1742,1606,2025
1741,1581,1985
1762,1563,1951
1747,1595,1995
1719,1614,2031
1727,1593,1990
1761,1585,1967
1747,1609,2000
1716,1646,2034
1731,1619,2021
1769,1611,1995
1763,1637,2026
1729,1664,2059
1742,1643,2023
1764,1633,1990
1755,1670,2032
1727,1693,2070
1727,1668,2026
1751,1663,2000
1776,1691,2065
1758,1719,2099
1743,1695,2032
1773,1685,2026
1773,1717,2078
1755,1746,2102
1744,1730,2055
1765,1710,2032
1804,1747,2066
1840,1775,2099
1766,1718,2045
1731,1712,2023
1699,1751,2092
1706,1781,2134
1776,1770,2082
1815,1741,2023
1738,1755,2046
1698,1793,2121
1744,1766,2079
1773,1749,2032
1824,1795,2080
1991,1863,2140
1840,1773,1991
1777,1786,2047
1776,1776,2008
1582,1754,2053
1616,1763,2133
1745,1768,2064
1750,1777,2053
1733,1810,2102
1659,1771,2037
1668,1774,2058
1669,1807,2096
1644,1815,2096
1681,1788,2041
1711,1774,2039
1698,1796,2080
1625,1823,2101
1615,1804,2058
1683,1792,2014
1674,1809,2033
1636,1829,2091
1649,1785,2027
1689,1758,1987
1719,1790,2039
1639,1770,2001
1587,1778,1987
1649,1764,1938
1824,1782,1968
1589,1801,2079
1529,1813,2035
1535,1751,1958
1601,1750,1968
1520,1767,2032
1440,1744,1979
1569,1729,1997
1623,1784,2007
1588,1780,1979
1589,1761,1925
1569,1734,1935
1616,1805,2032
1457,1801,2016
1368,1744,1975
1360,1716,1937
1309,1738,1904
1366,1815,1975
1215,1767,1886
1023,1721,1893
975,1774,1999
976,1783,2038
1017,1747,2018
1008,1730,1872
1009,1744,1913
948,1786,1991
878,1770,1994
895,1754,1897
963,1779,1936
911,1747,1949
906,1774,1956
945,1777,1920
941,1794,1985
895,1808,1969
864,1786,1971
911,1776,1950
912,1807,1965
877,1835,1966
926,1815,1980
944,1830,2035
903,1851,2015
937,1883,2070
960,1852,2036
995,1849,1904
1089,1888,1945
1102,1853,1955
905,1873,2082
814,1855,2073
898,1893,2031
1005,1904,2110
1023,1920,2047
1053,1878,1990
1023,1904,2032
1009,1907,2082
1074,1891,1937
1102,1879,1994
969,1922,2148
1015,1937,2096
1015,1923,2083
1070,1869,2031
1095,1893,2070
1033,1963,2091
1077,2015,2037
1142,1968,1968
1197,1953,2020
1008,1936,2147
1039,1983,2145
1116,1911,2067
1131,2047,2031
1189,2047,2081
1171,1913,2061
1161,2009,2058
1243,2000,2034
1165,2058,2103
1147,2003,2069
1185,1979,1995
1182,1968,2111
1191,1998,2114
1227,1968,2037
1294,2029,2026
1213,2045,2096
1280,2073,2144
1169,2054,2091
1210,2007,2058
1295,2034,1979
1373,2059,2069
1328,1984,2000
1270,1975,2031
1226,2066,2077
1215,1980,2106
1282,1951,2027
1367,1982,2026
1335,2064,2054
1345,2107,2037
1350,2059,2064
1414,2013,2003
1387,2044,2003
1322,2084,2090
1296,2047,2014
1369,1999,1995
1436,2061,2065
1375,2080,2080
1389,2019,1983
1462,2021,1943
1402,2047,2043
1465,2032,2014
1456,2030,1958
1422,2023,1969
1466,2034,1989
1415,2078,2096
1423,2096,2079
1410,2003,1939
1456,2067,1982
1456,2074,2030
1493,2014,1974
1575,2047,1925
1614,2011,1933
1571,2065,2015
1406,1965,2055
1455,1934,1900
1609,2025,1881
1598,2020,1961
1528,1968,1952
1461,1975,1959
1517,2063,2015
1535,1990,2000
1584,1959,1961
1582,1918,1904
1535,1984,1933
1521,1970,1951
1520,1941,1879
1639,1964,1884
1605,2064,1903
1557,1983,1909
1558,1936,1903
1563,1970,1871
1562,2013,1931
1587,1978,1956
1654,1944,1851
1650,1943,1843
1651,1950,1856
1520,1985,1936
1525,1929,1870
1639,1873,1807
1594,1927,1842
1519,1971,1932
1535,1895,1856
1750,1893,1786
1733,1936,1831
1572,1921,1937
1564,1989,1872
1645,2000,1795
1696,1879,1771
1733,1885,1845
1617,1946,1857
1573,1876,1846
1535,1887,1808
1638,1903,1809
1679,1867,1776
1654,1872,1788
1669,1891,1810
1633,1885,1874
1609,1879,1831
1671,1855,1744
1777,1888,1671
1781,1882,1769
1674,1842,1801
1605,1834,1797
1593,1855,1831
1595,1953,1809
1679,1857,1788
1763,1824,1659
1844,1805,1732
1652,1837,1829
1554,1846,1824
1654,1822,1744
1679,1867,1805
1692,1797,1794
1625,1904,1744
1675,1845,1628
1731,1704,1689
1769,1906,1795
1744,1773,1837
1721,1677,1739
1606,1755,1689
1609,1789,1764
1739,1870,1779
1717,1803,1722
1664,1809,1730
1709,1824,1738
1760,1776,1713
1799,1711,1673
1741,1731,1774
1584,1801,1830
1638,1777,1782
1797,1732,1655
1791,1737,1663
1731,1773,1712
1749,1731,1745
1835,1708,1713
1706,1757,1690
1654,1739,1694
1763,1703,1733
1735,1663,1680
1715,1714,1744
1684,1719,1728
1662,1649,1605
1695,1690,1615
1744,1776,1849
1772,1779,1846
1821,1714,1744
1712,1739,1629
1680,1661,1562
1808,1733,1751
1744,1744,1765
1633,1678,1623
1729,1680,1565
1747,1741,1776
1744,1725,1765
1638,1508,1521
1751,1691,1613
1744,1749,1862
1733,1761,1776
1808,1762,1681
1841,1669,1587
1722,1699,1723
1648,1712,1691
1776,1663,1584
1791,1663,1637
1642,1708,1760
1654,1690,1711
1759,1634,1615
1915,1705,1645
1696,1696,1712
1615,1648,1659
1767,1712,1593
1775,1722,1696
1793,1689,1728
1793,1629,1535
1703,1660,1679
1661,1719,1746
1644,1696,1674
1777,1671,1589
1835,1685,1693
1773,1723,1739
1735,1722,1685
1735,1666,1610
1778,1650,1563
1813,1690,1702
1763,1674,1675
1601,1674,1629
1739,1703,1680
1803,1753,1738
1710,1694,1681
1787,1667,1654
1786,1611,1523
1735,1680,1626
1741,1745,1782
1831,1665,1657
1651,1524,1408
1801,1715,1653
1757,1797,1894
1728,1745,1803
1838,1714,1581
1869,1689,1610
1734,1725,1778
1699,1705,1721
1703,1636,1499
1807,1703,1637
1815,1749,1757
1744,1655,1620
1872,1703,1614
1777,1727,1649
1638,1697,1684
1788,1712,1711
1808,1696,1646
1881,1736,1682
1897,1740,1744
1762,1681,1664
1734,1637,1519
1755,1687,1616
1740,1751,1824
1743,1717,1696
1826,1680,1584
1850,1703,1674
1804,1703,1559
1817,1725,1680
1821,1728,1769
1749,1683,1712
1705,1665,1559
1833,1744,1719
1839,1681,1639
1835,1691,1622
1805,1756,1742
1759,1700,1684
1778,1683,1669
1825,1749,1726
1810,1774,1725
1830,1698,1617
1941,1635,1511
1936,1721,1734
1775,1763,1840
1742,1707,1690
1823,1693,1583
1852,1734,1670
1872,1735,1712
1840,1690,1669
1871,1696,1570
1863,1773,1725
1805,1766,1731
1782,1728,1754
1872,1697,1695
1874,1714,1646
1792,1710,1669
1868,1723,1681
1901,1753,1686
1797,1741,1733
1776,1741,1716
1837,1684,1622
1867,1703,1653
1837,1724,1731
1807,1750,1765
1838,1696,1654
1951,1712,1637
1891,1733,1757
1897,1767,1786
1855,1712,1639
1829,1693,1593
1819,1747,1699
1904,1760,1773
1865,1741,1789
1890,1717,1665
1888,1735,1677
1878,1759,1741
1918,1744,1746
1900,1743,1765
1876,1776,1792
1842,1783,1745
1921,1749,1680
1904,1716,1716
1936,1761,1784
2009,1776,1757
1889,1771,1773
1921,1713,1707
1898,1725,1739
1859,1794,1778
1863,1745,1740
1911,1715,1703
1934,1733,1744
1877,1750,1774
1901,1749,1758
1946,1709,1687
1945,1721,1723
1903,1744,1734
1939,1739,1762
1953,1719,1780
1981,1714,1735
1885,1723,1758
1823,1721,1771
1855,1701,1711
1968,1747,1775
1921,1762,1840
1872,1709,1757
1939,1677,1684
1935,1698,1715
1951,1749,1765
1942,1728,1763
1939,1723,1745
2038,1745,1795
1931,1809,1884
1855,1771,1771
1984,1735,1709
2076,1751,1775
1891,1751,1827
1835,1739,1757
1936,1712,1715
1903,1715,1712
1926,1739,1713
1904,1697,1781
1953,1701,1708
2091,1749,1799
1873,1782,1751
1781,1711,1744
1905,1725,1753
1984,1757,1767
1984,1786,1813
2003,1761,1773
1975,1712,1768
1969,1751,1778
1927,1792,1857
1959,1771,1868
2022,1744,1651
1999,1776,1806
1942,1794,1872
1909,1776,1813
1966,1742,1823
1936,1778,1817
1954,1791,1872
1993,1783,1788
2079,1744,1665
1950,1817,1894
1978,1823,1845
1987,1785,1789
1955,1737,1797
1988,1790,1921
2009,1830,1866
1961,1797,1797
1991,1744,1776
1980,1746,1763
1994,1803,1830
2082,1810,1799
1952,1765,1823
1981,1781,1856
1905,1783,1883
1996,1814,1856
2032,1811,1801
1952,1777,1787
1961,1795,1875
1993,1780,1843
2038,1770,1637
2010,1755,1726
2041,1817,1906
1985,1811,1915
1919,1798,1835
1905,1818,1793
1938,1801,1874
2055,1791,1798
2102,1755,1756
1952,1787,1851
1887,1822,1886
1917,1799,1890
1966,1759,1771
1966,1734,1725
2027,1802,1771
1906,1789,1919
1886,1763,1885
1931,1777,1800
1921,1801,1825
1926,1770,1721
1986,1734,1822
2033,1782,1767
1981,1812,1824
2032,1787,1787
1999,1765,1763
1851,1751,1836
1915,1777,1830
1936,1805,1877
1936,1757,1857
1952,1794,1835
1991,1823,1862
1936,1776,1815
2013,1750,1766
2047,1791,1749
1978,1834,1820
1882,1772,1842
1899,1776,1861
1945,1821,1894
1905,1810,1811
1973,1775,1770
2013,1779,1827
2000,1813,1856
1982,1841,1860
1998,1786,1791
1979,1769,1782
1923,1774,1792
1995,1807,1854
1991,1787,1852
1943,1755,1871
2009,1791,1817
1972,1793,1791
1924,1796,1917
1947,1782,1875
1974,1805,2559
1920,1788,2471
1968,1776,1853
2023,1764,1727
1945,1746,1675
1891,1760,1782
1951,1778,1839
1983,1754,1846
1927,1766,1831
1934,1786,1830
1936,1762,1834
2026,1758,1831
2010,1793,1832
1913,1835,1790
1923,1801,1828
2001,1761,1845
2043,1789,1885
1863,1824,1823
1855,1802,1863
1963,1779,1831
2015,1807,1879
1979,1830,1833
1923,1815,1847
1916,1776,1868
2083,1797,1888
1979,1839,1808
1895,1818,1838
1904,1772,1872
1932,1813,1872
2019,1834,1789
2136,1814,1855
1927,1753,1811
1877,1805,1797
1899,1842,1835
1922,1818,1842
1943,1760,1798
1964,1790,1831
1952,1840,1808
2027,1821,1854
1989,1778,1781
1907,1812,1807
1927,1829,1889
2019,1774,1840
1941,1779,1794
1884,1808,1808
1808,1851,1875
1817,1803,1855
1865,1765,1700
1825,1776,1791
1807,1813,1901
1796,1801,1813
1847,1777,1771
1765,1793,1813
1744,1823,1886
1777,1783,1803
1776,1757,1761
1873,1804,1837
1862,1829,1836
1783,1779,1824
1712,1776,1782
1741,1795,1811
1731,1802,1874
1751,1794,1793
1820,1791,1734
1819,1782,1783
1755,1789,1899
1728,1767,1895
1741,1771,1889
1786,1792,1814
1783,1817,1872
1743,1756,1773
1837,1758,1759
1815,1806,1865
1806,1867,1874
1794,1754,1746
1701,1727,1712
1701,1757,1803
1781,1809,1845
1830,1776,1807
1760,1762,1803
1749,1792,1830
1786,1822,1866
1818,1790,1774
1793,1763,1711
1744,1772,1761
1774,1808,1855
1805,1811,1841
1830,1770,1747
1869,1741,1687
1779,1813,1867
1774,1810,1860
1801,1788,1787
1801,1780,1766
1776,1807,1838
1808,1807,1789
1859,1791,1741
1807,1781,1769
1744,1812,1761
1799,1798,1791
1936,1791,1767
1746,1799,1778
1712,1829,1819
1787,1798,1745
1789,1762,1702
1878,1792,1759
1842,1863,1837
1747,1838,1837
1773,1802,1773
1780,1792,1760
1747,1795,1757
1853,1846,1814
1791,1815,1776
1799,1811,1776
1778,1841,1814
1984,1819,1757
1892,1807,1718
1769,1815,1775
1693,1844,1868
1713,1813,1782
1856,1790,1726
1819,1824,1777
1787,1861,1825
1770,1821,1786
1826,1808,1735
1817,1808,1722
1796,1839,1848
1850,1802,1816
1830,1814,1760
1829,1840,1746
1854,1824,1738
1873,1817,1800
1806,1804,1798
1840,1809,1795
1840,1871,1797
1808,1829,1776
1815,1805,1785
1791,1798,1795
1855,1834,1802
1937,1846,1747
1799,1808,1790
1772,1823,1815
1798,1849,1838
1815,1845,1775
1942,1814,1773
1846,1831,1806
1797,1850,1814
1826,1825,1789
1840,1797,1771
1854,1827,1794
1877,1863,1826
1840,1815,1741
1784,1808,1806
1814,1829,1807
1808,1847,1833
1846,1830,1823
1823,1831,1794
1912,1851,1822
1817,1850,1834
1875,1813,1809
1856,1801,1751
1826,1799,1778
1947,1871,1789
1855,1841,1736
1834,1821,1792
1791,1831,1855
1849,1855,1866
1796,1838,1830
1829,1818,1777
1875,1843,1820
1846,1856,1833
1888,1828,1781
1958,1846,1747
1899,1829,1798
1777,1851,1884
1831,1840,1844
1934,1823,1769
1884,1818,1778
1787,1840,1872
1779,1858,1824
1840,1853,1771
1867,1867,1835
1882,1871,1872
1840,1841,1807
1825,1837,1808
1856,1872,1825
1840,1915,1879
1862,1861,1799
1808,1805,1756
1840,1847,1858
1837,1889,1913
1837,1857,1849
1895,1807,1744
1905,1878,1803
1904,1887,1850
1797,1841,1808
1838,1837,1796
1813,1870,1833
1856,1904,1888
1857,1875,1837
1936,1833,1731
1863,1858,1812
1783,1895,1913
1818,1889,1890
1882,1855,1821
1909,1858,1826
1897,1906,1856
1853,1887,1817
1920,1858,1782
1969,1863,1785
1919,1917,1895
1872,1878,1837
1771,1858,1808
1827,1871,1839
1814,1921,1901
1902,1884,1823
1979,1859,1759
1886,1864,1808
1807,1902,1907
1810,1911,1893
1835,1872,1840
1914,1894,1866
1837,1921,1882
1895,1895,1827
1842,1860,1779
1840,1901,1840
1829,1923,1872
1846,1891,1847
1915,1856,1786
1887,1877,1810
1775,1917,1933
1824,1894,1895
1835,1865,1791
1941,1884,1799
1907,1923,1923
1872,1914,1917
1872,1886,1840
1875,1883,1819
1827,1874,1827
1828,1887,1827
1925,1904,1837
1901,1920,1847
1855,1926,1875
1897,1904,1859
1889,1882,1826
1855,1888,1851
1845,1926,1891
1847,1901,1840
1968,1885,1769
1922,1919,1861
1842,1957,1933
1793,1908,1876
1816,1881,1814
1898,1892,1838
1937,1939,1886
1915,1933,1871
1930,1887,1794
1910,1903,1820
1837,1920,1895
1819,1888,1899
1855,1879,1893
1971,1901,1842
1936,1925,1893
1894,1904,1872
1872,1872,1812
1936,1904,1831
1951,1930,1917
1877,1918,1843
1850,1882,1854
1873,1899,1890
1910,1917,1919
1897,1918,1878
1889,1904,1843
1923,1921,1881
1885,1936,1920
1869,1913,1856
1918,1878,1808
1903,1905,1853
1904,1919,1893
1861,1904,1890
1863,1901,1854
1886,1906,1851
1868,1925,1902
1872,1904,1862
1930,1873,1803
1903,1895,1891
1862,1927,1934
1895,1904,1861
1955,1883,1808
1946,1895,1877
1860,1929,1931
1842,1895,1857
1907,1899,1859
1910,1907,1890
1843,1910,1906
1861,1904,1886
1899,1875,1813
1941,1890,1840
1874,1920,1918
1904,1915,1890
1911,1888,1829
1930,1915,1883
1861,1920,1914
1851,1891,1882
1914,1866,1829
1891,1911,1867
1890,1941,1925
1872,1891,1840
1933,1865,1795
1903,1901,1863
1868,1911,1913
1851,1904,1920
1862,1888,1880
1904,1909,1882
1902,1935,1915
1899,1904,1859
1951,1869,1785
1904,1875,1847
1819,1940,1947
1833,1903,1863
1936,1853,1786
1932,1907,1890
1920,1914,1902
1901,1906,1894
1871,1875,1873
1865,1871,1840
1891,1906,1873
1883,1904,1933
1876,1882,1853
1872,1899,1861
1909,1921,1935
1910,1902,1898
1883,1872,1855
1865,1875,1869
1859,1917,1929
1856,1898,1885
1938,1875,1818
1949,1889,1847
1866,1914,1952
1903,1918,1916
1946,1873,1834
1903,1887,1862
1856,1910,1911
1846,1887,1893
1888,1856,1840
1973,1893,1885
1911,1915,1926
1836,1887,1895
1840,1869,1847
1872,1887,1877
1906,1916,1904
1913,1902,1872
1905,1854,1842
1901,1892,1887
1831,1904,1875
1882,1907,1856
1923,1868,1808
1877,1872,1883
1879,1925,1950
1861,1872,1882
1885,1841,1808
1910,1859,1863
1841,1897,1894
1834,1903,1861
1892,1841,1789
1938,1849,1849
1873,1919,1966
1841,1905,1870
1887,1856,1800
1903,1866,1818
1861,1899,1889
1885,1905,1923
1919,1866,1829
1886,1856,1825
1840,1881,1904
1829,1878,1897
1871,1856,1840
1913,1872,1843
1938,1904,1875
1937,1874,1850
1895,1863,1803
1831,1859,1830
1792,1888,1913
1853,1869,1877
1918,1841,1807
1922,1869,1840
1937,1893,1910
1937,1878,1883
1839,1838,1789
1833,1859,1859
1842,1892,1919
1920,1876,1862
1887,1849,1802
1877,1877,1861
1840,1904,1915
1855,1872,1861
1909,1842,1785
1923,1845,1811
1874,1909,1901
1853,1889,1865
1930,1854,1813
1909,1885,1877
1849,1901,1921
1825,1873,1883
1930,1855,1827
1936,1872,1816
1957,1904,1857
1869,1884,1871
1813,1843,1810
1872,1851,1823
1883,1904,1909
1890,1879,1879
1973,1879,1839
1927,1883,1839
1787,1898,1904
1819,1874,1895
1891,1811,1855
1915,1929,1833
1879,1853,1878
1850,1910,1877
1922,1891,1838
1888,1854,1879
1825,1873,1899
1845,1869,1858
1901,1838,1823
1879,1867,1862
1869,1903,1898
1867,1865,1841
1878,1831,1797
1879,1845,1829
1865,1900,1913
1866,1872,1871
1902,1845,1805
1922,1925,1840
1904,1859,1895
1828,1900,1870
1871,1796,1835
1904,1871,1865
1860,1889,1873
1838,1872,1838
1884,1843,1802
1931,1869,1835
1877,1898,1885
1863,1894,1873
1894,1891,1811
1889,1872,1843
1904,1891,1877
1890,1861,1879
1846,1821,1831
1847,1869,1839
1853,1899,1898
1862,1895,1904
1875,1838,1817
1889,1886,1818
1873,1879,1857
1861,1841,1861
1904,1840,1811
1879,1869,1842
1841,1947,1904
1869,1872,1872
1918,1845,1813
1962,1886,1828
1883,1866,1888
1850,1904,1891
1904,1870,1819
1845,1838,1763
1894,1869,1860
1888,1933,1909
