1829,1915,1939
1827,1947,1982
1833,1909,1926
1869,1907,1921
1856,1947,1949
1841,1966,2006
1862,1941,1954
1903,1946,1929
1910,2000,2028
1892,2021,2064
1903,1984,1993
1933,1989,1978
1942,2031,2045
1943,2053,2101
1941,2014,2033
1947,2010,2004
1968,2059,2064
1959,2077,2117
1967,2042,1953
2000,2039,2046
2010,2086,2039
1999,2102,2166
2011,2073,2064
2061,2063,1979
2022,2093,2122
1998,2113,2165
2015,2078,2110
2054,2068,2113
2057,2099,2117
2086,2122,2117
2037,2091,2085
2027,2086,2107
2039,2115,2158
2047,2135,2183
2055,2099,2112
2075,2095,2094
2079,2113,2158
2069,2141,2189
2065,2099,2112
2086,2095,2096
2095,2128,2155
2092,2128,2087
2075,2086,2046
2082,2081,2038
2082,2114,2131
2077,2126,2238
2061,2095,2036
2101,2085,2080
2099,2109,2191
2061,2116,2127
2043,2071,2132
2064,2064,2070
2083,2096,2127
2061,2096,2167
2055,2057,2032
2083,2046,2022
2092,2084,2171
2066,2099,2091
2043,2067,2066
2075,2047,2029
2096,2083,2052
2055,2096,2133
2044,2054,1990
2078,2035,2019
2067,2074,2075
2042,2086,2083
2039,2035,2000
2087,2027,1983
2075,2064,2068
2038,2069,2096
2032,2023,2007
2059,2020,2000
2043,2060,2067
2031,2064,2096
2053,2019,2011
2064,2003,1901
2064,2038,2043
2038,2064,2070
2019,2017,2014
2034,2000,1893
2055,2034,2030
2039,2042,2037
2032,2000,1975
2047,1985,1975
2061,2023,2086
2043,2034,2091
2027,1999,2005
2047,1976,1897
2039,2006,2026
2016,2016,2046
2019,1975,1948
2034,1958,2000
2033,1991,1910
2011,2004,2025
2000,1961,2001
2025,1947,1939
2032,1983,1990
2007,1990,2106
1998,1949,1954
2011,1942,1922
2018,1970,1974
1993,1971,2000
1993,1936,1934
2032,1933,1911
2010,1962,1958
1971,1969,1994
1978,1933,1926
2000,1921,1898
1997,1943,1955
1984,1957,1984
1983,1921,1919
1991,1911,1887
1993,1943,1948
1981,1953,1955
1975,1918,1879
1987,1897,1869
1969,1927,1941
1958,1940,1977
1965,1904,1904
2002,1898,1872
1999,1932,1935
1968,1937,1954
1948,1903,1890
1981,1891,1867
1974,1929,1923
1951,1936,1949
1949,1902,1888
2001,1887,1859
1959,1920,1911
1932,1930,1937
2021,1891,1868
1963,1872,1841
1924,1911,1919
1899,1934,1949
1918,1885,1872
1962,1872,1831
1975,1907,1899
1940,1921,1923
1929,1886,1865
2000,1877,1842
1972,1909,1900
1957,1923,1922
1981,1874,1856
1936,1878,1841
1967,1909,1904
1944,1920,1931
1930,1877,1861
1946,1869,1835
1954,1898,1900
1941,1914,1936
1936,1867,1870
1981,1861,1841
1939,1900,1901
1947,1919,1941
1960,1875,1867
1943,1853,1814
1920,1886,1874
1939,1904,1922
1951,1878,1856
1979,1867,1824
1931,1898,1875
1904,1911,1921
1931,1865,1850
1974,1855,1821
1948,1898,1904
1925,1910,1927
1936,1871,1853
1953,1861,1824
1975,1898,1885
1899,1907,1922
1921,1861,1853
1939,1853,1821
1941,1890,1879
1929,1905,1911
1934,1865,1845
1947,1853,1815
1952,1891,1875
1889,1909,1913
1902,1869,1840
1963,1859,1811
1914,1891,1873
1913,1905,1904
1915,1862,1839
1979,1852,1817
1891,1885,1872
1866,1891,1899
1888,1855,1844
1979,1842,1814
1906,1875,1871
1959,1889,1896
1906,1854,1824
1945,1849,1808
1930,1879,1871
1945,1879,1895
1909,1845,1837
1932,1840,1804
1969,1878,1859
1885,1891,1898
1961,1850,1822
1897,1841,1792
1921,1881,1852
1913,1895,1887
1922,1854,1830
1951,1847,1798
1946,1875,1846
1910,1883,1886
1920,1843,1827
1934,1839,1798
1932,1862,1846
1914,1882,1889
1905,1852,1827
1946,1833,1803
1951,1866,1863
1900,1877,1840
1909,1847,1810
1955,1836,1791
1812,1872,1856
1920,1883,1889
1891,1845,1824
1904,1833,1779
1911,1870,1840
1963,1878,1887
1907,1845,1826
1957,1840,1797
1905,1859,1852
1888,1872,1884
1891,1837,1806
1923,1829,1782
1931,1867,1850
1888,1873,1876
1882,1828,1806
1909,1823,1790
1914,1862,1854
1879,1872,1873
1889,1839,1797
1964,1823,1776
1883,1853,1839
1905,1858,1877
1873,1824,1814
1955,1821,1783
1910,1859,1843
1957,1872,1872
1888,1834,1803
1964,1810,1782
1941,1855,1838
1863,1858,1861
1885,1822,1779
1936,1809,1771
1957,1856,1841
1805,1876,1886
1937,1834,1815
1859,1822,1776
1937,1855,1831
1901,1867,1861
1863,1827,1801
1909,1824,1776
1888,1856,1842
1872,1859,1879
1863,1823,1807
1889,1815,1770
1881,1858,1830
1863,1867,1860
1869,1826,1802
1875,1814,1776
1879,1856,1840
1874,1862,1867
1859,1831,1808
1871,1825,1787
1867,1859,1840
1885,1876,1871
1856,1825,1792
1886,1818,1773
1898,1855,1839
1838,1872,1865
1862,1826,1794
1869,1818,1773
1861,1863,1840
1814,1875,1872
1811,1840,1808
1860,1829,1779
1885,1863,1842
1865,1881,1875
1919,1837,1808
1829,1826,1776
1859,1846,1827
1855,1859,1863
1862,1829,1796
1842,1814,1763
1872,1849,1834
1847,1865,1867
1862,1825,1780
1870,1810,1757
1869,1850,1833
1855,1871,1872
1859,1827,1808
1882,1812,1776
1881,1842,1837
1855,1856,1869
1854,1813,1808
1876,1806,1776
1869,1842,1840
1840,1851,1858
1840,1817,1797
1864,1806,1774
1877,1835,1837
1847,1854,1874
1841,1818,1815
1853,1811,1781
1858,1840,1830
1843,1854,1853
1834,1820,1798
1849,1821,1767
1850,1841,1814
1837,1855,1855
1837,1809,1791
1869,1794,1765
1871,1836,1831
1840,1857,1873
1857,1815,1792
1870,1792,1749
1852,1830,1823
1825,1845,1867
1838,1818,1804
1870,1801,1773
1871,1831,1830
1857,1842,1863
1859,1807,1792
1873,1795,1753
1883,1834,1811
1853,1847,1857
1833,1811,1799
1851,1805,1776
1859,1841,1831
1851,1854,1872
1852,1808,1808
1870,1799,1771
1859,1833,1825
1839,1853,1863
1841,1822,1791
1870,1809,1773
1849,1838,1824
1825,1850,1862
1827,1806,1802
1863,1799,1776
1870,1838,1840
1840,1854,1858
1833,1824,1799
1857,1808,1765
1872,1837,1824
1835,1854,1866
1819,1822,1808
1840,1825,1790
1850,1842,1839
1831,1854,1856
1827,1813,1795
1838,1808,1776
1842,1841,1835
1826,1857,1879
1812,1815,1810
1853,1798,1774
1841,1838,1839
1822,1854,1867
1823,1813,1792
1842,1804,1772
1849,1841,1840
1834,1840,1857
1824,1808,1798
1843,1799,1767
1847,1837,1837
1835,1851,1873
1818,1805,1802
1842,1799,1775
1843,1840,1844
1841,1855,1885
1845,1819,1812
1840,1798,1771
1825,1840,1832
1809,1858,1872
1831,1822,1824
1850,1808,1789
1840,1847,1839
1822,1857,1869
1814,1813,1807
1824,1804,1792
1829,1836,1839
1826,1851,1862
1823,1815,1792
1831,1808,1772
1839,1841,1824
1813,1856,1872
1815,1815,1812
1840,1809,1772
1840,1846,1837
1819,1855,1868
1829,1814,1803
1861,1808,1771
1838,1861,1840
1805,1871,1879
1807,1826,1808
1835,1820,1786
1838,1855,1847
1839,1862,1870
1809,1816,1802
1820,1809,1783
1821,1847,1840
1803,1862,1866
1817,1825,1815
1845,1821,1793
1830,1856,1841
1809,1863,1876
1815,1823,1817
1838,1807,1789
1845,1847,1853
1824,1859,1886
1828,1813,1793
1841,1806,1777
1840,1840,1850
1835,1862,1875
1827,1819,1814
1838,1806,1788
1838,1840,1850
1818,1857,1886
1806,1815,1808
1827,1810,1782
1831,1840,1835
1808,1856,1877
1808,1819,1814
1837,1809,1782
1831,1853,1835
1808,1856,1872
1807,1819,1808
1834,1808,1782
1840,1837,1854
1807,1847,1862
1813,1808,1782
1839,1808,1773
1826,1851,1830
1807,1864,1874
1811,1826,1808
1837,1807,1782
1847,1846,1837
1825,1857,1870
1798,1776,1809
1834,1871,1779
1838,1890,1835
1823,1898,1872
1823,1840,1808
1835,1854,1776
1833,1881,1834
1811,1894,1860
1821,1825,1815
1847,1794,1793
1840,1862,1845
1814,1840,1867
1808,1833,1799
1843,1822,1799
1840,1891,1850
1818,1891,1877
1819,1829,1819
1853,1771,1792
1856,1890,1858
1824,1867,1885
1808,1834,1822
1837,1819,1792
1844,1852,1849
1830,1863,1891
1813,1756,1821
1841,1792,1794
1855,1871,1854
1829,1904,1877
1817,1851,1817
1837,1845,1785
1851,1857,1854
1840,1917,1872
1830,1827,1797
1861,1817,1771
1855,1826,1847
1823,1862,1887
1833,1785,1814
1855,1807,1776
1856,1853,1839
1824,1868,1877
1819,1840,1809
1849,1811,1787
1851,1851,1840
1818,1858,1869
1814,1867,1811
1845,1821,1792
1846,1855,1843
1831,1863,1873
1826,1813,1802
1840,1808,1783
1842,1853,1847
1828,1841,1887
1824,1865,1810
1840,1821,1785
1846,1863,1847
1833,1837,1871
1827,1894,1804
1854,1826,1787
1851,1879,1853
1829,1823,1893
1840,1897,1825
1849,1873,1791
1840,1870,1841
1829,1841,1882
1821,1803,1819
1851,1774,1782
1847,1914,1843
1834,1910,1888
1822,1835,1814
1867,1829,1783
1843,1876,1854
1808,1858,1888
1820,1835,1830
1857,1823,1806
1862,1858,1856
1841,1870,1904
1838,1855,1829
1856,1840,1803
1857,1872,1856
1842,1885,1884
1827,1841,1812
1849,1834,1792
1856,1874,1866
1834,1885,1894
1841,1847,1825
1862,1840,1792
1843,2009,1844
1836,1849,1885
1857,1808,1833
1872,1904,1794
1857,1855,1843
1833,1909,1877
1822,1810,1809
1853,1882,1791
1859,1871,1859
1826,1863,1891
1821,1850,1817
1851,1827,1804
1847,1883,1863
1824,1883,1895
1843,1842,1827
1857,1841,1810
1844,1866,1866
1815,1873,1883
1818,1840,1826
1849,1831,1808
1840,1861,1856
1815,1875,1885
1821,1911,1823
1840,1835,1807
1840,1835,1863
1826,1863,1887
1815,1830,1811
1845,1808,1778
1847,1906,1856
1832,1841,1897
1825,1871,1819
1851,1890,1791
1856,1917,1849
1831,1893,1877
1819,1827,1815
1854,1867,1790
1849,1840,1840
1831,1891,1875
1841,1793,1818
1847,1863,1773
1828,1825,1841
1825,1831,1882
1823,1867,1824
1843,1829,1794
1846,1874,1840
1815,1870,1878
1826,1842,1816
1862,1827,1792
1863,1873,1845
1827,1869,1887
1818,1840,1815
1851,1853,1782
1854,1852,1853
1823,1854,1897
1825,1846,1829
1861,1837,1790
1871,1871,1855
1840,1869,1889
1840,1859,1826
1853,1855,1791
1859,1863,1852
1849,1875,1885
1839,1813,1820
1859,1815,1805
1860,1883,1855
1847,1850,1888
1847,1831,1821
1875,1845,1798
1883,1920,1851
1861,1934,1890
1851,1869,1825
1858,1802,1799
1845,1882,1861
1826,1870,1891
1828,1881,1813
1853,1811,1781
1863,1879,1853
1846,1899,1889
1833,1853,1820
1866,1835,1789
1863,1866,1853
1835,1885,1879
1841,1845,1829
1869,1849,1805
1871,1881,1867
1855,1889,1891
1849,1847,1818
1872,1840,1777
1867,1872,1841
1875,1903,1883
1840,1861,1825
1845,1855,1802
1856,1895,1851
1847,1894,1876
1853,1865,1809
1872,1847,1785
1861,1886,1841
1851,1889,1883
1847,1863,1826
1868,1849,1793
1867,1875,1847
1849,1897,1898
1834,1859,1815
1850,1849,1781
1857,1876,1842
1855,1903,1867
1845,1859,1809
1863,1856,1781
1852,1874,1833
1842,1895,1872
1826,1853,1809
1861,1840,1800
1867,1881,1855
1840,1891,1872
1843,1846,1808
1856,1839,1776
1869,1872,1839
1842,1886,1879
1839,1852,1810
1863,1846,1789
1866,1874,1845
1838,1890,1869
1829,1850,1799
1856,1837,1774
1861,1874,1837
1840,1888,1873
1834,1841,1799
1873,1830,1762
1859,1872,1826
1823,1882,1863
1808,1838,1782
1849,1814,1755
1857,1841,1809
1857,1862,1871
1856,1824,1792
1855,1829,1759
1811,1841,1814
1814,1861,1856
1855,1851,1825
1843,1819,1767
1831,1831,1815
1830,1871,1862
1824,1836,1838
1861,1834,1803
1850,1835,1775
1955,1840,1781
1971,1823,1727
1786,1823,1734
1834,1857,1923
1861,1840,1872
1862,1821,1874
1840,1827,1749
1826,1837,1907
1901,1837,1972
1885,1775,1786
1913,1755,1707
1874,1790,1805
1726,1805,1879
1699,1760,1806
1754,1709,1694
1887,1741,1820
1929,1811,1983
1876,1814,1906
1787,1712,1888
1830,1709,1941
1867,1729,1899
1894,1684,1799
1854,1685,1801
1805,1697,1779
1908,1686,1775
1951,1725,1920
1919,1665,2003
1824,1680,2076
1797,1674,1975
1709,1621,1840
1802,1583,1786
1845,1630,1856
1858,1664,1939
1856,1619,1942
1895,1641,1904
1910,1645,1919
1776,1639,1952
1680,1607,1901
1728,1566,1877
1653,1593,1863
1609,1630,1879
1663,1535,1805
1647,1557,1849
1631,1599,1887
1706,1617,1957
1648,1597,1933
1589,1535,1858
1449,1558,1775
1495,1557,1962
1610,1564,1957
1616,1535,1858
1568,1535,1866
1535,1561,1892
1553,1520,1849
1723,1518,1872
1941,1567,2001
2151,1535,1968
2142,1489,1857
2093,1535,1780
2030,1555,1962
2000,1535,2019
1946,1515,1902
1884,1484,1811
1811,1505,1808
1777,1535,1897
1716,1511,1955
1733,1474,1859
1629,1500,1936
1617,1520,1974
1674,1500,1938
1677,1477,1858
1569,1483,1926
1519,1472,1866
1530,1505,1808
1557,1457,1803
1472,1423,1929
1483,1462,1993
1502,1427,1895
1574,1408,1866
1584,1392,1877
1505,1402,1930
1482,1362,1845
1535,1365,1833
1535,1378,1870
1616,1392,1894
1466,1358,1840
1442,1340,1865
1518,1360,1903
1516,1377,1930
1463,1349,1805
1461,1332,1870
1535,1339,1906
1557,1393,1925
1466,1357,1861
1445,1326,1846
1520,1365,1885
1535,1359,1854
1567,1334,1808
1503,1360,1886
1501,1390,1968
1511,1392,1904
1535,1356,1794
1535,1355,1810
1535,1395,1870
1465,1408,1892
1520,1367,1825
1580,1344,1808
1584,1399,1947
1535,1443,1979
1520,1381,1866
1573,1358,1765
1598,1407,1826
1583,1431,1903
1524,1397,1833
1503,1358,1785
1506,1417,1889
1568,1449,1921
1578,1409,1827
1621,1408,1814
1584,1450,1941
1520,1456,1936
1583,1446,1829
1660,1435,1767
1597,1443,1871
1535,1472,1909
1571,1425,1839
1722,1454,1761
1616,1489,1862
1569,1487,1901
1567,1477,1778
1648,1478,1842
1637,1525,1936
1565,1526,1911
1566,1479,1754
1680,1458,1749
1715,1520,1867
1615,1571,1938
1563,1527,1879
1603,1503,1810
1627,1521,1840
1651,1535,1847
1694,1524,1818
1712,1507,1763
1700,1566,1823
1627,1587,1904
1615,1569,1858
1663,1535,1804
1649,1553,1840
1673,1605,1876
1665,1582,1809
1754,1571,1761
1686,1577,1808
1535,1585,1869
1629,1572,1846
1719,1575,1799
1667,1585,1879
1671,1639,1899
1668,1586,1757
1845,1576,1654
1719,1622,1861
1629,1621,1904
1735,1600,1808
1699,1610,1808
1627,1653,1783
1627,1626,1889
1702,1582,1792
1774,1602,1781
1770,1660,1837
1680,1664,1856
1759,1637,1773
1797,1615,1751
1713,1639,1814
1659,1665,1815
1711,1639,1838
1808,1626,1760
1749,1659,1803
1739,1719,1893
1744,1671,1840
1682,1614,1712
1712,1683,1783
1695,1708,1907
1713,1670,1856
1801,1652,1786
1759,1718,1843
1734,1719,1871
1745,1689,1789
1841,1679,1687
1758,1715,1814
1693,1715,1872
1748,1686,1747
1835,1714,1732
1821,1742,1870
1793,1721,1909
1742,1714,1825
1727,1732,1776
1721,1744,1819
1753,1745,1878
1818,1702,1758
1840,1717,1657
1808,1791,1872
1737,1793,1967
1794,1763,1792
1830,1755,1746
1763,1785,1862
1767,1798,1904
1776,1792,1813
1792,1775,1771
1839,1776,1810
1792,1762,1712
1763,1790,1799
1778,1809,1883
1749,1808,1872
1776,1809,1806
1829,1814,1797
1840,1809,1863
1834,1861,1900
1818,1862,1834
1893,1839,1809
1903,1813,1771
1796,1821,1820
1799,1872,1862
1793,1847,1807
1814,1839,1818
1819,1873,1878
1830,1901,1920
1848,1859,1808
1923,1850,1737
1827,1881,1831
1782,1929,1846
1815,1840,1753
1891,1856,1808
1851,1925,1903
1808,1898,1858
1798,1798,1690
1861,1802,1638
1920,1956,1918
1855,1982,2017
1799,1879,1835
1930,1872,1706
1990,1887,1808
1679,1813,1630
1936,1951,1872
1950,1926,1934
1872,1910,1872
1908,1954,1887
1877,1963,1911
1878,1929,1889
1881,1907,1760
1933,1949,1889
1908,1921,1870
1875,1865,1762
1861,1956,1873
1821,1953,1827
1899,1942,1858
1814,1850,1680
1903,1921,1727
1952,2032,2027
1895,1983,1957
1894,1947,1830
1903,1967,1872
1872,1974,1879
1903,1975,1856
1934,1963,1843
1887,1950,1848
1863,1968,1847
1899,1936,1751
1995,2018,1872
1958,2013,1936
1938,1998,1914
2077,1933,1781
1919,1949,1798
1799,1983,1935
1701,1918,1857
1919,1983,1838
2047,2023,1858
1978,2020,1859
1856,2010,1877
1840,1968,1777
1883,1927,1782
1941,1998,1862
1946,2054,2005
1863,1998,1886
1941,1985,1789
1993,2002,1901
1998,2003,1902
1824,1872,1520
2013,2000,1841
1838,2027,2023
1776,1985,1773
1921,2022,1872
1909,2006,1903
1921,2027,1904
1872,2037,1910
1914,1975,1807
1840,1875,1660
1943,2032,1853
1909,2086,2007
1861,1970,1763
2032,1978,1770
1961,2035,1939
1877,2034,1975
1877,1990,1841
1941,1984,1747
2061,2032,1857
1939,2047,1947
1863,2011,1885
1923,1991,1790
1980,2001,1846
2028,2013,1883
1874,1996,1808
1834,1936,1798
1887,1999,1888
1943,2029,1926
1936,1967,1822
1936,1967,1773
1878,2022,1867
1858,2016,1890
1900,1938,1755
1957,1963,1815
1925,1990,1904
1886,2009,1920
1918,1999,1812
1937,1951,1771
2074,1984,1811
1961,2062,1953
1844,2014,1885
1881,1968,1851
1922,1975,1834
1953,1972,1834
1998,1987,1837
1971,1979,1803
1971,2001,1867
1991,2017,1898
1951,1952,1830
1994,1961,1776
1950,1983,1795
1838,2001,1903
1887,1991,1882
1930,1986,1835
1933,1981,1831
1953,1972,1856
1920,1957,1808
1945,1971,1833
1904,2016,1823
1971,1989,1824
1971,1947,1805
1968,1953,1821
1872,1987,1854
1854,1995,1915
1927,1939,1837
1967,1966,1804
1968,1987,1872
1945,1994,1872
1903,1935,1815
1932,1933,1799
1910,1965,1855
1902,1971,1874
1953,1953,1780
1971,1961,1790
1981,1972,1872
1950,1981,1863
1894,1936,1815
1936,1929,1771
1995,1967,1823
1913,1983,1918
1845,1954,1876
1904,1936,1809
1877,1968,1839
1975,1965,1839
2082,1934,1793
1899,1926,1823
1908,1968,1867
1929,1982,1884
1997,1947,1837
1969,1922,1766
1935,1927,1805
1904,1966,1899
1939,1947,1844
1944,1912,1797
1950,1929,1857
1920,1950,1872
1947,1914,1767
1951,1898,1721
1930,1927,1817
1901,1971,1920
2047,1929,1835
1952,1903,1821
1927,1942,1868
1907,1938,1842
1856,1872,1730
1882,1895,1839
1952,1952,1914
1855,1966,1891
1921,1909,1799
1907,1886,1744
1995,1925,1835
1980,1968,1939
1858,1934,1829
1861,1878,1744
2016,1921,1844
1968,1931,1819
2023,1911,1857
2006,1869,1787
1909,1917,1866
1775,1979,1874
1842,1909,1814
1959,1869,1790
2001,1904,1875
1890,1941,1894
1870,1881,1843
1867,1881,1835
1853,1903,1801
1995,1936,1802
1952,1931,1831
1934,1877,1783
1863,1896,1855
1893,1904,1840
1938,1863,1754
1954,1920,1857
1899,1952,1872
1870,1911,1887
1877,1872,1811
1919,1872,1776
1923,1922,1872
1863,1893,1836
1878,1875,1766
1903,1895,1809
1923,1898,1894
1823,1884,1858
1855,1899,1831
1989,1879,1856
2042,1903,1820
2033,1920,1853
1902,1856,1777
1791,1862,1791
1787,1888,1867
1843,1915,1927
1914,1863,1840
2065,1869,1764
1925,1891,1801
1915,1909,1874
1877,1866,1815
1917,1840,1761
1856,1872,1793
1847,1905,1857
1933,1856,1834
1925,1823,1751
1894,1872,1810
1914,1902,1866
1888,1856,1809
1893,1837,1771
1856,1887,1864
1849,1890,1898
1843,1843,1840
1867,1832,1739
1898,1871,1798
1893,1891,1853
1871,1823,1809
1907,1815,1771
1914,1861,1838
1903,1875,1891
1839,1827,1826
1853,1867,1792
1893,1886,1835
1915,1901,1883
1911,1835,1801
1904,1790,1716
1887,1862,1858
1819,1898,1865
1856,1856,1872
1918,1833,1802
1951,1860,1777
1894,1910,1830
1849,1859,1842
1827,1840,1855
1840,1824,1789
1899,1872,1869
1917,1866,1871
1899,1831,1792
1831,1885,1871
1849,1902,1913
1872,1843,1812
1911,1839,1803
1890,1870,1852
1847,1886,1859
1899,1827,1790
1894,1803,1719
1856,1858,1870
1857,1898,1926
1895,1861,1822
1879,1833,1771
1923,1862,1833
1865,1871,1866
1807,1851,1841
1858,1839,1816
1859,1863,1872
1868,1865,1827
1936,1850,1793
1867,1839,1849
1869,1883,1915
1891,1881,1870
1833,1840,1804
1849,1829,1787
1902,1855,1839
1885,1879,1872
1845,1855,1819
1836,1830,1794
1859,1849,1835
1842,1877,1897
1827,1837,1845
1851,1804,1799
1894,1878,1854
1953,1907,1870
1884,1840,1785
1841,1815,1786
1838,1858,1840
1874,1882,1886
1917,1814,1806
1881,1825,1778
1814,1871,1897
1803,1879,1915
1869,1827,1791
1889,1821,1798
1851,1845,1854
1827,1882,1882
1849,1859,1794
1863,1841,1776
1856,1863,1863
1819,1872,1882
1850,1843,1810
1890,1821,1792
1891,1840,1840
1884,1866,1878
1881,1837,1804
1918,1796,1781
1894,1865,1861
1809,1894,1901
1854,1855,1821
1857,1825,1774
1835,1842,1829
1816,1856,1863
1863,1840,1787
1904,1825,1767
1841,1850,1857
1812,1871,1923
1839,1847,1837
1910,1817,1814
1872,1853,1889
1844,1867,1873
1851,1825,1813
1843,1785,1750
1981,1854,1814
1939,1888,1897
1818,1835,1821
1871,1815,1806
1850,1831,1870
1798,1901,1904
1815,1871,1824
1869,1834,1782
1875,1847,1836
1871,1881,1874
1883,1840,1825
1899,1841,1769
1905,1859,1837
1858,1866,1863
1823,1843,1843
1845,1834,1810
1915,1873,1872
1955,1886,1855
1881,1835,1818
1904,1813,1785
1869,1865,1862
1854,1911,1935
1808,1850,1826
1874,1827,1792
1863,1870,1875
1845,1904,1933
1885,1851,1842
1929,1808,1795
1834,1823,1815
1806,1866,1890
1875,1854,1861
1947,1857,1846
1900,1864,1840
1821,1872,1905
1808,1823,1873
1915,1837,1806
1934,1872,1829
1918,1891,1878
1850,1852,1858
1836,1831,1847
1821,1862,1843
1863,1857,1837
1866,1862,1872
1893,1839,1855
1936,1870,1918
1836,1911,1894
1762,1853,1762
1867,1837,1808
1932,1878,1872
1885,1917,1925
1838,1865,1840
1901,1851,1758
2001,1833,1791
1890,1893,1872
1758,1898,1904
1789,1870,1868
1846,1871,1886
1904,1879,1869
1862,1830,1803
1884,1829,1793
1903,1928,1859
1883,1855,1913
1855,1840,1875
1824,1799,1815
1899,1881,1847
1885,1889,1875
1900,1853,1810
1867,1830,1792
1839,1920,1898
1888,1931,1930
1931,1858,1838
1905,1840,1790
1870,1877,1859
1815,1883,1914
1849,1856,1856
1863,1820,1814
1903,1879,1839
1858,1904,1906
1883,1814,1840
1905,1836,1810
1945,1856,1839
1902,1881,1893
1804,1831,1840
1821,1811,1777
1866,1821,1871
1879,1882,1942
1869,1839,1860
1914,1876,1811
1885,1922,1858
1902,1875,1841
1861,1825,1798
1862,1815,1831
1854,1869,1901
1842,1869,1919
1892,1794,1822
1902,1823,1811
1882,1839,1861
1824,1847,1905
1881,1834,1840
1871,1837,1764
1872,1871,1842
1872,1871,1893
1834,1862,1835
1882,1793,1761
1938,1889,1810
1863,1915,1902
1809,1823,1841
1857,1793,1797
1881,1891,1850
1837,1834,1905
1840,1824,1853
1871,1798,1790
1851,1827,1855
1843,1903,1886
1815,1818,1806
1858,1816,1781
1868,1815,1850
1826,1874,1877
1840,1819,1776
1903,1789,1755
1930,1862,1870
1840,1865,1911
1889,1817,1791
1918,1794,1719
1803,1840,1899
1751,1840,1911
1795,1831,1821
1862,1814,1781
1877,1841,1846
1863,1868,1908
1874,1873,1840
1890,1944,1781
1837,1883,1806
1797,1796,1893
1792,1786,1829
1873,1784,1819
1906,1873,1866
1855,1860,1879
1856,1834,1812
1881,1814,1791
1882,1854,1829
1854,1894,1889
1863,1843,1821
1950,1831,1785
1852,1872,1846
1811,1872,1915
1838,1854,1857
1870,1818,1783
1878,1857,1851
1903,1922,1893
1847,1788,1854
1831,1840,1836
1860,1882,1885
1870,1881,1884
1831,1835,1814
1895,1777,1803
1931,1918,1826
1851,1909,1893
1862,1854,1851
1882,1806,1793
1854,1754,1834
1856,1892,1933
1835,1830,1850
1855,1818,1776
1904,1840,1815
1829,1776,1877
1828,1744,1833
1871,1881,1806
1863,1842,1843
1851,1909,1903
1849,1875,1837
1893,1825,1825
1899,1844,1840
1850,1853,1855
1894,1797,1797
1918,1818,1765
1883,1863,1861
1770,1818,1914
1777,1793,1849
1840,1921,1811
1881,1859,1853
1861,1910,1911
1885,1840,1857
1858,1835,1845
1838,1854,1866
1871,1862,1875
1881,1766,1826
1871,1817,1790
1833,1869,1831
1856,1895,1904
1855,1845,1872
1805,1826,1808
1815,1836,1871
1863,1978,1867
1858,1868,1827
1853,1825,1815
1842,1840,1902
1838,1872,1905
1874,1856,1827
1867,1830,1776
1870,1942,1858
1905,1895,1913
1853,1814,1812
1785,1808,1779
1843,1872,1885
1846,1872,1869
1845,1845,1825
1882,1872,1835
1917,1867,1845
1904,1890,1872
1782,1841,1863
1783,1817,1779
1831,1862,1818
1883,1871,1886
1822,1837,1878
1817,1805,1814
1865,1849,1890
1871,1886,1914
1840,1855,1835
1872,1836,1787
1917,1881,1845
1863,1870,1886
1811,1829,1837
1845,1819,1814
1947,1859,1851
1921,1879,1872
1802,1855,1808
1805,1825,1808
1809,1845,1871
1833,1886,1882
1848,1871,1863
1869,1839,1838
1886,1856,1872
1881,1866,1871
1895,1834,1729
1893,1824,1773
1819,1863,1940
1775,1897,1953
1872,1857,1802
1878,1835,1780
1860,1870,1863
1880,1872,1902
1854,1836,1814
1831,1837,1808
1807,1862,1857
1840,1877,1872
1858,1861,1823
1893,1834,1789
1914,1853,1883
1837,1882,1951
1819,1841,1875
1840,1833,1778
1891,1856,1806
1842,1863,1855
1867,1833,1810
1949,1837,1797
1880,1846,1856
1805,1869,1893
1823,1854,1823
1859,1855,1829
1872,1870,1870
1862,1871,1904
1847,1833,1827
1834,1824,1776
1906,1870,1847
1905,1902,1905
1827,1862,1808
1808,1839,1782
1837,1863,1845
1856,1893,1936
1879,1842,1856
1903,1820,1777
1853,1862,1854
1840,1886,1916
1840,1840,1840
1862,1824,1751
1898,1886,1817
1891,1895,1852
1862,1845,1796
1854,1835,1833
1840,1872,1910
1822,1884,1897
1812,1840,1767
1830,1818,1755
1899,1831,1904
1862,1882,1962
1814,1866,1808
1869,1820,1782
1940,1865,1855
1942,1861,1852
1903,1837,1825
1895,1840,1795
1814,1868,1851
1738,1873,1901
1805,1828,1854
1861,1865,1827
1871,1883,1859
1973,1861,1843
1947,1839,1770
1849,1822,1801
1762,1858,1897
1808,1879,1904
1808,1826,1778
1801,1818,1775
1839,1845,1846
1893,1882,1904
1823,1858,1833
1799,1825,1770
1869,1855,1862
1872,1875,1935
1854,1866,1803
1871,1825,1744
1895,1837,1833
1851,1873,1913
1841,1843,1837
1849,1808,1776
1861,1840,1825
1875,1894,1874
1878,1869,1872
1859,1867,1813
1840,1882,1822
1847,1873,1877
1821,1840,1809
1903,1845,1806
1904,1879,1856
1840,1867,1865
1831,1827,1825
1851,1820,1794
1843,1840,1833
1791,1840,1860
1838,1854,1812
1858,1837,1827
1887,1859,1841
1871,1876,1841
1850,1850,1830
1818,1814,1814
1799,1836,1858
1799,1857,1840
1839,1811,1782
1869,1797,1803
1840,1843,1833
1790,1856,1871
1810,1833,1823
1873,1821,1778
1872,1825,1809
1895,1861,1829
1833,1840,1820
1809,1835,1846
1827,1850,1814
1823,1852,1877
1802,1841,1871
1827,1829,1808
1862,1850,1819
1819,1857,1900
1808,1829,1835
1793,1807,1730
1855,1853,1802
1886,1872,1892
1872,1845,1842
1872,1824,1810
1895,1870,1838
1815,1888,1897
1813,1848,1840
1823,1827,1787
1843,1845,1841
1872,1873,1894
1812,1847,1826
1823,1833,1793
1869,1850,1808
1872,1878,1872
1861,1854,1856
1856,1829,1826
1819,1851,1814
1866,1903,1866
1835,1866,1842
1815,1824,1773
1851,1856,1851
