1903,1851,1881
1861,1795,1865
1890,1811,1835
1920,1834,1918
1899,1813,1899
1886,1799,1758
1905,1853,1825
1925,1866,1911
1906,1838,1891
1884,1808,1831
1893,1814,1859
1904,1809,1904
1895,1801,1879
1889,1809,1841
1901,1838,1885
1914,1863,1925
1905,1744,1902
1856,1778,1815
1888,1813,1855
1907,1835,1905
1889,1781,1869
1877,1778,1818
1907,1814,1885
1909,1831,1909
1867,1789,1847
1819,1724,1773
1859,1780,1844
1906,1829,1918
1922,1826,1881
1875,1794,1806
1861,1767,1845
1875,1790,1888
1876,1818,1863
1873,1761,1833
1895,1840,1872
1891,1886,1905
1877,1831,1826
1872,1823,1782
1887,1798,1841
1879,1831,1882
1872,1810,1854
1875,1790,1813
1890,1843,1847
1887,1818,1875
1872,1807,1837
1861,1798,1799
1888,1838,1842
1901,1891,1901
1872,1850,1843
1840,1765,1767
1882,1829,1840
1904,1844,1889
1893,1844,1856
1875,1831,1808
1871,1795,1827
1872,1814,1871
1867,1809,1847
1863,1808,1807
1870,1819,1842
1897,1808,1891
1879,1811,1861
1855,1794,1799
1894,1887,1850
1895,1856,1904
1874,1857,1857
1845,1808,1793
1872,1828,1830
1879,1836,1876
1877,1803,1856
1889,1839,1815
1859,1862,1827
1873,1814,1877
1875,1811,1859
1839,1778,1781
1841,1850,1808
1883,1851,1885
1882,1870,1878
1904,1849,1853
1853,1904,1826
1853,1814,1859
1845,1827,1843
1854,1830,1795
1886,1846,1840
1898,1877,1898
1839,1837,1840
1833,1811,1807
1847,1840,1841
1856,1857,1904
1841,1831,1866
1840,1822,1817
1859,1855,1867
1887,1879,1936
1839,1824,1858
1808,1801,1795
1870,1853,1856
1878,1867,1892
1847,1885,1860
1857,1911,1834
1858,1872,1843
1835,1786,1846
1811,1758,1799
1840,1827,1799
1898,1974,1868
1882,1878,1894
1815,1802,1819
1835,1853,1791
1861,1763,1831
1850,1746,1855
1856,1808,1850
1844,1870,1824
1855,1889,1845
1862,1853,1879
1845,1904,1845
1809,1763,1767
1853,1787,1812
1890,1961,1906
1865,1871,1875
1840,1883,1787
1837,1706,1813
1853,1741,1872
1853,1835,1855
1856,1902,1826
1883,1919,1872
1887,1925,1891
1875,1826,1853
1853,1834,1806
1843,1871,1824
1850,1831,1856
1843,1795,1833
1835,1823,1781
1860,1872,1836
1872,1921,1880
1857,1871,1853
1856,1818,1801
1887,1868,1843
1889,1924,1890
1862,1933,1855
1845,1872,1802
1859,1851,1840
1879,1939,1889
1855,1855,1834
1856,1871,1807
1881,1899,1859
1889,1851,1888
1865,1835,1859
1848,1895,1810
1885,1953,1861
1916,1954,1923
1900,1890,1867
1825,1798,1763
1842,1873,1808
1886,1906,1885
1892,1887,1862
1860,1859,1805
1883,1897,1841
1902,1920,1899
1865,1886,1840
1851,1872,1803
1901,1928,1877
1900,1924,1899
1872,1886,1831
1843,1857,1774
1886,1895,1844
1882,1889,1875
1862,1874,1839
1865,1874,1807
1915,1910,1872
1915,1926,1913
1875,1898,1844
1855,1869,1795
1878,1901,1850
1891,1947,1898
1863,1859,1853
1854,1822,1810
1895,1872,1859
1919,1914,1914
1889,1901,1861
1867,1867,1826
1893,1898,1861
1905,1921,1909
1870,1904,1853
1851,1885,1802
1877,1887,1859
1898,1901,1906
1899,1920,1869
1861,1826,1793
1878,1846,1847
1905,1887,1904
1883,1870,1842
1842,1825,1772
1847,1829,1814
1883,1873,1901
1882,1879,1862
1867,1878,1805
1918,1922,1872
2017,2000,1983
1935,1898,1886
1778,1776,1747
1776,1793,1770
1826,1865,1835
1839,1831,1807
1849,1818,1776
1894,1881,1861
1897,1894,1898
1842,1872,1840
1819,1847,1792
1863,1862,1850
1856,1831,1862
1834,1872,1840
1869,1898,1826
1907,1914,1879
1859,1877,1878
1761,1781,1758
1748,1776,1731
1803,1833,1783
1840,1873,1863
1867,1888,1861
1882,1874,1812
1879,1890,1845
1838,1908,1882
1813,1856,1836
1812,1831,1779
1845,1866,1831
1850,1871,1869
1856,1882,1853
1810,1847,1811
1815,1873,1822
1840,1936,1856
1818,1926,1823
1854,1933,1794
1904,1990,1857
1793,1846,1839
1739,1810,1785
1807,1889,1776
1856,1966,1835
1854,1969,1861
1792,1921,1800
1783,1923,1793
1899,2007,1856
1879,1997,1911
1825,1953,1859
1771,1934,1722
1786,1975,1823
1824,2010,1879
1846,2032,1811
1870,2010,1754
1932,2029,1746
1856,2032,1835
1791,2021,1793
1802,2013,1772
1846,2047,1854
1892,2097,1881
1877,2070,1783
1810,2085,1787
1782,2080,1789
1778,2064,1825
1747,2053,1779
1778,2075,1712
1893,2176,1847
1887,2134,1828
1767,2096,1779
1747,2080,1770
1871,2128,1854
1922,2188,1868
1771,2139,1810
1726,2111,1745
1786,2166,1825
1808,2173,1877
1790,2144,1777
1818,2149,1808
1856,2173,1787
1862,2224,1907
1950,2239,1924
1867,2096,1731
1697,2065,1744
1727,2114,1786
1798,2131,1826
1813,2130,1791
1808,2143,1805
1803,2149,1841
1815,2128,1824
1799,2110,1769
1811,2139,1831
1824,2151,1866
1820,2139,1820
1817,2118,1808
1840,2128,1853
1835,2114,1859
1782,2090,1794
1799,2091,1759
1830,2119,1891
1812,2106,1900
1803,2066,1808
1807,2045,1732
1819,2087,1760
1846,2110,1883
1815,2074,1856
1803,2047,1772
1835,2085,1859
1846,2108,1859
1823,2059,1814
1808,2026,1815
1856,2056,1933
1900,2090,1889
1871,2058,1840
1802,2003,1693
1843,2046,1747
1871,2046,1815
1795,1981,1812
1810,1991,1776
1851,2040,1834
1865,2032,1890
1808,1968,1836
1808,1951,1760
1845,2000,1806
1840,2005,1855
1811,1958,1790
1835,1951,1771
1857,1975,1820
1893,2005,1879
1835,1936,1845
1807,1936,1806
1835,1977,1807
1871,1983,1839
1856,1952,1793
1826,1919,1778
1861,1952,1819
1891,1958,2007
1846,1937,1751
1835,1921,1786
1861,1937,1856
1905,1989,1909
1861,1941,1840
1817,1856,1731
1872,1895,1802
1830,1883,1863
1810,1861,1787
1854,1881,1767
1840,1888,1805
1837,1890,1860
1824,1858,1849
1825,1856,1758
1887,1920,1850
1874,1909,1889
1856,1879,1837
1836,1845,1735
1872,1891,1819
1847,1840,1842
1832,1839,1792
1844,1829,1775
1857,1830,1792
1881,1850,1879
1887,1867,1856
1893,1921,1849
1886,1904,1826
1808,1791,1769
1817,1762,1829
1813,1759,1749
1862,1875,1809
1890,1870,1863
1841,1774,1776
1829,1755,1781
1851,1793,1800
1864,1854,1894
1860,1831,1853
1870,1829,1823
1898,1840,1839
1844,1794,1825
1780,1749,1776
1821,1793,1797
1882,1871,1882
1885,1839,1911
1820,1766,1802
1780,1745,1734
1843,1802,1821
1898,1846,1935
1901,1847,1872
1872,1741,1773
1836,1764,1808
1840,1772,1897
1854,1807,1859
1850,1856,1768
1876,1840,1855
1876,1758,1886
1835,1714,1840
1847,1774,1840
1881,1827,1840
1903,1782,1871
1889,1767,1877
1842,1765,1749
1791,1769,1771
1794,1743,1797
1808,1760,1827
1840,1759,1849
1871,1792,1840
1904,1810,1877
1819,1719,1813
1793,1717,1754
1839,1812,1844
1887,1845,1876
1881,1775,1869
1845,1737,1825
1866,1798,1807
1883,1806,1874
1824,1755,1822
1838,1792,1799
1872,1840,1857
1869,1781,1907
1855,1733,1834
1862,1745,1773
1833,1745,1799
1817,1808,1869
1855,1837,1904
1835,1780,1827
1856,1778,1849
1856,1762,1872
1863,1778,1837
1822,1738,1773
1854,1767,1856
1868,1820,1899
1838,1797,1827
1811,1728,1759
1853,1744,1851
1861,1810,1936
1846,1795,1894
1829,1760,1808
1831,1793,1808
1841,1787,1854
1837,1784,1841
1862,1800,1839
1840,1827,1843
1849,1862,1876
1853,1772,1798
1840,1712,1789
1920,1745,1888
1904,1744,1874
1837,1788,1823
1817,1752,1823
1855,1793,1881
1888,1833,1872
1847,1782,1840
1830,1744,1840
1805,1762,1801
1843,1811,1841
1825,1764,1831
1854,1771,1835
1856,1889,1851
1830,1840,1881
1817,1665,1830
1811,1693,1793
1858,1762,1808
1873,1808,1867
1872,1804,1930
1841,1767,1811
1820,1795,1792
1815,1835,1893
1824,1782,1870
1809,1727,1747
1833,1762,1829
1840,1771,1901
1814,1737,1868
1797,1761,1765
1833,1813,1827
1809,1829,1904
1854,1776,1903
1865,1774,1821
1869,1805,1861
1837,1787,1844
1851,1754,1843
1843,1803,1777
1842,1856,1877
1843,1775,1885
1811,1747,1840
1840,1791,1840
1869,1789,1899
1872,1776,1845
1807,1773,1789
1840,1795,1817
1899,1855,1872
1882,1849,1886
1822,1795,1852
1826,1791,1829
1822,1801,1849
1845,1746,1867
1856,1781,1867
1879,1775,1815
1847,1808,1906
1821,1837,1872
1881,1813,1871
1813,1735,1781
1911,1801,1859
1904,1867,1951
1850,1846,1882
1765,1749,1743
1862,1785,1906
1827,1806,1932
1872,1785,1902
1843,1758,1808
1842,1837,1819
1886,1849,1861
1887,1779,1879
1853,1763,1829
1870,1808,1866
1860,1833,1846
1819,1805,1857
1851,1793,1835
1839,1809,1835
1872,1817,1862
1850,1792,1886
1872,1805,1902
1858,1811,1859
1853,1858,1865
1841,1859,1831
1827,1765,1775
1867,1773,1856
1901,1846,1962
1860,1827,1914
1772,1742,1755
1848,1787,1819
1894,1834,1938
1839,1801,1895
1846,1772,1798
1859,1777,1850
1899,1797,1878
1806,1840,1871
1929,1851,1877
1852,1840,1847
1823,1808,1858
1830,1795,1826
1829,1797,1878
1867,1822,1894
1915,1805,1907
1874,1783,1877
1851,1786,1785
1877,1815,1851
1878,1841,1903
1870,1851,1862
1840,1792,1819
1908,1802,1885
1797,1808,1887
1930,1814,1850
1840,1841,1831
1915,1843,1846
1933,1826,1887
1808,1745,1857
1840,1771,1863
1840,1850,1899
1860,1874,1919
1873,1831,1864
1853,1753,1803
1887,1783,1902
1839,1808,1866
1856,1817,1825
1844,1838,1891
1948,1866,1879
1846,1835,1849
1808,1808,1808
1844,1826,1797
1887,1825,1855
1897,1808,1919
1919,1840,1897
1930,1797,1835
1904,1792,1883
1938,1837,1902
1885,1837,1904
1873,1846,1827
1823,1804,1859
1881,1838,1911
1906,1856,1875
1891,1840,1859
1859,1831,1853
1893,1815,1927
1878,1761,1833
1882,1766,1808
1910,1853,1856
1913,1867,1910
1863,1792,1857
1871,1776,1849
1904,1881,1877
1908,1890,1931
1869,1791,1833
1865,1810,1797
1850,1856,1915
1856,1879,1994
1853,1854,1808
1858,1765,1708
1840,1776,1808
1902,1851,1936
1952,1813,1967
1903,1815,1824
1910,1840,1823
1925,1858,1878
1872,1819,1884
1859,1805,1841
1923,1919,1905
1901,1920,1872
1874,1794,1812
1843,1712,1786
1851,1791,1852
1875,1857,1879
1877,1856,1847
1871,1830,1813
1891,1834,1871
1913,1858,1941
1851,1819,1846
1857,1808,1895
1925,1888,1874
1895,1879,1850
1857,1872,1808
1865,1837,1812
1890,1838,1878
1873,1828,1881
1840,1826,1808
1834,1821,1807
1888,1856,1906
1902,1872,1907
1877,1815,1850
1861,1792,1827
1877,1843,1833
1885,1847,1862
1876,1842,1857
1871,1877,1855
1883,1865,1879
1872,1802,1909
1859,1794,1825
1844,1807,1790
1915,1873,1892
1893,1889,1918
1855,1862,1826
1824,1807,1793
1857,1843,1860
1887,1904,1873
1853,1871,1831
1844,1818,1762
1865,1830,1823
1878,1873,1904
1874,1847,1887
1866,1833,1847
1879,1851,1869
1899,1868,1885
1931,1897,1872
1862,1809,1840
1839,1815,1823
1847,1872,1845
1882,1883,1872
1863,1843,1819
1886,1856,1855
1872,1826,1860
1875,1869,1834
1855,1801,1783
1857,1806,1808
1903,1859,1904
1875,1856,1883
1874,1858,1837
1890,1875,1809
1875,1856,1863
1871,1850,1858
1857,1861,1842
1902,1927,1874
1953,1951,2001
1906,1818,1851
1810,1744,1683
1847,1856,1810
1906,1883,1950
1857,1851,1915
1840,1874,1790
1913,1893,1862
1891,1845,1890
1859,1830,1856
1872,1853,1800
1840,1859,1777
1858,1875,1920
1853,1872,1905
1859,1911,1840
1877,1834,1820
1858,1776,1827
1854,1811,1819
1885,1842,1834
1859,1856,1829
1869,1856,1872
1858,1872,1841
1950,1923,1882
1872,1904,1845
1854,1895,1863
1817,1802,1840
1835,1799,1856
1875,1892,1842
1909,1920,1894
1876,1852,1840
1881,1819,1861
1904,1870,1858
1871,1893,1863
1840,1844,1840
1816,1803,1822
1897,1863,1839
1898,1841,1808
1813,1825,1783
1824,1866,1807
1830,1859,1818
1882,1894,1835
1895,1906,1844
1872,1880,1829
1833,1819,1791
1846,1855,1875
1840,1862,1831
1846,1895,1794
1875,1874,1829
1872,1842,1872
1822,1810,1834
1839,1818,1788
1875,1874,1854
1892,1872,1865
1870,1882,1857
1845,1852,1865
1866,1889,1835
1875,1931,1861
1869,1879,1807
1854,1828,1784
1839,1840,1865
1865,1865,1911
1879,1871,1845
1808,1818,1789
1839,1863,1859
1857,1872,1882
1870,1923,1813
1847,1918,1775
1843,1897,1834
1898,1869,1904
1844,1759,1803
1822,1795,1767
1872,1885,1866
1873,1885,1936
1845,1853,1810
1826,1847,1778
1889,1924,1887
1882,1898,1911
1872,1891,1879
1841,1883,1825
1863,1859,1801
1849,1841,1834
1827,1837,1810
1818,1855,1804
1878,1921,1872
1874,1883,1937
1842,1813,1843
1829,1807,1783
1872,1907,1824
1861,1966,1869
1853,1931,1872
1844,1882,1808
1837,1760,1842
1843,1830,1875
1831,1811,1795
1839,1895,1808
1857,1930,1866
1883,1882,1936
1853,1856,1837
1830,1793,1810
1830,1843,1833
1839,1910,1843
1840,1875,1853
1823,1840,1834
1883,1887,1919
1893,1987,1872
1826,1869,1744
1823,1815,1759
1872,1882,1898
1872,1923,1931
1849,1843,1870
1850,1825,1808
1898,1890,1927
1879,1868,1984
1833,1871,1815
1818,1855,1706
1887,1887,1843
1902,1835,1916
1818,1841,1761
1826,1827,1798
1875,1936,1938
1886,1910,1937
1877,1936,1841
1813,1853,1738
1831,1840,1793
1866,1871,1890
1839,1834,1852
1830,1856,1792
1881,1927,1866
1869,1890,1926
1871,1833,1845
1846,1839,1747
1845,1851,1776
1856,1901,1908
1839,1872,1940
1828,1851,1744
1866,1890,1743
1881,1905,1831
1861,1869,1841
1834,1872,1794
1867,1904,1829
1884,1891,1938
1872,1926,1897
1886,1966,1814
1904,2000,1888
1856,1901,1843
1835,1726,1771
1872,1854,1763
1873,1891,1831
1857,1893,1841
1854,1854,1816
1820,1867,1809
1856,1904,1872
1885,1861,1891
1829,1849,1806
1831,1839,1808
1842,1886,1840
1862,1871,1876
1861,1846,1877
1852,1872,1842
1858,1834,1809
1863,1851,1837
1862,1881,1842
1872,1909,1839
1882,1904,1856
1857,1895,1915
1851,1825,1840
1808,1822,1771
1855,1904,1842
1872,1919,1874
1899,1918,1920
1839,1810,1851
1851,1876,1758
1841,1821,1795
1846,1842,1823
1837,1801,1846
1860,1829,1867
1873,1911,1875
1872,1743,1849
1871,1879,1811
1889,1898,1862
1872,1840,1879
1866,1808,1863
1873,1825,1793
1862,1871,1905
1867,1915,1936
1847,1878,1821
1862,1850,1793
1903,1929,1889
1899,1937,1887
1859,1872,1835
1836,1840,1782
1867,1899,1858
1870,1881,1887
1856,1904,1858
1877,1897,1851
1876,1875,1893
1870,1859,1909
1833,1845,1755
1868,1918,1769
1878,1872,1854
1887,1919,1924
1832,1879,1870
1832,1872,1840
1875,1906,1858
1874,1834,1830
1837,1865,1811
1824,1820,1829
1873,1862,1872
1867,1906,1893
1851,1956,1855
1861,1921,1811
1872,1921,1849
1900,1921,1910
1857,1867,1879
1866,1823,1801
1871,1938,1821
1869,1938,1877
1856,1921,1863
1869,1849,1808
1872,1852,1824
1856,1832,1902
1846,1843,1831
1854,1932,1860
1845,1859,1808
1872,1919,1845
1856,1874,1829
1839,1835,1774
1869,1870,1815
1871,1893,1901
1899,1921,1882
1923,1953,1869
1833,1936,1793
1808,1782,1872
1831,1834,1824
1859,1796,1808
1895,1874,1808
1858,1879,1824
1835,1856,1869
1841,1853,1790
1882,1903,1857
1867,1889,1863
1840,1883,1822
1824,1823,1787
1851,1838,1846
1887,1815,1922
1867,1935,1827
1882,1840,1792
1859,1863,1832
1828,1898,1862
1829,1892,1870
1840,1849,1827
1861,1839,1810
1904,1882,1904
1886,1897,1840
1851,1862,1770
1849,1847,1904
1814,1846,1911
1808,1866,1786
1823,1831,1726
1869,1895,1808
1871,1865,1936
1844,1843,1838
1859,1910,1757
1872,1879,1798
1887,1872,1873
1849,1851,1901
1830,1831,1845
1865,1856,1831
1882,1904,1876
1843,1877,1840
1845,1872,1779
1867,1895,1840
1895,1920,1909
1887,1905,1888
1811,1846,1834
1824,1839,1807
1875,1876,1840
1839,1882,1798
1873,1926,1841
1888,1900,1903
1872,1875,1905
1827,1819,1819
1863,1855,1831
1856,1839,1808
1872,1876,1838
1837,1891,1825
1840,1857,1867
1847,1872,1903
1882,1869,1899
1875,1882,1783
1841,1872,1765
1844,1872,1897
1844,1919,1887
1845,1904,1814
1843,1857,1772
1871,1844,1872
1857,1893,1914
1856,1879,1835
1840,1811,1764
1873,1843,1855
1879,1911,1955
1872,1895,1861
1850,1840,1754
1856,1860,1822
1903,1904,1924
1866,1869,1856
1827,1867,1792
1863,1918,1899
1850,1937,1846
1866,1941,1823
1857,1842,1822
1854,1793,1857
1838,1827,1980
1823,1840,1819
1841,1849,1757
1868,1877,1873
1886,1904,1859
1872,1865,1844
1819,1838,1836
1857,1900,1907
1895,1933,1894
1872,1891,1840
1835,1855,1798
1887,1916,1872
1916,2003,1971
1856,1936,1879
1822,1755,1774
1871,1794,1806
1871,1839,1838
1831,1830,1809
1840,1874,1821
1883,1914,1920
1903,1904,2027
1835,1893,1869
1805,1849,1713
1837,1843,1765
1878,1872,1862
1859,1905,1855
1835,1918,1840
1869,1851,1869
1874,1827,1893
1851,1843,1824
1856,1830,1822
1853,1871,1819
1850,1893,1838
1872,1872,1892
1866,1848,1792
1872,1892,1857
1859,1891,1896
1856,1875,1829
1869,1878,1853
1861,1876,1825
1885,1904,1860
1872,1881,1821
1861,1846,1814
1919,1933,1927
1926,1922,1941
1834,1840,1803
1812,1823,1735
1866,1851,1840
1853,1842,1855
1872,1829,1883
1874,1821,1840
1850,1872,1793
1856,1894,1846
1854,1876,1838
1858,1878,1822
1923,1923,1905
1922,1913,1945
1840,1870,1797
1816,1811,1705
1840,1835,1810
1873,1889,1914
1891,1936,1922
1858,1867,1832
1844,1818,1828
1911,1893,1955
1875,1855,1905
1852,1861,1809
1865,1894,1787
1861,1859,1810
1869,1831,1842
1859,1863,1847
1872,1899,1839
1846,1855,1824
1836,1872,1819
1858,1873,1815
1877,1870,1844
1865,1879,1888
1858,1856,1869
1867,1877,1853
1878,1895,1827
1845,1870,1813
1863,1860,1821
1872,1866,1834
1859,1837,1863
1843,1843,1869
1847,1872,1840
1856,1856,1808
1872,1909,1838
1867,1834,1872
1865,1778,1814
1871,1842,1894
1918,1912,1881
1871,1872,1844
1808,1830,1777
1810,1826,1735
1874,1875,1840
1903,1910,1940
1872,1868,1856
1817,1761,1734
1838,1829,1765
1871,1869,1845
1863,1872,1898
1875,1920,1851
1866,1835,1802
1847,1796,1821
1818,1840,1817
1834,1859,1810
1889,1891,1881
1873,1876,1872
1879,1922,1827
1869,1872,1841
1857,1806,1891
1859,1810,1830
1853,1821,1794
1813,1795,1790
1837,1823,1811
1859,1861,1853
1865,1855,1824
1842,1863,1803
1841,1873,1810
1869,1868,1879
1883,1840,1907
1866,1824,1850
1861,1867,1811
1859,1827,1840
1851,1827,1833
1844,1846,1778
1872,1858,1785
1883,1904,1851
1843,1825,1851
1846,1872,1835
1891,1894,1890
1872,1815,1889
1855,1808,1808
1809,1809,1753
1870,1904,1856
1920,1887,1899
1861,1813,1828
1864,1847,1845
1867,1867,1871
1840,1840,1865
1829,1839,1839
1850,1818,1786
1834,1818,1791
1878,1885,1933
1839,1806,1790
1797,1789,1776
1874,1877,1862
1903,1882,1913
1833,1846,1840
1819,1852,1760
1856,1861,1766
1869,1865,1877
1854,1840,1813
1849,1818,1817
1869,1855,1838
1895,1889,1912
1858,1903,1840
1821,1845,1810
1861,1829,1875
1870,1854,1856
1837,1813,1831
1872,1841,1875
1926,1933,1917
1834,1847,1777
1770,1757,1707
1806,1773,1747
1861,1840,1840
1894,1903,1872
1865,1865,1834
1855,1818,1808
1872,1841,1879
1883,1851,2029
1863,1882,1817
1893,1918,1755
1868,1855,1750
1855,1839,1885
1837,1821,1845
1840,1846,1778
1870,1871,1835
1866,1884,1901
1845,1838,1872
1847,1840,1751
1891,1872,1858
1888,1886,1820
1839,1866,1840
1868,1821,1810
1869,1808,1851
1856,1853,1893
1840,1841,1839
1835,1837,1779
1854,1865,1776
1887,1893,1869
1855,1840,1861
1838,1819,1749
1842,1840,1807
1863,1890,1872
1876,1850,1901
1840,1830,1818
1853,1867,1821
1878,1923,1872
1882,1894,1859
1845,1811,1812
1859,1874,1840
1869,1867,1855
1851,1812,1776
1847,1827,1856
1878,1874,1889
1898,1904,1852
1845,1851,1827
1863,1867,1806
1840,1831,1853
1818,1840,1799
1830,1869,1858
1857,1902,1840
1869,1872,1842
1825,1824,1840
1837,1855,1741
1828,1809,1739
1842,1817,1858
1840,1872,1880
1859,1867,1825
1840,1810,1731
1877,1875,1915
1889,1888,1881
1871,1895,1851
1834,1830,1749
1809,1811,1809
1872,1904,1908
1823,1885,1857
1824,1833,1753
1845,1807,1787
1876,1872,1905
1872,1872,1847
1850,1808,1684
1886,1839,1921
1857,1833,1947
1826,1863,1803
1844,1872,1822
1859,1874,1920
1872,1889,1861
1846,1884,1807
1812,1858,1792
1841,1855,1799
1853,1846,1879
1828,1854,1808
1842,1900,1850
1888,1847,1840
1873,1855,1872
1830,1857,1828
1828,1793,1750
1856,1818,1804
1891,1853,1887
1847,1851,1840
1857,1887,1799
1871,1888,1881
1872,1872,1902
1837,1840,1878
1833,1860,1828
1870,1877,1831
1863,1871,1883
1815,1838,1839
1834,1859,1840
1849,1888,1790
1873,1875,1845
1859,1865,1851
1841,1863,1838
1873,1879,1930
1838,1872,1850
1829,1855,1776
1815,1791,1763
1864,1819,1882
1903,1916,1956
1883,1882,1850
1849,1797,1814
1866,1823,1904
1869,1842,1873
1840,1849,1785
1838,1845,1789
1868,1878,1854
1890,1903,1911
1846,1866,1849
1822,1815,1813
1868,1859,1877
1872,1895,1904
1922,1909,1911
1799,1860,1763
1858,1856,1769
1867,1859,1915
1808,1842,1907
1861,1821,1821
1866,1866,1808
1893,1907,1891
1905,1902,1899
1881,1854,1844
1785,1810,1828
1871,1852,1854
1847,1854,1823
1808,1856,1825
1935,1888,1932
1849,1898,1916
1829,1855,1816
1821,1789,1749
1909,1811,1837
1865,1883,1888
1845,1891,1851
1857,1862,1813
1872,1872,1871
1869,1881,1892
1874,1857,1872
1877,1849,1829
1854,1867,1839
1879,1882,1878
1817,1869,1887
1849,1915,1808
1921,1871,1843
1899,1856,1963
1882,1879,1855
1795,1789,1755
1869,1810,1758
1883,1845,1827
1851,1860,1858
1857,1867,1871
1872,1915,1856
1893,1939,1958
1837,1838,1824
1823,1772,1775
1872,1833,1855
1908,1895,1918
1857,1870,1884
1817,1838,1764
1839,1871,1776
1878,1872,1895
1863,1855,1862
1855,1851,1804
1904,1916,1842
1865,1952,1949
1861,1878,1840
1857,1790,1847
1959,1808,1886
1904,1855,1837
1822,1849,1810
1869,1853,1857
1840,1863,1836
1819,1829,1841
1827,1824,1829
1871,1845,1791
1894,1883,1895
1861,1877,1877
1825,1856,1795
1840,1827,1819
1867,1851,1867
1879,1862,1889
1888,1905,1904
1813,1807,1776
1854,1815,1844
1845,1868,1853
1834,1847,1776
1866,1841,1802
1873,1838,1891
1874,1841,1885
1857,1813,1818
1834,1811,1791
1860,1873,1859
1883,1943,1966
1856,1816,1842
1872,1820,1812
1862,1853,1857
1853,1856,1869
1840,1838,1872
1826,1842,1752
1901,1877,1819
1905,1921,1907
1856,1831,1869
1829,1769,1785
1834,1819,1838
1908,1873,1853
1840,1839,1822
1853,1887,1839
1775,1904,1878
1835,1857,1882
1855,1818,1787
1862,1806,1753
1875,1834,1844
1872,1885,1951
1898,1901,1881
1830,1790,1744
1838,1811,1847
1865,1851,1969
1867,1865,1841
1875,1857,1791
1842,1872,1823
1964,1904,1888
1856,1917,1890
1840,1795,1789
1823,1810,1833
1865,1852,1904
1795,1842,1831
1845,1875,1792
1903,1949,1881
1857,1874,1911
1805,1770,1785
1778,1787,1782
1824,1855,1867
1964,1923,1945
1851,1831,1813
1808,1808,1776
1859,1873,1813
1843,1869,1874
1808,1863,1791
1797,1827,1771
1814,1795,1853
1851,1834,1929
1879,1840,1840
1838,1833,1795
1862,1881,1851
1826,1911,1889
1865,1851,1885
1874,1836,1864
1903,1875,1821
1839,1805,1814
1819,1806,1787
1843,1856,1808
1907,1936,1903
1831,1844,1871
1820,1851,1835
1837,1883,1807
1854,1776,1815
1840,1778,1829
1861,1830,1801
1863,1823,1787
1867,1865,1859
1849,1886,1872
1797,1830,1819
1858,1814,1833
1881,1840,1857
1942,1839,1886
1831,1840,1849
1822,1863,1757
1827,1889,1880
1894,1863,1931
1865,1829,1776
1842,1823,1733
1885,1867,1839
1787,1904,1886
1836,1921,1861
1845,1846,1789
1858,1808,1903
1846,1797,1870
1829,1796,1808
1829,1824,1777
1869,1869,1838
1896,1919,1917
1869,1872,1884
1815,1811,1730
1838,1840,1783
1872,1890,1904
1856,1863,1831
1863,1876,1808
1890,1883,1870
1857,1871,1887
1851,1874,1878
1834,1840,1808
1857,1829,1841
1871,1849,1837
1878,1872,1851
1883,1921,1791
1867,1879,1829
1855,1840,1856
1850,1826,1866
1846,1810,1811
1889,1853,1889
1873,1861,1895
1840,1819,1801
1833,1831,1745
1861,1910,1834
1916,1927,1945
1857,1808,1837
1822,1774,1779
1861,1830,1917
1895,1879,1984
1839,1830,1806
1814,1829,1718
1859,1847,1836
1859,1872,1895
1861,1867,1860
1863,1903,1821
1881,1922,1839
1861,1873,1840
1847,1787,1872
1879,1807,1840
1907,1878,1875
1882,1875,1809
1833,1803,1759
1815,1801,1761
1857,1877,1875
1891,1913,1927
1856,1821,1803
1824,1809,1771
1879,1934,1899
1888,1936,1963
1856,1816,1778
1820,1728,1750
1843,1799,1914
1881,1875,1944
1837,1807,1751
1798,1779,1664
1872,1856,1849
1892,1887,1963
1858,1839,1807
1819,1793,1722
1889,1847,1867
1916,1890,1987
1825,1839,1802
1809,1804,1744
1851,1837,1871
1874,1875,1898
1870,1889,1849
1839,1839,1750
1851,1818,1792
1899,1855,1888
1889,1870,1891
1846,1828,1787
1840,1782,1809
1853,1814,1872
1831,1813,1791
1840,1817,1822
1859,1850,1882
1891,1895,1919
1851,1815,1803
1855,1787,1791
1865,1819,1808
1878,1859,1871
1866,1835,1870
1869,1807,1776
1846,1853,1791
1856,1855,1897
1856,1838,1893
1851,1789,1805
1850,1798,1827
1863,1829,1911
1883,1865,1952
1870,1845,1809
1867,1851,1791
1870,1853,1853
1830,1808,1824
1823,1786,1790
1869,1840,1843
1868,1791,1911
1823,1771,1821
1843,1821,1790
1893,1854,1874
1899,1877,1933
1856,1805,1914
1835,1794,1779
1856,1857,1805
1892,1872,1875
1866,1826,1903
1840,1821,1782
1872,1831,1802
1899,1809,1879
1886,1812,1872
1854,1831,1806
1877,1868,1919
1890,1842,1882
1847,1783,1796
1829,1823,1795
1858,1845,1923
1869,1855,1909
1856,1865,1850
1878,1879,1841
1871,1818,1846
1840,1797,1777
1839,1808,1795
1843,1808,1827
1872,1872,1917
1887,1870,1859
1810,1742,1787
1801,1751,1755
1854,1840,1831
1872,1859,1872
1870,1845,1891
1893,1891,1856
1904,1897,1833
1857,1825,1820
1840,1799,1885
1823,1788,1795
1863,1854,1869
1886,1923,1941
1870,1895,1856
1799,1780,1753
1837,1788,1866
1907,1867,1916
1856,1842,1803
1845,1842,1820
1872,1841,1894
1863,1894,1920
1841,1851,1840
1809,1777,1746
1859,1840,1866
1874,1891,1920
1855,1862,1824
1837,1801,1817
1828,1808,1872
1847,1865,1903
1858,1909,1818
1858,1830,1781
1869,1887,1865
1856,1803,1915
1836,1884,1856
1840,1853,1840
1890,1856,1919
1850,1798,1866
1839,1841,1827
1809,1827,1830
1863,1861,1902
1885,1872,1904
1833,1791,1809
1835,1801,1805
1869,1871,1870
1891,1916,1888
1878,1881,1840
1856,1840,1787
1869,1878,1877
1870,1870,1885
1858,1833,1853
1830,1833,1808
1837,1872,1804
1861,1856,1866
1872,1840,1855
