1842,1810,1877
1874,1871,1904
1809,1826,1829
1714,1772,1712
1863,1825,1799
1882,1891,1899
1866,1881,1886
1879,1853,1839
1858,1899,1870
1861,1991,1889
1856,1920,1855
1808,1808,1765
1840,1806,1826
1872,1874,1918
1869,1832,1888
1734,1776,1754
1875,1872,1840
1868,1873,1904
1825,1888,1871
1889,1872,1898
1983,1862,1907
1856,1878,1891
1803,1850,1835
1796,1818,1710
1877,1859,1808
1904,1879,1903
1842,1837,1843
1790,1786,1753
1825,1830,1856
1879,1911,1929
1927,1938,1895
1814,1847,1773
1841,1808,1824
1847,1856,1899
1890,1906,1874
1898,1916,1811
1906,1925,1877
1856,1857,1929
1819,1845,1863
1823,1822,1809
1861,1860,1804
1894,1872,1859
1841,1808,1835
1818,1808,1819
1843,1906,1835
1835,1876,1825
1858,1840,1871
1837,1831,1803
1882,1867,1866
1900,1885,1903
1858,1887,1867
1809,1851,1744
1849,1855,1803
1873,1877,1909
1863,1886,1937
1841,1862,1834
1829,1858,1806
1861,1873,1854
1842,1854,1831
1833,1846,1802
1835,1883,1823
1857,1883,1889
1883,1865,1898
1833,1813,1797
1856,1854,1817
1873,1898,1885
1863,1917,1851
1861,1929,1802
1840,1809,1829
1827,1810,1846
1856,1853,1846
1808,1815,1776
1806,1792,1839
1853,1851,1934
1843,1881,1825
1830,1843,1745
1849,1840,1791
1846,1872,1867
1846,1840,1895
1859,1834,1840
1843,1822,1800
1837,1850,1817
1866,1887,1874
1830,1875,1868
1887,1890,1866
1863,1809,1863
1833,1826,1805
1792,1828,1773
1797,1796,1792
1840,1846,1869
1856,1916,1838
1833,1820,1776
1805,1771,1799
1831,1831,1825
1856,1867,1834
1828,1885,1809
1891,1914,1899
1872,1840,1822
1853,1836,1804
1829,1827,1838
1849,1805,1841
1868,1854,1929
1895,1883,1872
1859,1855,1787
1819,1881,1764
1885,1915,1883
1856,1876,1856
1830,1854,1801
1814,1840,1839
1841,1847,1849
1822,1808,1815
1811,1779,1733
1837,1839,1787
1859,1899,1926
1808,1839,1819
1804,1811,1766
1849,1840,1867
1874,1904,1858
1861,1934,1840
1840,1842,1782
1871,1859,1867
1878,1851,1949
1822,1776,1822
1810,1779,1751
1882,1891,1847
1889,1914,1926
1833,1853,1853
1787,1808,1734
1854,1866,1799
1875,1891,1913
1857,1914,1936
1789,1838,1762
1813,1840,1743
1870,1925,1919
1854,1837,1889
1853,1823,1808
1887,1880,1849
1852,1840,1855
1843,1815,1840
1814,1834,1793
1818,1872,1840
1844,1875,1899
1867,1906,1888
1863,1835,1823
1846,1840,1813
1865,1879,1883
1830,1834,1906
1818,1813,1808
1890,1904,1847
1885,1911,1872
1844,1859,1849
1808,1787,1783
1823,1803,1798
1881,1887,1879
1870,1883,1871
1853,1847,1840
1883,1908,1872
1862,1878,1895
1804,1808,1823
1777,1788,1727
1847,1824,1831
1879,1831,1859
1846,1822,1803
1808,1805,1776
1850,1895,1847
1871,1913,1887
1873,1914,1893
1841,1815,1805
1823,1821,1813
1868,1887,1887
1853,1855,1856
1829,1814,1791
1847,1888,1865
1879,1857,1904
1831,1785,1872
1817,1893,1777
1872,1925,1835
1862,1803,1856
1822,1744,1827
1825,1828,1796
1890,1903,1835
1853,1849,1851
1819,1881,1843
1841,1850,1841
1863,1849,1810
1913,1907,1920
1874,1913,1845
1854,1894,1811
1821,1780,1809
1856,1838,1859
1873,1894,1877
1866,1902,1851
1871,1827,1821
1877,1831,1863
1849,1790,1808
1866,1807,1854
1856,1857,1862
1859,1859,1831
1841,1815,1799
1855,1935,1785
1894,1904,1887
1936,1882,1918
1841,1807,1817
1810,1870,1759
1855,1802,1817
1891,1933,1926
1878,1867,1874
1845,1876,1809
1863,1879,1875
1914,1971,1878
1842,1838,1765
1846,1754,1739
1913,1855,1840
1872,1867,1881
1840,1872,1871
1846,1883,1881
1872,1862,1825
1900,1859,1858
1899,1856,1888
1874,1893,1835
1872,1822,1886
1920,1850,1882
1874,1849,1763
1827,1795,1780
1855,1894,1814
1917,1904,1893
1901,1921,1869
1874,1923,1818
1869,1859,1808
1878,1763,1862
1896,1788,1854
1890,1820,1757
1893,1893,1823
1893,1879,1968
1863,1850,1836
1875,1843,1777
1930,1951,1858
1899,1905,1865
1872,1810,1795
1867,1839,1810
1871,1872,1862
1892,1930,1894
1891,1828,1843
1898,1790,1788
1903,1926,1821
1962,1936,1902
1927,1905,1889
1874,1811,1783
1911,1866,1773
1942,1862,1856
1934,1919,1899
1917,1952,1809
1925,1846,1851
1957,1904,1986
1951,1845,1847
1883,1793,1679
1904,1795,1788
1955,1879,1946
1904,1850,1802
1901,1835,1765
1936,1857,1853
1958,1850,1895
1963,1921,1877
1947,1905,1831
1923,1906,1875
1943,1882,1904
1946,1859,1872
1866,1795,1783
1919,1865,1881
1973,1893,1911
1931,1859,1806
1856,1777,1694
1893,1906,1783
1971,1963,1904
1947,1811,1869
1895,1759,1834
1914,1846,1805
1937,1875,1919
1927,1948,1893
1904,1827,1807
1979,1795,1931
1948,1926,1921
1936,2000,1815
1936,1871,1760
1941,1803,1809
1942,1835,1893
1953,1858,1892
1927,1846,1806
1927,1891,1819
1970,1958,1954
1922,1897,1870
1889,1779,1822
1927,1808,1841
1948,1859,1995
1925,1922,1855
1903,1834,1755
1917,1818,1790
1946,1867,1888
1921,1869,1855
1899,1902,1801
1921,1858,1853
1939,1854,1943
1931,1791,1900
1895,1810,1749
1936,1851,1792
1973,1945,1963
1931,1852,1877
1872,1790,1773
1886,1774,1809
1925,1897,1919
1950,1898,1908
1930,1888,1811
1889,1875,1809
1893,1855,1858
1901,1823,1879
1911,1875,1809
1938,1903,1872
1927,1843,1893
1909,1841,1860
1879,1811,1774
1927,1851,1826
1926,1851,1897
1898,1881,1875
1886,1936,1850
1929,1857,1829
1902,1872,1898
1903,1869,1946
1870,1794,1748
1898,1815,1775
1922,1907,1925
1921,1891,1867
1883,1807,1771
1909,1887,1830
1904,1874,1863
1908,1911,1870
1888,1904,1842
1883,1730,1821
1890,1770,1875
1910,1907,1891
1879,1887,1781
1913,1830,1873
1927,1884,1918
1905,1929,1835
1861,1838,1793
1905,1776,1866
1907,1881,1855
1873,1791,1795
1874,1771,1767
1917,1856,1879
1901,1877,1915
1887,1925,1871
1885,1821,1778
1921,1896,1847
1915,1872,1892
1885,1839,1852
1887,1919,1814
1930,1874,1955
1915,1807,1927
1897,1815,1792
1867,1865,1760
1862,1831,1806
1875,1842,1840
1850,1872,1834
1874,1854,1826
1907,1851,1839
1936,1871,1882
1893,1919,1873
1856,1831,1818
1881,1791,1856
1903,1840,1942
1895,1903,1843
1883,1856,1776
1903,1859,1849
1884,1885,1935
1876,1877,1920
1867,1877,1770
1914,1858,1807
1918,1879,1873
1853,1868,1872
1853,1815,1825
1866,1837,1834
1879,1843,1837
1851,1811,1766
1863,1825,1776
1911,1876,1879
1872,1869,1926
1881,1892,1945
1881,1840,1802
1877,1878,1775
1873,1909,1867
1889,1950,1904
1872,1786,1766
1850,1759,1808
1872,1856,1927
1849,1831,1873
1839,1823,1754
1891,1859,1807
1919,1885,1919
1893,1919,1894
1838,1865,1772
1827,1808,1799
1861,1829,1873
1863,1836,1856
1882,1874,1801
1846,1831,1824
1859,1839,1902
1895,1927,1866
1871,1887,1776
1852,1807,1831
1887,1834,1891
1890,1906,1871
1880,1843,1803
1862,1798,1847
1892,1847,1898
1867,1837,1843
1834,1815,1810
1855,1851,1829
1883,1851,1893
1907,1869,1916
1850,1853,1792
1847,1840,1775
1894,1873,1891
1856,1808,1815
1848,1851,1807
1895,1918,1884
1851,1890,1851
1859,1911,1860
1842,1840,1808
1854,1792,1781
1879,1855,1893
1885,1878,1918
1837,1792,1799
1847,1791,1808
1872,1865,1911
1875,1940,1853
1851,1872,1775
1872,1797,1820
1876,1859,1865
1840,1891,1839
1822,1807,1772
1878,1841,1853
1888,1861,1899
1872,1835,1881
1872,1850,1866
1886,1934,1890
1923,1931,1923
1854,1798,1765
1744,1734,1695
1820,1931,1817
1877,1917,1920
1847,1776,1815
1846,1741,1771
1850,1811,1811
1890,1930,1918
1883,1941,1881
1854,1815,1811
1856,1790,1815
1873,1831,1843
1872,1895,1854
1851,1859,1845
1890,1862,1853
1900,1859,1835
1840,1808,1785
1842,1787,1830
1872,1875,1872
1914,1950,1947
1905,1847,1889
1835,1783,1714
1808,1789,1750
1865,1873,1869
1871,1947,1887
1874,1918,1837
1872,1792,1807
1875,1764,1863
1871,1846,1872
1856,1898,1808
1840,1843,1823
1840,1799,1826
1834,1776,1808
1830,1798,1765
1879,1891,1810
1904,1959,1925
1894,1963,1914
1854,1783,1798
1829,1778,1775
1871,1904,1897
1892,1857,1856
1873,1799,1777
1861,1799,1840
1829,1866,1865
1815,1925,1823
1812,1809,1744
1915,1846,1838
1907,1863,1900
1808,1840,1805
1817,1799,1824
1845,1817,1802
1876,1890,1840
1881,1890,1871
1889,1903,1915
1885,1865,1797
1835,1776,1744
1822,1748,1799
1855,1813,1808
1891,1904,1872
1900,1940,1917
1894,1837,1847
1859,1811,1775
1890,1936,1815
1905,1950,1941
1877,1863,1929
1875,1838,1837
1825,1753,1775
1835,1777,1830
1859,1852,1840
1861,1872,1815
1859,1863,1797
1895,1897,1850
1857,1875,1868
1845,1824,1791
1870,1859,1806
1866,1879,1902
1873,1887,1873
1890,1909,1865
1894,1838,1841
1872,1843,1886
1866,1889,1847
1835,1776,1741
1833,1766,1782
1866,1845,1885
1873,1883,1917
1904,2003,1895
1904,1968,1856
1882,1801,1831
1840,1838,1803
1826,1849,1840
1853,1789,1829
1849,1808,1833
1842,1819,1777
1852,1840,1790
1902,1904,1871
1930,1935,1939
1851,1851,1840
1807,1827,1776
1904,2041,1874
1901,1990,1947
1835,1680,1797
1808,1671,1746
1872,1810,1858
1878,1881,1863
1845,1873,1840
1865,1870,1803
1874,1956,1873
1877,1926,1933
1888,1855,1885
1871,1823,1808
1854,1891,1824
1854,1939,1886
1855,1759,1830
1840,1745,1758
1895,1908,1903
1876,2002,1935
1826,1819,1951
1780,1663,1722
1838,1777,1728
1878,1875,1863
1846,1863,1839
1829,1855,1776
1847,1920,1891
1875,1925,1929
1902,1861,1932
1829,1857,1857
1847,1902,1804
1862,1855,1763
1838,1781,1744
1837,1792,1840
1872,1886,1838
1866,1885,1849
1842,1842,1838
1856,1870,1825
1901,1940,1891
1873,1967,1865
1803,1834,1798
1769,1689,1839
1823,1760,1850
1861,1839,1866
1845,1850,1819
1863,1874,1829
1914,1890,1907
1840,1859,1840
1771,1799,1776
1842,1871,1777
1872,1875,1856
1882,1910,1845
1866,1996,1850
1815,1815,1834
1855,1808,1913
1899,1849,1911
1872,1840,1840
1765,1797,1738
1797,1840,1795
1836,1833,1860
1840,1842,1830
1821,1851,1784
1847,1906,1893
1881,1968,1949
1907,1926,1996
1825,1873,1820
1791,1740,1753
1813,1751,1794
1825,1827,1819
1811,1840,1791
1842,1886,1845
1872,1902,1902
1877,1909,1901
1881,1927,1840
1859,1895,1889
1782,1769,1815
1785,1793,1872
1818,1831,1791
1856,1877,1879
1882,1932,1920
1840,1892,1850
1815,1861,1751
1825,1835,1838
1856,1881,1901
1904,1998,1959
1871,1933,1850
1808,1787,1750
1789,1747,1820
1795,1788,1785
1807,1813,1766
1845,1875,1915
1870,1887,1914
1851,1862,1872
1827,1855,1825
1863,1881,1893
1865,1914,1923
1851,1887,1891
1821,1841,1819
1838,1857,1830
1851,1876,1892
1855,1869,1889
1842,1868,1839
1870,1893,1859
1875,1902,1888
1871,1891,1888
1861,1887,1872
1859,1879,1868
1839,1863,1856
1812,1845,1790
1820,1854,1797
1872,1887,1863
1913,1926,1949
1893,1891,1869
1891,1875,1794
1890,1888,1901
1872,1914,1909
1872,1904,1883
1869,1863,1825
1905,1913,1895
1920,1925,1951
1878,1861,1897
1846,1830,1792
1898,1891,1868
1938,1936,1970
1913,1897,1929
1842,1827,1795
1885,1875,1913
1918,1920,1899
1907,1887,1856
1868,1849,1805
1909,1890,1877
1927,1908,1939
1917,1888,1933
1899,1854,1840
1926,1883,1879
1937,1902,1928
1936,1904,1917
1894,1853,1855
1921,1866,1903
1943,1927,1965
1899,1855,1899
1879,1825,1779
1921,1855,1837
1894,1846,1859
1878,1847,1871
1882,1843,1856
1878,1840,1855
1894,1872,1901
1907,1850,1934
1921,1871,1922
1907,1872,1840
1893,1861,1857
1877,1855,1857
1886,1852,1842
1902,1863,1882
1930,1891,1952
1904,1866,1927
1808,1838,1809
1882,1857,1798
1920,1872,1872
1978,1859,1872
1824,1791,1797
1889,1825,1867
1926,1870,1923
1892,1868,1885
1855,1843,1845
1881,1860,1792
1891,1933,1839
1856,1837,1830
1808,1785,1761
1935,1899,1841
1914,1840,1882
1867,1779,1860
1843,1790,1773
1857,1851,1810
1893,1873,1918
1859,1872,1856
1846,1829,1757
1841,1827,1794
1887,1881,1920
1894,1879,1871
1845,1825,1796
1838,1836,1774
1890,1916,1983
1904,1876,1939
1869,1715,1723
1840,1763,1709
1900,1851,1815
1872,1837,1808
1857,1785,1778
1872,1810,1839
1851,1845,1822
1787,1804,1793
1790,1745,1714
1813,1811,1845
1866,1839,1923
1855,1878,1854
1858,1798,1822
1827,1842,1854
1903,1936,1887
1918,1858,1824
1744,1643,1645
1817,1786,1777
1845,1885,1895
1825,1808,1811
1809,1734,1731
1879,1872,1871
1868,1951,1870
1808,1890,1860
1827,1759,1776
1826,1787,1732
1883,1965,1881
1861,1913,1871
1815,1754,1783
1879,1850,1865
1811,1813,1818
1791,1753,1783
1906,1872,1809
1922,1926,1838
1849,1961,1854
1810,1840,1841
1826,1713,1795
1822,1767,1754
1889,1904,1986
1847,1826,1884
1772,1739,1678
1846,1884,1795
1844,1975,1823
1771,1786,1823
1874,1711,1822
1842,1826,1881
1839,1933,1850
1745,1821,1747
1789,1847,1813
1846,1859,1853
1858,1825,1862
1847,1776,1835
1802,1803,1814
1841,1907,1782
1872,1874,1821
1883,1899,1845
1797,1776,1791
1835,1821,1894
1808,1829,1818
1789,1791,1781
1809,1803,1782
1856,1903,1910
1955,2006,1917
1776,1856,1835
1712,1723,1754
1777,1770,1781
1846,1818,1837
1828,1827,1840
1845,1846,1773
1853,1881,1821
1840,1845,1895
1805,1866,1842
1778,1843,1731
1854,1834,1777
1847,1874,1918
1840,1836,1925
1846,1863,1811
1818,1907,1774
1838,1872,1825
1781,1719,1806
1762,1730,1744
1781,1872,1811
1875,1910,1847
1891,1872,1824
1813,1799,1756
1815,1830,1956
1904,1885,1858
1887,1815,1761
1783,1753,1744
1823,1820,1835
1754,1877,1921
1822,1818,1922
1808,1843,1744
1908,1949,1846
1858,1903,1861
1894,1813,1884
1729,1734,1712
1737,1774,1747
1825,1883,1863
1822,1872,1854
1811,1821,1835
1840,1823,1798
1856,1921,1863
1827,1856,1823
1795,1839,1836
1844,1811,1861
1847,1830,1833
1774,1859,1795
1810,1913,1792
1872,1904,1871
1885,1953,1883
1853,1815,1863
1776,1752,1791
1799,1813,1839
1851,1918,1883
1872,1930,1845
1874,1849,1818
1804,1803,1808
1823,1819,1815
1810,1877,1827
1830,1858,1744
1830,1872,1840
1867,1872,1898
1877,1887,1818
1906,1936,1853
1829,1882,1877
1864,1797,1857
1827,1801,1831
1927,1925,1856
1855,1870,1776
1828,1779,1858
1872,1841,1910
1846,1845,1817
1845,1870,1795
1917,1921,1867
1827,1790,1869
1801,1789,1826
1869,1870,1903
1838,1881,1820
1879,1885,1872
1810,1827,1795
1799,1883,1842
1819,1895,1840
1813,1817,1879
1837,1919,1840
1855,1904,1801
1888,1821,1891
1837,1806,1882
1821,1840,1872
1855,1909,1871
1890,1918,1872
1836,1830,1776
1780,1826,1814
1823,1948,1859
1861,1928,1893
1830,1815,1828
1839,1825,1789
1863,1869,1874
1867,1914,1919
1808,1837,1808
1777,1757,1792
1872,1914,1937
1904,1972,1919
1856,1881,1891
1777,1774,1789
1814,1851,1868
1821,1878,1840
1833,1853,1789
1825,1853,1773
1828,1884,1856
1855,1822,1936
1835,1852,1877
1856,1890,1815
1840,1851,1818
1790,1818,1855
1817,1842,1979
1838,1883,1840
1867,1925,1822
1856,1915,1860
1833,1874,1859
1834,1850,1837
1843,1851,1883
1840,1827,1888
1820,1822,1826
1865,1873,1893
1840,1871,1838
1840,1857,1891
1815,1847,1894
1807,1877,1786
1833,1867,1792
1845,1895,1852
1863,1898,1861
1822,1798,1792
1866,1821,1901
1851,1866,1953
1811,1909,1850
1831,1841,1776
1851,1857,1819
1850,1882,1967
1835,1905,1911
1879,2000,1770
1878,1872,1797
1875,1805,1933
1803,1778,1823
1782,1813,1779
1834,1875,1839
1867,1857,1911
1841,1850,1863
1856,1885,1824
1866,1967,1862
1892,1974,1904
1870,1840,1922
1811,1775,1842
1808,1808,1851
1876,1882,1857
1873,1868,1843
1867,1906,1829
1867,1911,1861
1831,1835,1873
1807,1872,1889
1806,1910,1839
1863,1863,1862
1891,1833,1903
1831,1860,1843
1828,1879,1849
1861,1878,1905
1847,1833,1866
1825,1853,1872
1840,1913,1813
1872,1920,1874
1889,1840,1888
1827,1793,1797
1851,1839,1840
1891,1907,1899
1870,1894,1811
1856,1907,1826
1823,1830,1823
1841,1826,1840
1860,1872,1856
1863,1872,1861
1872,1907,1895
1856,1937,1906
1888,1924,1890
1869,1831,1829
1850,1831,1804
1847,1921,1881
1906,1973,1953
1874,1849,1847
1806,1727,1712
1855,1823,1835
1888,1904,1922
1867,1993,1891
1860,1894,1840
1845,1750,1845
1878,1810,1872
1847,1809,1826
1843,1861,1826
1872,1909,1918
1878,1933,1911
1874,1844,1807
1831,1815,1758
1819,1815,1825
1871,1872,1899
1843,1903,1839
1853,1869,1810
1853,1856,1856
1855,1862,1957
1847,1889,1918
1850,1904,1767
1870,1873,1835
1917,1877,1939
1857,1919,1867
1815,1951,1777
1855,1791,1803
1879,1765,1854
1863,1851,1879
1840,1856,1829
1858,1877,1841
1823,1826,1808
1832,1837,1840
1841,1879,1862
1873,1938,1882
1910,1942,1926
1850,1827,1818
1821,1827,1728
1856,1856,1813
1874,1852,1936
1842,1859,1863
1845,1810,1786
1858,1806,1815
1871,1841,1925
1900,1927,1881
1844,1859,1809
1887,1863,1897
1899,1899,1927
1843,1827,1831
1859,1836,1790
1834,1798,1791
1872,1872,1938
1845,1851,1870
1808,1807,1743
1879,1827,1799
1894,1872,1845
1831,1821,1806
1844,1905,1824
1891,1993,1919
1904,1847,1966
1858,1845,1846
1838,1855,1744
1855,1786,1791
1875,1767,1859
1877,1861,1875
1855,1876,1819
1898,1874,1861
1902,1917,1965
1850,1897,1825
1872,1830,1796
1901,1885,1891
1851,1882,1893
1818,1741,1754
1822,1779,1726
1893,1874,1875
1885,1885,1878
1874,1905,1845
1852,1873,1808
1887,1840,1840
1883,1842,1902
1873,1838,1847
1856,1838,1776
1882,1903,1840
1868,1900,1907
1840,1850,1872
1833,1782,1713
1872,1840,1779
1891,1871,1925
1873,1904,1872
1872,1858,1827
1886,1918,1843
1879,1874,1872
1888,1891,1882
1845,1794,1797
1834,1801,1812
1843,1935,1874
1856,1915,1871
1845,1817,1791
1879,1872,1872
1885,1835,1922
1849,1874,1822
1865,1834,1848
1886,1803,1836
1895,1904,1901
1858,1947,1828
1839,1779,1797
1846,1805,1815
1903,1872,1953
1903,2002,1931
1872,1829,1778
1872,1825,1792
1872,1981,1897
1835,1861,1856
1815,1718,1803
1870,1831,1805
1903,1913,1904
1866,1919,1863
1815,1822,1754
1879,1915,1887
1878,1936,1873
1855,1812,1809
1849,1787,1793
1885,1857,1895
1885,1890,1893
1859,1835,1794
1873,1841,1835
1924,1901,1883
1908,1945,1925
1879,1904,1867
1861,1969,1809
1861,1866,1836
1909,1904,1920
1888,1920,1969
1839,1874,1830
1868,1872,1833
1871,1820,1849
1865,1904,1823
1853,1927,1810
1901,1847,1853
1887,1799,1872
1828,1805,1806
1819,1904,1778
1883,1894,1859
1878,1872,1867
1840,1849,1837
1850,1829,1783
1903,1899,1859
1930,1941,2000
1904,2078,1905
1857,1834,1797
1811,1664,1741
1839,1744,1808
1865,1834,1867
1887,1872,1897
1886,1914,1883
1889,1942,1921
1847,1827,1847
1851,1844,1754
1838,1740,1769
1847,1815,1862
1853,1840,1867
1895,1991,1841
1911,1923,1890
1872,1806,1917
1815,1829,1819
1818,1850,1749
1870,1915,1798
1870,1879,1863
1893,1959,1907
1866,1891,1857
1872,1869,1858
1872,1811,1893
1869,1816,1828
1849,1833,1789
1861,1873,1843
1852,1890,1839
1841,1843,1878
1838,1915,1777
1895,1923,1850
1874,1825,1855
1843,1844,1821
1837,1869,1856
1872,1905,1872
1886,1872,1873
1886,1887,1857
1850,1885,1802
1887,1859,1869
1843,1836,1933
1854,1917,1834
1850,1827,1777
1861,1894,1840
1898,1917,1921
1904,1913,1863
1810,1814,1741
1831,1856,1808
1877,1957,1883
1887,1878,1918
1842,1862,1821
1840,1694,1808
1854,1745,1847
1882,1863,1891
1887,1857,1860
1872,1878,1840
1875,1925,1933
1861,1894,1916
1876,1902,1802
1866,1831,1805
1849,1817,1862
1825,1847,1820
1826,1853,1805
1855,1874,1846
1860,1898,1886
1840,1863,1836
1840,1795,1789
1844,1833,1813
1887,1906,1984
1865,1874,1953
1798,1762,1727
1885,1887,1793
1889,1939,1893
1840,1878,1879
1795,1781,1764
1849,1808,1835
1879,1869,1887
1872,1882,1861
1827,1856,1803
1882,1909,1846
1883,1894,1931
1776,1789,1770
1806,1831,1776
1872,1901,1906
1857,1846,1918
1855,1838,1833
1809,1806,1718
1840,1847,1854
1871,1944,1951
1890,1926,1898
1842,1770,1771
1879,1814,1829
1859,1859,1863
1815,1851,1823
1834,1857,1807
1863,1855,1839
1853,1883,1875
1820,1881,1831
1815,1843,1776
1842,1831,1801
1934,1895,1981
1847,1855,1831
1820,1867,1816
1859,1905,1934
1855,1855,1861
1810,1765,1766
1829,1808,1746
1861,1863,1840
1875,1903,1899
1855,1899,1842
1828,1873,1799
1843,1865,1866
1855,1829,1850
1850,1808,1827
1898,1909,1872
1907,1886,1919
1823,1779,1824
1776,1781,1731
1817,1826,1709
1903,1971,1874
1895,1901,1900
1831,1769,1781
1811,1795,1777
1866,1883,1890
1859,1913,1913
1847,1935,1855
1801,1778,1737
1827,1759,1817
1869,1823,1925
1859,1868,1875
1841,1865,1785
1845,1902,1817
1891,1916,1904
1843,1835,1837
1833,1825,1823
1845,1925,1855
1841,1856,1840
1869,1887,1862
1887,1861,1833
1854,1804,1831
1802,1805,1812
1798,1814,1795
1850,1834,1902
1906,1904,1884
1855,1904,1845
1808,1899,1819
1822,1883,1830
1836,1829,1808
1856,1851,1854
1827,1833,1815
1835,1840,1835
1869,1911,1872
1869,1866,1888
1850,1872,1840
1850,1890,1828
1874,1846,1850
1890,1835,1919
1840,1840,1918
1803,1877,1831
1825,1858,1779
1901,1927,1917
1834,1857,1805
1774,1791,1727
1844,1826,1856
1899,1930,1963
1833,1933,1840
1801,1902,1751
1827,1767,1802
1842,1751,1850
1858,1843,1877
1851,1829,1842
1850,1904,1840
1859,1910,1883
1831,1795,1825
1840,1807,1806
1857,1895,1856
1874,1922,1888
1874,1949,1882
1878,1872,1858
1856,1819,1840
1812,1798,1856
1813,1799,1822
1871,1855,1774
1855,1863,1830
1842,1902,1887
1831,1884,1850
1795,1804,1760
1855,1798,1867
1883,1870,1935
1841,1910,1827
1811,1859,1783
1840,1859,1847
1859,1895,1879
1850,1917,1829
1879,1866,1882
1883,1839,1842
1873,1888,1826
1829,1790,1808
1813,1786,1847
1827,1881,1815
1853,1904,1807
1915,1887,1827
1840,1741,1728
1862,1877,1843
1886,1936,1957
1859,1902,1882
1856,1883,1811
1840,1826,1818
1827,1774,1841
1829,1841,1845
1842,1911,1854
1870,1889,1861
1830,1803,1818
1837,1837,1872
1837,1823,1776
1867,1871,1807
1887,1872,1874
1870,1872,1914
1857,1851,1766
1819,1877,1821
1856,1922,1851
1863,1807,1837
1831,1804,1808
1872,1889,1899
1889,1919,1922
1813,1856,1838
1807,1871,1755
1855,1822,1817
1881,1839,1945
1840,1834,1872
1813,1835,1742
1843,1842,1799
1866,1920,1914
1874,1970,1904
1869,1882,1841
1868,1776,1888
1861,1799,1835
1837,1825,1835
1817,1808,1791
1821,1825,1840
1861,1918,1865
1874,1866,1921
1849,1866,1806
1855,1878,1789
1856,1902,1828
1872,1903,1923
1820,1830,1802
1839,1873,1840
1908,1923,1937
1872,1877,1918
1842,1882,1845
1807,1793,1758
1824,1801,1815
1850,1862,1873
1840,1871,1787
1821,1841,1776
1850,1853,1841
1878,1872,1870
1832,1847,1776
1841,1873,1926
1863,1907,1910
1845,1861,1824
1850,1833,1773
1889,1872,1813
1938,1975,1968
1835,1877,1879
1808,1798,1791
1867,1894,1857
1872,1825,1898
1862,1889,1871
1851,1923,1797
1895,1896,1847
1825,1793,1847
1811,1829,1822
1847,1869,1845
1857,1840,1869
1872,1841,1895
1857,1872,1808
1856,1888,1868
1848,1894,1907
1850,1850,1882
1859,1829,1837
1871,1859,1734
1893,1899,1744
1840,1861,1826
1803,1808,1808
1821,1854,1815
1872,1870,1903
1875,1873,1887
1846,1921,1913
1865,1872,1890
1881,1863,1842
1841,1814,1821
1829,1841,1822
1841,1879,1829
1869,1870,1875
1839,1782,1831
1824,1838,1805
1869,1931,1831
1915,1918,1918
1856,1792,1904
1798,1798,1796
1845,1891,1791
1888,1897,1862
1883,1845,1859
1854,1859,1904
1840,1903,1823
1903,1919,1987
1882,1978,1919
1830,1843,1851
1795,1681,1744
1829,1744,1814
1869,1872,1845
1870,1919,1870
1853,1915,1875
1919,1909,1870
1900,1883,1883
1841,1770,1871
1798,1744,1751
1839,1846,1746
1879,1918,1857
1882,1911,1839
1858,1901,1795
1867,1887,1826
1872,1852,1867
1840,1855,1858
1831,1789,1830
1875,1835,1856
1904,1872,1931
1869,1857,1776
1817,1810,1712
1831,1838,1825
1867,1935,1939
1886,1986,1893
1877,1949,1763
1857,1756,1862
1857,1750,1859
1837,1769,1839
1815,1799,1808
1853,1854,1788
1904,1885,1903
1818,1855,1840
1793,1958,1795
1839,1929,1841
1877,1839,1808
1840,1774,1829
1867,1789,1813
1836,1803,1882
1840,1898,1857
1847,1855,1872
1837,1826,1802
1861,1951,1872
1881,1926,1899
1856,1765,1835
1857,1750,1773
1856,1785,1856
1863,1872,1895
1871,1891,1846
1874,1903,1853
1855,1841,1797
1862,1904,1918
1841,1979,1863
1796,1715,1712
1818,1715,1775
1845,1793,1861
1832,1839,1801
1835,1921,1755
1872,1961,1866
1890,1922,1934
1851,1791,1895
1821,1747,1799
1844,1799,1840
1876,1950,1909
1871,1959,1863
1879,1937,1819
1869,1803,1863
1867,1690,1857
1875,1779,1850
1854,1883,1847
1825,1839,1836
1840,1837,1859
1840,1838,1836
1840,1873,1770
1872,1911,1850
1913,1934,1971
1836,1792,1827
1837,1787,1766
1863,1836,1806
1881,1865,1909
1856,1902,1850
1814,1823,1728
1840,1792,1791
1873,1809,1919
1856,1839,1875
1863,1957,1834
1920,1989,1921
1853,1734,1812
1792,1729,1744
1795,1775,1761
1853,1819,1885
1904,1890,1941
1861,1840,1800
1846,1843,1781
1865,1846,1824
1870,1829,1872
1870,1830,1855
1887,1855,1863
1849,1907,1811
1855,1867,1808
1847,1805,1797
1846,1747,1808
1921,1852,1889
1887,1902,1915
1854,1888,1902
1863,1847,1776
1893,1775,1789
1906,1829,1904
1853,1783,1847
1854,1713,1824
1911,1811,1842
1929,1919,1871
1921,1920,1898
1806,1863,1744
1786,1801,1805
1904,1776,1872
1847,1798,1851
1839,1865,1831
1856,1821,1825
1853,1767,1856
1865,1789,1872
1835,1824,1842
1904,1943,1836
1882,1954,1874
1855,1813,1843
1790,1749,1803
1854,1930,1841
1865,1894,1913
1840,1714,1886
1862,1815,1779
1869,1843,1776
1899,1907,1872
1916,1998,1899
1829,1765,1823
1792,1670,1750
1818,1776,1877
1886,1935,1904
1819,1859,1767
1904,1883,1866
1863,1867,1904
1845,1845,1849
1786,1805,1759
1856,1857,1798
1875,1894,1858
1866,1930,1873
1897,1878,1867
1879,1819,1833
1871,1963,1913
1835,1908,1899
1849,1743,1805
1863,1820,1840
1893,1895,1846
1899,1895,1849
1823,1969,1827
1842,1936,1871
1886,1828,1862
1834,1876,1821
1879,1756,1806
1867,1744,1875
1884,1935,1963
1860,1936,1853
1792,1835,1740
1810,1830,1772
1826,1937,1903
1890,1968,1934
1891,1857,1783
1855,1770,1776
1872,1835,1887
1890,1874,1856
1923,1906,1845
1888,1938,1899
