1851,1817,1782
1846,1852,1818
1873,1905,1935
1907,1886,1952
1851,1835,1806
1822,1877,1735
1853,1895,1821
1887,1856,1872
1923,1841,1838
1867,1865,1863
1840,1875,1830
1862,1852,1819
1859,1840,1826
1872,1863,1843
1890,1899,1947
1899,1862,1865
1852,1840,1745
1872,1874,1805
1852,1911,1934
1875,1860,1914
1838,1808,1804
1776,1839,1757
1908,1905,1903
1879,1904,1891
1838,1825,1773
1910,1840,1858
1903,1907,1914
1866,1904,1797
1834,1840,1806
1857,1843,1882
1885,1872,1910
1915,1866,1877
1848,1887,1721
1876,1897,1824
1849,1855,1891
1840,1817,1819
1843,1831,1822
1894,1894,1854
1881,1874,1872
1885,1879,1901
1847,1851,1871
1834,1861,1823
1867,1887,1856
1897,1876,1783
1863,1840,1815
1846,1840,1840
1905,1926,1914
1880,1840,1936
1849,1794,1807
1945,1860,1890
1743,1895,1837
1868,1871,1834
1839,1795,1739
1872,1840,1889
1886,1894,1951
1865,1861,1808
1909,1860,1826
1886,1842,1813
1859,1883,1941
1847,1872,1872
1859,1825,1772
1859,1845,1872
1872,1887,1895
1930,1838,1870
1887,1809,1767
1867,1873,1814
1865,1889,2000
1909,1811,1858
1860,1811,1781
1777,1859,1798
1836,1843,1902
1920,1891,1875
1881,1918,1810
1920,1875,1755
1919,1858,1898
1801,1826,1874
1837,1823,1809
1950,1925,1866
1856,1882,1903
1881,1837,1808
1819,1785,1741
1885,1834,1749
1915,1856,1840
1850,1828,1875
1863,1817,1827
1864,1884,1887
1926,1906,1920
1854,1860,1840
1840,1808,1712
1949,1895,1834
1923,1969,2003
1889,1852,1811
1828,1780,1661
1794,1797,1771
1946,1856,1888
1829,1828,1839
1879,1840,1851
1907,1927,1824
1891,1918,1827
1791,1814,1767
1808,1802,1790
1867,1852,1811
1760,1840,1840
1840,1868,1858
1857,1841,1771
1869,1855,1818
1862,1867,1914
1843,1872,1856
1861,1861,1885
1872,1901,1893
1899,1891,1847
1844,1809,1775
1839,1781,1747
1872,1875,1820
1797,1871,1930
1913,1862,1871
1898,1798,1751
1882,1857,1837
1843,1923,1901
1883,1850,1807
1914,1847,1840
1889,1852,1850
1808,1833,1808
1823,1854,1819
1862,1829,1838
1887,1838,1856
1868,1840,1878
1869,1846,1842
1898,1851,1827
1936,1871,1847
1895,1875,1863
1866,1882,1855
1863,1879,1820
1851,1841,1802
1887,1888,1919
1855,1855,1885
1861,1791,1783
1936,1835,1821
1893,1898,1872
1886,1865,1830
1839,1855,1809
1945,1882,1856
1879,1872,1894
1887,1867,1903
1872,1870,1842
1859,1903,1878
1965,1922,1847
1902,1842,1791
1886,1841,1799
1925,1840,1877
1851,1854,1967
1853,1872,1840
1830,1871,1732
1881,1836,1802
1848,1802,1841
1854,1825,1840
1871,1843,1818
1901,1900,1846
1920,1930,1899
1909,1882,1897
1936,1872,1856
1920,1927,1967
1876,1902,1867
1829,1779,1665
1825,1845,1768
1887,1897,1878
1835,1808,1850
1859,1817,1884
1910,1861,1860
1898,1886,1845
1904,1856,1853
1855,1844,1831
1821,1825,1808
1873,1884,1894
1918,1926,1918
1873,1855,1801
1872,1810,1831
1901,1872,1926
1894,1862,1933
1933,1888,1850
1890,1887,1739
1841,1850,1870
1885,1887,1920
1872,1911,1930
1835,1808,1762
1829,1780,1761
1840,1823,1899
1859,1847,1862
1858,1845,1780
1868,1884,1891
1861,1886,1917
1883,1824,1811
1879,1837,1762
1953,1930,1879
1891,1898,1944
1842,1837,1842
1870,1829,1795
1941,1914,1881
1857,1855,1909
1813,1847,1856
1873,1836,1803
1875,1843,1827
1929,1905,1923
1839,1842,1868
1907,1904,1840
1874,1855,1811
1847,1861,1883
1846,1843,1823
1874,1829,1831
1875,1879,1859
1851,1915,1904
1863,1870,1908
1874,1843,1795
1906,1920,1862
1834,1884,1878
1830,1792,1840
1812,1821,1831
1911,1903,1841
1856,1918,1897
1868,1867,1915
1843,1825,1767
1904,1892,1847
1930,1904,1984
1731,1819,1840
1812,1793,1701
1830,1799,1773
1879,1904,1872
1869,1878,1840
1918,1836,1844
1904,1829,1913
1855,1883,1888
1856,1852,1808
1858,1858,1808
1890,1885,1900
1863,1860,1868
1935,1814,1805
1875,1851,1845
1897,1891,1853
1840,1869,1840
1866,1872,1819
1783,1859,1839
1826,1833,1840
1844,1833,1862
1885,1884,1885
1854,1839,1780
1857,1837,1854
1811,1851,1886
1807,1872,1817
1914,1811,1823
1952,1856,1905
1901,1862,1831
1879,1862,1806
1861,1839,1798
1843,1911,1904
1853,1893,1922
1941,1841,1845
1872,1874,1797
1899,1840,1803
1778,1822,1778
1849,1823,1777
1870,1841,1805
1846,1844,1855
1838,1835,1923
1867,1831,1878
1856,1854,1843
1860,1899,1840
1885,1874,1908
1872,1824,1889
1877,1885,1797
1886,1946,1831
1874,1927,1888
1917,1826,1873
1906,1843,1825
1829,1885,1858
1855,1863,1858
1879,1821,1823
1862,1879,1841
1894,1904,1860
1841,1835,1899
1776,1805,1808
1917,1869,1728
1904,1939,1841
1878,1867,1940
1805,1782,1845
1853,1822,1814
1850,1887,1776
1840,1865,1814
1906,1840,1847
1808,1831,1813
1915,1905,1893
1921,1920,1999
1859,1847,1903
1838,1824,1709
1814,1847,1733
1847,1871,1872
1824,1808,1822
1870,1855,1792
1871,1872,1875
1859,1855,1886
1828,1863,1838
1867,1872,1836
1911,1859,1892
1842,1851,1886
1840,1901,1911
1878,1836,1834
1900,1879,1779
1849,1888,1815
1856,1897,1818
1883,1866,1823
1859,1811,1858
1889,1863,1949
1936,1886,1905
1823,1872,1797
1776,1831,1775
1803,1851,1824
1886,1855,1949
1910,1903,1889
1845,1840,1803
1779,1791,1776
1808,1838,1799
1874,1872,1810
1890,1885,1847
1836,1883,1899
1825,1872,1818
1849,1844,1802
1899,1882,1910
1862,1882,1920
1809,1835,1837
1825,1840,1723
1873,1873,1801
1863,1843,1906
1825,1795,1783
1842,1817,1775
1888,1903,1872
1872,1937,1937
1838,1849,1851
1840,1783,1744
1872,1851,1830
1870,1930,1904
1883,1872,1853
1840,1799,1809
1836,1840,1857
1839,1885,1904
1850,1872,1814
1858,1899,1750
1893,1883,1855
1877,1840,1905
1842,1803,1851
1840,1792,1811
1880,1863,1834
1840,1877,1865
1835,1833,1815
1904,1904,1911
1933,1977,1905
1847,1882,1872
1789,1778,1760
1835,1775,1742
1847,1849,1815
1860,1877,1872
1825,1803,1847
1835,1821,1818
1886,1902,1879
1854,1872,1870
1845,1853,1863
1897,1869,1872
1900,1895,1881
1867,1889,1856
1799,1821,1770
1855,1845,1787
1863,1847,1835
1851,1841,1892
1899,1876,1885
1889,1905,1872
1886,1898,1872
1831,1812,1872
1833,1820,1840
1867,1856,1791
1922,1943,1895
1833,1879,1856
1792,1808,1811
1810,1809,1774
1868,1847,1834
1893,1905,1957
1920,1938,1926
1871,1872,1774
1851,1830,1830
1872,1883,1929
1854,1853,1862
1869,1894,1840
1906,1889,1923
1873,1853,1882
1837,1858,1787
1840,1842,1775
1877,1884,1898
1886,1878,1933
1854,1813,1808
1793,1776,1734
1814,1835,1840
1872,1879,1937
1921,1907,1899
1867,1837,1775
1841,1881,1809
1873,1963,1927
1891,1872,1843
1977,1842,1860
1870,1809,1834
1803,1841,1879
1823,1855,1843
1878,1847,1815
1907,1901,1935
1888,1891,1936
1840,1837,1775
1836,1801,1790
1872,1871,1881
1895,1909,1904
1917,1891,1844
1900,1855,1778
1838,1827,1825
1838,1835,1902
1909,1899,1958
1892,1843,1823
1842,1872,1763
1838,1904,1815
1872,1840,1841
1891,1813,1849
1863,1842,1885
1854,1895,1911
1845,1834,1809
1866,1869,1830
1872,1904,1872
1878,1922,1872
1874,1845,1811
1877,1804,1803
1843,1820,1819
1840,1865,1902
1902,1920,1921
1877,1893,1846
1869,1847,1875
1853,1836,1872
1824,1826,1777
1859,1902,1818
1847,1860,1857
1853,1859,1856
1886,1896,1877
1926,1931,1906
1846,1820,1870
1790,1791,1865
1846,1867,1803
1937,1929,1830
1887,1841,1865
1856,1840,1893
1856,1857,1847
1874,1877,1808
1885,1929,1872
1861,1857,1898
1865,1840,1856
1855,1808,1808
1921,1887,1888
1894,1913,1920
1840,1851,1821
1808,1791,1748
1833,1840,1834
1866,1872,1979
1917,1886,1968
1873,1840,1808
1860,1820,1815
1847,1839,1833
1858,1890,1804
1874,1808,1830
1840,1861,1877
1839,1863,1920
1879,1902,1901
1911,1889,1834
1855,1891,1840
1840,1835,1827
1823,1823,1904
1866,1856,1807
1856,1881,1782
1840,1891,1856
1863,1839,1855
1915,1854,1833
1879,1853,1841
1865,1871,1902
1884,1866,1869
1863,1899,1861
1886,1966,1915
1805,1817,1813
1808,1730,1776
1856,1757,1775
1939,1890,1970
1904,1936,1951
1808,1808,1750
1811,1779,1715
1874,1906,1868
1873,1872,1923
1878,1836,1881
1874,1850,1808
1894,1852,1904
1897,1904,1980
1830,1811,1853
1822,1807,1744
1853,1846,1808
1849,1872,1886
1903,1915,1856
1900,1872,1791
1893,1882,1843
1855,1840,1885
1825,1819,1846
1851,1841,1897
1879,1840,1878
1867,1864,1859
1861,1856,1802
1887,1895,1824
1911,1909,1877
1891,1872,1907
1872,1897,1878
1873,1839,1859
1877,1888,1870
1839,1904,1872
1839,1817,1819
1869,1817,1786
1858,1825,1792
1791,1857,1851
1839,1781,1858
1867,1863,1798
1881,1918,1929
1904,1961,1967
1904,1927,1878
1872,1890,1776
1856,1853,1882
1837,1835,1875
1867,1894,1839
1861,1832,1798
1878,1878,1847
1843,1794,1867
1876,1822,1913
1909,1869,1920
1856,1833,1815
1850,1814,1834
1871,1877,1854
1893,1849,1903
1851,1835,1891
1831,1849,1825
1857,1851,1839
1937,1871,1857
1907,1899,1840
1888,1920,1919
1862,1840,1823
1841,1811,1760
1825,1869,1827
1870,1907,1933
1884,1870,1888
1837,1788,1771
1870,1803,1877
1874,1859,1916
1859,1831,1830
1904,1905,1813
1885,1855,1869
1872,1941,1936
1865,1873,1809
1898,1868,1785
1937,1914,1926
1887,1923,1930
1810,1822,1791
1832,1827,1746
1910,1952,1907
1920,1954,1934
1846,1791,1790
1833,1775,1785
1890,1882,1890
1845,1839,1859
1854,1856,1824
1892,1862,1866
1905,1904,1966
1884,1909,1876
1881,1879,1794
1879,1841,1808
1872,1857,1899
1825,1813,1873
1827,1824,1776
1883,1824,1813
1921,1952,1906
1813,1821,1875
1779,1727,1776
1839,1830,1766
1860,1923,1825
1888,1899,1891
1891,1855,1885
1907,1907,1867
1894,1885,1872
1847,1851,1894
1820,1757,1771
1856,1809,1749
1885,1875,1863
1877,1910,1905
1926,1904,1938
1920,1861,1829
1858,1821,1869
1840,1840,1845
1887,1899,1863
1901,1907,1840
1850,1857,1858
1825,1808,1853
1861,1825,1827
1945,1859,1869
1903,1881,1865
1823,1905,1853
1822,1803,1835
1904,1860,1859
1936,1955,1891
1917,1904,1908
1851,1805,1846
1839,1792,1728
1904,1881,1879
1891,1895,1949
1872,1872,1830
1846,1904,1775
1874,1808,1841
1842,1802,1857
1856,1836,1845
1882,1835,1875
1892,1879,1881
1895,1927,1852
1888,1811,1823
1849,1845,1805
1904,1902,1887
1840,1840,1826
1850,1680,1845
1886,1825,1835
1904,1903,1873
1871,1898,1856
1852,1857,1869
1871,1840,1827
1905,1874,1843
1858,1867,1852
1869,1857,1830
1933,1866,1871
1917,1885,1941
1867,1926,1859
1835,1872,1762
1826,1817,1737
1857,1824,1830
1886,1840,1943
1920,1870,1901
1919,1905,1816
1841,1869,1798
1825,1861,1840
1827,1813,1771
1875,1837,1783
1904,1883,1872
1936,1915,1922
1915,1914,1847
1837,1845,1795
1847,1887,1836
1873,1889,1907
1886,1869,1843
1904,1849,1803
1894,1857,1825
1878,1875,1889
1883,1866,1840
1862,1846,1759
1843,1818,1810
1838,1822,1882
1877,1847,1841
1910,1888,1823
1905,1873,1840
1888,1863,1894
1890,1851,1862
1871,1846,1754
1885,1894,1879
1879,1877,1872
1853,1825,1771
1889,1841,1839
1914,1943,1859
1885,1907,1887
1872,1815,1837
1903,1850,1843
1882,1861,1863
1875,1869,1891
1893,1883,1833
1889,1853,1792
1887,1875,1861
1856,1875,1922
1854,1843,1798
1917,1888,1770
1895,1893,1831
1857,1882,1872
1849,1858,1840
1859,1844,1839
1899,1879,1875
1895,1915,1867
1836,1840,1765
1865,1866,1808
1899,1904,1866
1883,1907,1908
1871,1870,1858
1871,1841,1777
1898,1875,1865
1875,1872,1940
1857,1840,1794
1835,1808,1717
1893,1874,1913
1888,1897,1872
1904,1899,1825
1863,1851,1776
1856,1867,1831
1826,1856,1901
1859,1853,1920
1902,1872,1838
1866,1857,1814
1811,1828,1808
1841,1835,1795
1876,1881,1819
1915,1957,1936
1893,1895,1909
1858,1835,1792
1845,1838,1729
1855,1862,1835
1854,1876,1882
1877,1886,1934
1900,1885,1866
1884,1878,1817
1872,1874,1845
1901,1861,1855
1908,1886,1895
1902,1882,1890
1872,1879,1859
1866,1872,1830
1866,1842,1774
1874,1887,1819
1884,1904,1934
1880,1904,1881
1856,1887,1877
1796,1808,1761
1819,1788,1777
1862,1818,1814
1874,1866,1861
1894,1927,1874
1882,1856,1844
1871,1835,1828
1889,1846,1827
1886,1881,1904
1874,1935,1950
1854,1877,1789
1871,1827,1758
1883,1861,1874
1868,1900,1895
1838,1847,1808
1891,1856,1812
1914,1903,1916
1899,1898,1932
1851,1853,1823
1847,1835,1761
1872,1872,1852
1873,1904,1861
1872,1868,1822
1878,1867,1816
1867,1888,1890
1869,1890,1884
1893,1869,1807
1914,1875,1827
1920,1918,1938
1867,1889,1904
1840,1853,1814
1813,1831,1744
1817,1811,1766
1847,1826,1859
1882,1839,1841
1919,1875,1809
1899,1869,1886
1887,1868,1980
1855,1840,1790
1889,1856,1753
1910,1935,1904
1893,1917,1928
1846,1833,1823
1855,1826,1803
1917,1856,1899
1887,1872,1915
1854,1855,1822
1843,1829,1763
1857,1858,1908
1871,1829,1899
1902,1862,1875
1904,1870,1854
1855,1858,1814
1867,1911,1818
1866,1930,1871
1879,1883,1887
1882,1856,1917
1840,1808,1851
1867,1838,1872
1882,1804,1813
1874,1842,1910
1851,1877,1868
1861,1871,1744
1888,1904,1806
1887,1855,1959
1899,1877,2007
1904,1893,1838
1841,1808,1726
1808,1808,1817
1852,1837,1910
1899,1856,1868
1888,1853,1811
1861,1890,1826
1883,1920,1888
1862,1866,1851
1841,1791,1798
1860,1840,1843
1881,1872,1911
1870,1842,1841
1870,1838,1783
1863,1856,1864
1874,1887,1969
1904,1910,1903
1866,1837,1889
1850,1853,1917
1837,1869,1865
1840,1793,1776
1854,1808,1757
1872,1882,1829
1875,1904,1878
1840,1830,1841
1873,1829,1862
1865,1841,1891
1833,1840,1855
1834,1811,1809
1870,1870,1853
1889,1926,1877
1896,1936,1917
1843,1776,1858
1856,1761,1759
1865,1849,1808
1856,1873,1871
1843,1831,1862
1847,1798,1775
1891,1857,1867
1877,1890,1963
1875,1840,1894
1867,1830,1767
1892,1901,1883
1870,1877,1879
1854,1862,1873
1905,1861,1830
1850,1837,1831
1821,1807,1856
1863,1843,1811
1859,1858,1808
1870,1873,1937
1854,1844,1875
1849,1805,1862
1839,1823,1751
1856,1850,1853
1883,1872,1927
1884,1851,1853
1873,1857,1838
1884,1883,1893
1902,1883,1905
1876,1855,1801
1887,1839,1813
1866,1859,1852
1856,1872,1843
1865,1872,1878
1871,1853,1862
1865,1873,1890
1849,1876,1948
1857,1865,1791
1887,1845,1693
1843,1831,1858
1818,1813,1860
1858,1871,1840
1894,1883,1859
1882,1872,1872
1856,1861,1896
1885,1851,1866
1890,1842,1831
1904,1893,1857
1900,1919,1893
1888,1883,1881
1852,1827,1777
1829,1826,1821
1855,1861,1890
1888,1840,1910
1879,1839,1766
1919,1927,1829
1813,1886,1825
1811,1817,1797
1861,1792,1839
1904,1869,1880
1874,1885,1875
1856,1855,1788
1875,1851,1811
1879,1877,1870
1865,1903,1903
1872,1879,1852
1911,1893,1814
1901,1902,1840
1915,1921,1984
1835,1833,1857
1840,1825,1806
1837,1793,1757
1841,1860,1839
1828,1819,1822
1877,1834,1849
1871,1859,1812
1868,1866,1818
1841,1811,1837
1856,1845,1840
1869,1895,1865
1900,1915,1872
1879,1853,1823
1871,1834,1798
1867,1879,1933
1872,1875,1898
1872,1861,1834
1906,1859,1764
1936,1915,1872
1874,1903,1876
1887,1899,1899
1877,1856,1850
1827,1834,1808
1843,1871,1869
1855,1835,1847
1858,1843,1824
1862,1853,1846
1835,1824,1943
1826,1811,1746
1845,1839,1713
1873,1906,1905
1899,1939,2062
1901,1866,1893
1860,1786,1728
1831,1798,1744
1854,1861,1911
1872,1865,1866
1886,1877,1851
1886,1901,1909
1894,1922,1889
1863,1887,1806
1904,1906,1855
1874,1861,1830
1787,1789,1842
1808,1775,1761
1855,1823,1751
1870,1872,1872
1856,1861,1912
1869,1847,1846
1903,1826,1811
1898,1895,1859
1884,1905,1897
1871,1855,1872
1833,1792,1782
1871,1835,1833
1866,1885,1904
1874,1866,1863
1931,1938,1861
1921,1926,1888
1825,1825,1851
1839,1839,1845
1819,1808,1789
1858,1839,1885
1879,1908,1923
1873,1887,1872
1851,1816,1779
1833,1817,1824
1824,1872,1849
1865,1894,1830
1895,1884,1847
1883,1888,1891
1869,1855,1922
1793,1759,1738
1779,1814,1751
1867,1868,1867
1854,1886,1933
1880,1854,1867
1872,1872,1819
1922,1915,1897
1844,1871,1913
1872,1856,1830
1856,1871,1814
1942,1951,1905
1867,1917,1907
1842,1795,1836
1793,1779,1767
1880,1876,1853
1840,1872,1849
1865,1902,1890
1948,1866,1874
1799,1807,1779
1806,1814,1808
1827,1830,1827
1839,1882,1903
1914,1941,1896
1879,1907,1893
1840,1840,1814
1873,1834,1807
1953,1917,1910
1883,1892,1875
1863,1809,1792
1776,1791,1775
1814,1855,1892
1859,1897,1889
1904,1903,1879
1824,1806,1783
1818,1842,1792
1872,1873,1861
1883,1873,1815
1879,1872,1837
1881,1901,1931
1842,1825,1895
1811,1798,1783
1853,1822,1801
1902,1882,1888
1881,1887,1879
1808,1839,1787
1860,1856,1807
1927,1892,1902
1857,1845,1877
1882,1872,1888
1863,1833,1811
1813,1807,1778
1823,1847,1838
1845,1841,1793
1862,1837,1822
1893,1894,1913
1920,1895,1943
1866,1824,1813
1818,1847,1787
1910,1845,1846
1885,1854,1899
1909,1875,1851
1869,1872,1812
1792,1856,1839
1847,1873,1895
1939,1891,1882
1952,1907,1900
1850,1840,1854
1751,1804,1820
1817,1824,1765
1834,1888,1794
1892,1885,1905
1861,1879,1903
1810,1837,1795
1887,1839,1790
1872,1872,1872
1852,1876,1862
1846,1839,1791
1895,1856,1830
1904,1904,1935
1886,1910,1891
1861,1846,1829
1868,1859,1791
1886,1902,1907
1861,1875,1911
1826,1825,1779
1817,1808,1776
1895,1854,1874
1883,1872,1936
1805,1820,1798
1850,1808,1742
1915,1881,1907
1867,1870,1898
1802,1864,1808
1958,1899,1808
1905,1905,1871
1879,1856,1905
1827,1803,1843
1837,1820,1817
1883,1895,1845
1920,1906,1919
1897,1847,1872
1917,1858,1876
1833,1851,1787
1776,1812,1776
1821,1850,1798
1889,1873,1857
1920,1886,1903
1872,1866,1904
1805,1808,1758
1805,1809,1819
1871,1887,1863
1808,1863,1887
1863,1811,1846
1911,1843,1815
1865,1902,1869
1883,1889,1889
1932,1878,1852
1952,1863,1835
1910,1882,1866
1771,1908,1897
1847,1842,1826
1941,1861,1838
1826,1872,1895
1718,1807,1853
1787,1776,1788
1856,1862,1808
1895,1927,1882
1827,1888,1862
1923,1867,1857
1808,1811,1792
1858,1877,1856
1872,1877,1871
1851,1833,1840
1808,1778,1808
1874,1872,1847
1919,1942,1946
1861,1840,1856
1854,1835,1802
1849,1905,1887
1889,1942,1919
1829,1879,1849
1849,1819,1797
1837,1840,1840
1866,1849,1894
1897,1847,1855
1839,1840,1808
1877,1825,1866
1883,1893,1863
1920,1929,1865
1876,1856,1804
1819,1811,1809
1840,1850,1872
1875,1855,1845
1968,1876,1843
1853,1873,1875
1919,1863,1856
1823,1826,1830
1871,1840,1883
1889,1885,1823
1744,1875,1808
1858,1853,1869
1884,1871,1826
1872,1887,1865
1907,1963,2002
1840,1887,1785
1813,1821,1697
1855,1832,1825
1872,1871,1923
1872,1865,1904
1869,1856,1842
1885,1887,1847
1856,1893,1835
1863,1841,1806
1872,1839,1845
1856,1862,1860
1872,1890,1863
1840,1838,1821
1917,1875,1854
1903,1913,1895
1842,1869,1827
1818,1808,1788
1839,1819,1763
1893,1906,1873
1920,1922,2027
1859,1829,1795
1811,1813,1742
1856,1872,1843
1855,1867,1826
1835,1858,1846
1883,1879,1840
1914,1921,1889
1883,1874,1904
1831,1794,1825
1844,1818,1781
1897,1893,1819
1859,1849,1872
1875,1881,1885
1872,1895,1779
1840,1874,1827
1834,1842,1872
1872,1859,1867
1903,1890,1835
1914,1915,1857
1843,1846,1855
1841,1833,1833
1875,1852,1813
1910,1895,1797
1802,1818,1810
1803,1856,1847
1876,1867,1813
1883,1866,1844
1889,1889,1890
1897,1877,1929
1835,1856,1766
1827,1840,1749
1840,1841,1871
1838,1808,1792
1838,1821,1776
1872,1890,1835
1879,1894,1915
1882,1867,1840
1869,1854,1813
1872,1874,1840
1858,1897,1905
1794,1840,1784
1813,1824,1711
1847,1875,1834
1890,1922,1966
1871,1843,1901
1862,1884,1779
1858,1872,1804
1875,1926,1911
1871,1873,1815
1833,1791,1777
1834,1803,1831
1859,1859,1871
1890,1871,1845
1898,1904,1838
1859,1911,1856
1872,1874,1845
1873,1824,1771
1816,1765,1770
1824,1840,1925
1872,1905,1936
1865,1855,1765
1898,1897,1776
1908,1942,1881
1866,1895,1858
1894,1875,1952
1854,1827,1818
1847,1855,1871
1875,1903,1875
1871,1889,1774
1839,1818,1777
1821,1794,1840
1811,1808,1792
1863,1827,1835
1890,1863,1870
1879,1872,1903
1847,1868,1812
1866,1851,1770
1872,1856,1801
1879,1893,1841
1875,1909,1895
1893,1923,1890
1904,1897,1890
1888,1840,1818
1867,1850,1913
1872,1909,1872
1862,1882,1728
1899,1821,1840
1878,1803,1899
1847,1858,1861
1843,1872,1783
1883,1883,1872
1883,1851,1890
1905,1890,1910
1910,1877,1833
1856,1841,1799
1852,1842,1849
1858,1829,1804
1854,1839,1829
1888,1916,1880
1874,1893,1878
1872,1843,1808
1863,1877,1813
1889,1947,2007
1879,1889,1919
1872,1792,1777
1863,1801,1775
1889,1874,1932
1901,1904,1917
1877,1883,1808
1852,1811,1774
1869,1872,1872
1905,1933,1942
1853,1855,1842
1837,1776,1789
1871,1811,1876
1895,1874,1945
1904,1881,1834
1883,1853,1786
1873,1849,1855
1823,1819,1829
1847,1835,1789
1911,1913,1823
1909,1892,1921
1858,1835,1945
1886,1847,1883
1886,1865,1815
1872,1863,1824
1847,1817,1854
1861,1826,1802
1866,1827,1791
1912,1899,1913
1908,1911,1951
1872,1930,1834
1863,1845,1794
1914,1877,1902
1867,1839,1879
1826,1793,1807
1838,1802,1743
1865,1806,1819
1876,1818,1909
1872,1904,1857
1856,1839,1785
1873,1912,1872
1883,1959,1918
1877,1856,1852
1901,1885,1804
1872,1909,1845
1872,1867,1927
1873,1770,1966
1904,1822,1923
1913,1920,1824
1889,1956,1795
1843,1773,1774
1872,1845,1822
1925,1911,1921
1905,1863,1951
1819,1776,1805
1857,1849,1792
1925,1920,1878
1861,1899,1917
1850,1791,1846
1867,1813,1779
1872,1899,1851
1867,1879,1863
1861,1861,1795
1920,1854,1853
1883,1847,1886
1846,1829,1898
1856,1870,1853
1868,1817,1831
1883,1876,1863
1886,1905,1894
1894,1872,1853
1917,1872,1791
1902,1865,1838
1872,1862,1894
1874,1826,1841
1867,1827,1846
1880,1905,1850
1886,1881,1871
1887,1838,1857
1914,1861,1891
1872,1853,1826
1855,1840,1825
1874,1863,1841
1909,1846,1859
1889,1840,1859
1922,1930,1902
1868,1872,1815
1797,1748,1745
1846,1807,1846
1885,1917,1903
1899,1859,1828
1887,1821,1863
1889,1921,1962
1894,1899,1891
1856,1795,1679
1840,1757,1734
1887,1878,1899
1855,1865,1886
1915,1875,1879
1962,1922,1856
1841,1829,1806
1822,1818,1847
1867,1843,1897
1872,1823,1808
1851,1839,1760
1856,1822,1821
1871,1840,1901
1937,1951,1893
1924,1904,1843
1858,1809,1840
1829,1787,1744
1843,1821,1801
1885,1877,1988
1901,1876,1947
1930,1888,1870
1899,1874,1789
1904,1876,1790
1833,1800,1812
1802,1765,1778
1840,1870,1802
1938,1938,2021
1936,1872,2001
1862,1809,1728
1859,1856,1751
1856,1885,1854
1893,1996,2013
1910,1709,1878
1890,1878,1691
1874,1869,1821
1893,1901,1890
1923,1879,1840
1856,1803,1776
1842,1879,1902
1840,1879,1857
1858,1822,1805
1863,1763,1853
1869,1816,1899
1874,1856,1854
1945,1931,1925
1895,1841,1775
1893,1835,1854
1891,1854,1943
1850,1840,1779
1853,1856,1729
1866,1857,1862
1877,1873,1923
1889,1840,1872
1921,1887,1798
1904,1885,1814
1806,1760,1811
1795,1821,1859
1882,1779,1829
1893,1797,1859
1840,1799,1815
1865,1835,1858
1900,1900,1856
1891,1868,1885
1917,1910,1920
1918,1904,1858
1903,1881,1806
1936,1979,1925
1857,1879,1895
1775,1773,1717
1851,1837,1805
1888,1865,1910
1877,1893,1907
1839,1829,1835
1850,1840,1751
1882,1908,1822
1885,1879,1867
1881,1822,1881
1872,1840,1841
1933,1955,1968
1881,1939,1915
1840,1831,1796
1882,1932,1783
1905,1898,1885
1900,1847,1917
1913,1838,1800
1850,1809,1769
1814,1840,1866
1827,1911,1873
1859,1843,1823
1903,1872,1826
1895,1877,1854
1907,1893,1920
1899,1808,1939
1858,1837,1828
1838,1966,1771
1859,1962,1866
1873,1849,1843
1899,1882,1835
1905,1895,1887
1879,1885,1897
1837,1863,1811
1880,1877,1830
1885,1860,1911
1904,1906,2123
1856,1815,1810
1830,1794,1641
1888,1866,1837
1831,1831,1863
1871,1858,1842
1872,1873,1855
1901,1915,1903
1865,1869,1886
1837,1818,1797
1898,1837,1907
1895,1860,1902
1839,1851,1810
1862,1838,1833
1870,1839,1805
1873,1887,1861
1898,1920,1913
1872,1859,1853
1856,1834,1796
1883,1892,1899
1911,1879,1938
1882,1835,1855
1863,1838,1825
1886,1894,1936
1874,1859,1879
1831,1856,1728
1856,1872,1767
1883,1874,1879
1904,1882,1968
1905,1878,1872
1879,1841,1815
1871,1857,1911
1872,1872,1890
1870,1857,1838
1891,1879,1875
1881,1877,1845
1850,1850,1883
1878,1856,1839
1918,1911,1831
1861,1858,1833
1814,1825,1870
1881,1861,1863
1894,1885,1825
1902,1883,1925
1899,1866,1927
1872,1854,1840
1885,1863,1809
1873,1856,1843
1857,1885,1962
1838,1872,1797
1850,1822,1722
1877,1879,1866
1902,1913,1936
1862,1864,1819
1870,1874,1815
1875,1863,1906
1856,1872,1924
1810,1833,1789
1855,1842,1842
1902,1899,1861
1872,1908,1857
1869,1875,1837
1898,1835,1815
1859,1847,1856
1843,1891,1907
1844,1865,1790
1882,1879,1819
1911,1904,1911
1917,1936,1936
1850,1835,1805
1832,1779,1789
1869,1859,1906
1911,1878,1915
1882,1823,1850
1866,1846,1793
1856,1915,1823
1867,1904,1853
1858,1823,1859
1887,1845,1851
1854,1872,1819
1821,1845,1833
1856,1883,1888
1900,1891,1840
1920,1875,1887
1880,1891,1883
1876,1843,1890
1859,1840,1791
1895,1920,1893
1895,1918,1943
1871,1871,1785
1877,1887,1779
1850,1872,1817
1840,1856,1871
1843,1846,1846
1893,1856,1835
1873,1865,1803
1817,1847,1880
1840,1859,1840
1872,1826,1805
1894,1864,1910
1880,1888,1925
1883,1872,1889
1876,1873,1806
1872,1893,1897
1856,1882,1899
1861,1858,1770
1876,1856,1778
1935,1925,1920
1856,1896,1885
1826,1862,1792
1846,1860,1808
1833,1852,1822
1804,1813,1764
1867,1859,1794
1902,1888,1811
1860,1872,1823
1813,1842,1860
1851,1851,1875
1869,1854,1822
1899,1898,1882
1855,1872,1872
1838,1842,1838
1877,1884,1846
1872,1877,1842
1891,1951,1922
1914,1957,1875
1839,1802,1799
1825,1823,1808
1882,1904,1900
1857,1802,1777
1855,1839,1791
1886,1930,1835
1886,1879,1872
1807,1792,1790
1808,1805,1759
1851,1927,1824
1834,1878,1851
1830,1806,1794
1861,1806,1814
1890,1870,1981
1893,1893,1863
1838,1856,1793
1856,1902,1771
1872,1920,1863
1869,1856,1875
1909,1901,1892
1851,1840,1810
