1859,1885,1847
1779,1771,1719
1757,1748,1698
1841,1841,1789
1855,1843,1841
1847,1843,1796
1846,1839,1751
1857,1856,1833
1870,1872,1894
1819,1840,1766
1826,1834,1785
1856,1863,1825
1870,1903,1893
1861,1873,1851
1815,1824,1779
1843,1842,1826
1856,1872,1847
1837,1840,1794
1835,1851,1835
1819,1846,1807
1836,1872,1840
1875,1928,1858
1869,1905,1779
1814,1839,1803
1823,1866,1805
1838,1871,1744
1808,1854,1756
1854,1893,1839
1868,1923,1914
1809,1866,1793
1813,1861,1773
1872,1919,1871
1855,1905,1878
1855,1907,1840
1825,1902,1793
1842,1909,1831
1850,1910,1859
1872,1921,1858
1841,1887,1808
1795,1858,1792
1821,1886,1825
1840,1904,1826
1845,1902,1781
1870,1929,1868
1868,1946,1891
1872,1939,1850
1898,1968,1857
1851,1929,1823
1834,1904,1847
1824,1871,1772
1802,1863,1755
1850,1932,1845
1902,1977,1931
1851,1934,1846
1838,1906,1793
1855,1933,1849
1862,1947,1882
1837,1906,1823
1821,1879,1783
1858,1931,1865
1906,1990,1872
1871,1945,1827
1813,1888,1791
1823,1895,1786
1856,1925,1911
1876,1935,1840
1842,1895,1787
1821,1903,1808
1853,1936,1846
1839,1901,1839
1835,1887,1773
1857,1926,1823
1872,1936,1906
1881,1937,1766
1872,1938,1793
1878,1936,1890
1863,1903,1898
1797,1840,1792
1840,1910,1872
1865,1934,1842
1778,1839,1803
1790,1833,1743
1846,1887,1815
1871,1913,1876
1856,1913,1925
1843,1891,1842
1840,1894,1807
1872,1931,1845
1876,1955,1906
1853,1914,1853
1853,1904,1814
1851,1882,1851
1828,1869,1858
1891,1920,1879
1872,1907,1839
1805,1840,1785
1821,1863,1856
1824,1858,1798
1898,1923,1854
1915,1965,1917
1833,1896,1835
1778,1822,1762
1797,1825,1759
1819,1840,1840
1840,1865,1893
1850,1876,1859
1848,1882,1825
1855,1891,1881
1904,1920,1931
1840,1867,1839
1814,1840,1808
1873,1898,1878
1850,1872,1873
1856,1902,1872
1855,1892,1840
1856,1885,1877
1849,1874,1891
1817,1844,1827
1854,1867,1828
1890,1925,1899
1897,1942,1925
1837,1867,1835
1779,1808,1758
1829,1856,1840
1921,1947,1957
1817,1822,1814
1794,1821,1773
1840,1869,1853
1814,1838,1851
1824,1825,1808
1841,1845,1807
1879,1902,1888
1859,1874,1895
1840,1858,1839
1846,1858,1808
1856,1863,1854
1869,1886,1894
1837,1830,1820
1820,1821,1785
1865,1879,1872
1867,1877,1883
1841,1855,1829
1897,1909,1855
1870,1881,1872
1773,1833,1849
1809,1809,1803
1872,1834,1798
1926,1884,1878
1929,1918,1926
1840,1883,1856
1835,1819,1771
1795,1826,1821
1842,1869,1890
1876,1879,1858
1855,1846,1807
1888,1872,1875
1900,1875,1906
1901,1903,1889
1889,1850,1835
1793,1829,1824
1873,1840,1872
1845,1823,1833
1850,1840,1828
1857,1877,1891
1903,1897,1910
1870,1860,1850
1837,1831,1810
1871,1856,1877
1850,1867,1903
1862,1872,1854
1853,1813,1783
1857,1857,1863
1901,1904,1927
1798,1859,1840
1851,1839,1808
1857,1850,1859
1862,1904,1919
1872,1854,1847
1815,1831,1793
1847,1840,1841
1850,1854,1879
1843,1840,1840
1845,1838,1813
1879,1872,1886
1904,1913,1935
1855,1875,1865
1847,1845,1808
1854,1824,1831
1877,1855,1872
1859,1863,1851
1841,1840,1808
1856,1855,1862
1869,1869,1898
1870,1854,1858
1901,1872,1855
1882,1885,1890
1830,1860,1881
1826,1793,1805
1836,1817,1804
1840,1869,1883
1899,1890,1923
1861,1888,1879
1851,1859,1816
1904,1858,1855
1875,1833,1867
1795,1808,1805
1855,1821,1804
1840,1873,1883
1886,1885,1910
1903,1862,1858
1812,1841,1805
1895,1881,1873
1925,1892,1904
1883,1891,1865
1867,1886,1826
1839,1874,1865
1870,1851,1866
1840,1872,1843
1888,1851,1818
1898,1863,1846
1853,1867,1851
1872,1861,1831
1855,1831,1794
1877,1859,1859
1870,1872,1875
1869,1854,1830
1859,1861,1809
1889,1890,1881
1881,1897,1901
1883,1907,1856
1869,1872,1825
1799,1867,1852
1813,1856,1858
1841,1872,1835
1914,1936,1866
1993,1968,1951
1815,1825,1823
1744,1765,1726
1856,1820,1767
1872,1919,1885
1845,1857,1853
1836,1823,1823
1883,1857,1828
1923,1920,1888
1885,1888,1890
1851,1841,1813
1845,1833,1783
1890,1892,1861
1908,1943,1890
1873,1888,1825
1899,1835,1827
1887,1878,1877
1868,1929,1860
1884,1853,1792
1883,1798,1785
1872,1845,1842
1927,1903,1867
1904,1941,1824
1913,1913,1815
1862,1808,1856
1850,1801,1869
1843,1818,1811
1872,2027,1810
1962,2037,1887
1904,1747,1872
1923,1719,1827
1761,1785,1799
1902,1859,1872
1862,1860,1872
1884,1856,1838
1797,1770,1757
1866,1814,1842
1910,1866,1899
1909,1859,1841
1899,1850,1826
1936,1853,1857
1876,1858,1869
1882,1863,1823
1969,1871,1842
1909,1856,1881
1936,1907,1907
1933,1903,1776
1853,1779,1770
1901,1813,1877
1888,1819,1904
1891,1840,1851
1904,1847,1808
1906,1828,1827
1875,1808,1836
1914,1798,1809
1851,1819,1773
1883,1851,1813
1897,1855,1904
1835,1822,1858
1855,1833,1801
1920,1862,1843
1931,1872,1924
1851,1822,1857
1876,1823,1814
1904,1904,1899
1968,1858,1906
1846,1817,1802
1933,1839,1799
2073,1870,1847
1955,1901,1926
1803,1855,1885
1793,1810,1808
1840,1867,1872
1862,1872,1879
1883,1872,1843
1859,1838,1825
1840,1835,1846
1847,1858,1865
1841,1841,1833
1904,1905,1856
1923,1917,1905
1872,1879,1891
1787,1802,1798
1823,1824,1786
1911,1924,1904
1911,1930,1937
1838,1850,1840
1821,1841,1819
1859,1899,1847
1872,1890,1872
1855,1871,1829
1856,1877,1839
1919,1936,1923
1915,1953,1953
1866,1895,1877
1831,1861,1797
1870,1901,1843
1905,1951,1925
1853,1856,1872
1854,1850,1886
1871,1887,1921
1865,1906,1803
1860,1888,1772
1875,1892,1808
1907,1924,1899
1910,1939,1926
1885,1918,1865
1902,1915,1847
1906,1949,1890
1872,1906,1874
1854,1899,1835
1869,1915,1833
1965,2019,1961
1947,2014,1966
1797,1846,1776
1788,1825,1738
1860,1895,1842
1899,1935,1908
1890,1927,1867
1885,1925,1852
1911,1957,1917
1901,1944,1919
1872,1936,1853
1868,1915,1822
1949,1974,1926
1918,1971,1921
1834,1855,1807
1838,1859,1786
1903,1935,1885
1950,1978,1941
1872,1893,1829
1823,1863,1759
1861,1897,1839
1872,1911,1878
1873,1903,1840
1887,1914,1833
1930,1953,1902
1892,1918,1894
1874,1891,1837
1905,1936,1839
1918,1965,1897
1893,1908,1886
1839,1846,1805
1858,1869,1797
1904,1916,1882
1916,1934,1915
1920,1931,1875
1872,1887,1819
1847,1872,1830
1881,1901,1888
1891,1904,1858
1888,1904,1827
1872,1904,1861
1872,1901,1883
1861,1879,1839
1887,1904,1840
1907,1927,1892
1906,1936,1921
1856,1872,1840
1849,1854,1797
1882,1879,1867
1894,1891,1903
1875,1879,1851
1889,1890,1840
1914,1919,1903
1900,1905,1898
1895,1881,1846
1903,1890,1839
1915,1911,1889
1918,1927,1906
1880,1885,1840
1877,1872,1813
1904,1920,1885
1886,1902,1891
1871,1885,1831
1840,1822,1776
1853,1832,1811
1841,1846,1828
1862,1871,1831
1887,1873,1826
1899,1872,1857
1882,1866,1867
1855,1851,1823
1873,1877,1809
1909,1904,1876
1888,1870,1872
1860,1851,1808
1875,1867,1810
1916,1914,1890
1914,1908,1905
1877,1855,1827
1887,1859,1816
1882,1861,1853
1884,1867,1873
1895,1887,1850
1895,1883,1832
1894,1886,1862
1893,1873,1881
1842,1825,1808
1893,1871,1836
1908,1904,1877
1863,1850,1861
1808,1789,1774
1830,1812,1766
1872,1858,1840
1893,1872,1879
1882,1865,1840
1861,1844,1806
1877,1861,1856
1877,1863,1872
1877,1850,1821
1879,1863,1814
1904,1892,1871
1901,1883,1890
1908,1883,1869
1904,1877,1840
1873,1877,1857
1808,1805,1815
1824,1803,1788
1874,1857,1804
1840,1819,1810
1840,1818,1835
1865,1840,1818
1872,1846,1808
1918,1930,1888
1903,1859,1890
1861,1811,1824
1839,1814,1783
1881,1860,1856
1912,1872,1910
1811,1774,1780
1775,1789,1723
1832,1782,1810
1874,1872,1872
1858,1878,1821
1877,1877,1825
1899,1837,1872
1894,1891,1894
1869,1797,1827
1882,1874,1823
1933,1935,1899
1897,1907,1894
1801,1799,1776
1813,1753,1773
1877,1837,1861
1912,1895,1915
1890,1867,1851
1839,1811,1779
1836,1821,1820
1868,1830,1868
1874,1847,1846
1867,1840,1814
1861,1839,1850
1859,1838,1872
1827,1837,1805
1859,1840,1808
1904,1901,1883
1926,1901,1921
1821,1798,1783
1808,1776,1751
1883,1853,1857
1854,1847,1851
1819,1838,1812
1841,1853,1810
1874,1867,1855
1891,1892,1904
1843,1834,1830
1826,1806,1790
1838,1837,1828
1837,1835,1858
1776,1771,1759
1809,1803,1775
1868,1844,1851
1850,1840,1865
1833,1829,1823
1840,1779,1805
1871,1840,1857
1872,1867,1886
1853,1859,1846
1857,1893,1827
1909,1900,1900
1892,1877,1908
1826,1858,1808
1789,1745,1743
1849,1824,1824
1873,1837,1887
1875,1859,1861
1822,1814,1785
1851,1808,1834
1895,1881,1886
1847,1883,1828
1849,1858,1813
1872,1845,1854
1856,1831,1857
1845,1839,1834
1867,1860,1827
1889,1891,1866
1909,1894,1903
1893,1871,1857
1826,1856,1780
1838,1810,1808
1890,1845,1883
1898,1887,1865
1854,1858,1797
1822,1805,1799
1834,1828,1845
1826,1829,1815
1831,1825,1812
1878,1859,1872
1877,1872,1886
1855,1865,1843
1857,1872,1839
1902,1878,1889
1917,1908,1918
1887,1906,1882
1827,1888,1808
1827,1851,1815
1854,1779,1843
1815,1871,1809
1830,1819,1807
1897,1893,1868
1850,1878,1843
1819,1839,1824
1836,1841,1826
1856,1838,1840
1871,1847,1873
1827,1836,1829
1840,1851,1827
1876,1879,1874
1865,1861,1875
1835,1853,1835
1840,1860,1830
1874,1851,1874
1899,1900,1910
1872,1981,1874
1854,1879,1839
1854,1824,1840
1833,1853,1838
1794,1784,1792
1815,1845,1819
1867,1923,1862
1870,1845,1872
1850,1870,1856
1855,1850,1840
1885,1889,1866
1872,1913,1872
1824,1883,1810
1799,1843,1782
1858,1856,1842
1891,1857,1891
1874,1943,1856
1831,1851,1798
1877,1883,1856
1882,1767,1872
1872,1906,1856
1865,1879,1831
1833,1795,1819
1861,1855,1862
1837,1853,1835
1846,1873,1824
1891,1911,1867
1852,1823,1856
1807,1819,1801
1840,1813,1822
1893,1872,1873
1899,1897,1904
1851,1872,1854
1823,1830,1795
1869,1851,1854
1883,1872,1887
1861,1886,1851
1873,1885,1841
1872,1802,1849
1899,1875,1899
1849,1865,1847
1808,1786,1793
1825,1808,1805
1845,1817,1849
1840,1845,1838
1873,1872,1841
1907,1879,1877
1875,1850,1873
1840,1878,1831
1832,1838,1808
1878,1846,1863
1898,1959,1904
1846,1867,1846
1825,1744,1802
1872,1874,1859
1873,1869,1886
1854,1887,1851
1862,1891,1840
1891,1909,1879
1882,1904,1899
1836,1865,1835
1850,1866,1814
1887,1903,1871
1839,1860,1852
1808,1840,1799
1861,1871,1823
1863,1877,1855
1838,1855,1862
1824,1867,1829
1806,1837,1792
1846,1854,1851
1851,1869,1876
1836,1840,1829
1840,1851,1821
1872,1881,1874
1877,1890,1895
1858,1882,1853
1890,1919,1856
1945,1951,1935
1837,1839,1845
1802,1827,1782
1846,1854,1809
1890,1891,1883
1896,1904,1910
1870,1894,1858
1845,1855,1815
1872,1873,1855
1869,1872,1876
1854,1872,1841
1869,1888,1819
1858,1856,1842
1840,1847,1850
1843,1845,1823
1867,1847,1814
1869,1872,1857
1863,1877,1873
1848,1869,1830
1866,1872,1828
1904,1903,1892
1902,1910,1910
1857,1871,1833
1831,1840,1781
1877,1878,1858
1865,1856,1865
1831,1841,1807
1861,1870,1821
1850,1855,1841
1848,1862,1857
1862,1879,1850
1851,1867,1819
1895,1898,1886
1843,1867,1858
1811,1840,1799
1837,1851,1798
1866,1853,1849
1879,1872,1890
1871,1883,1855
1905,1913,1871
1861,1872,1842
1834,1839,1827
1813,1815,1778
1843,1832,1803
1897,1887,1887
1890,1890,1899
1855,1878,1835
1851,1859,1811
1871,1872,1866
1895,1907,1913
1861,1870,1844
1838,1837,1792
1847,1854,1841
1879,1887,1893
1879,1881,1855
1871,1875,1825
1904,1904,1882
1856,1854,1849
1818,1835,1790
1872,1887,1840
1899,1904,1897
1872,1889,1882
1846,1857,1827
1856,1842,1807
1886,1881,1863
1911,1914,1909
1857,1872,1829
1860,1857,1808
1876,1881,1867
1889,1886,1893
1903,1888,1861
1894,1894,1841
1872,1877,1856
1839,1830,1836
1834,1829,1806
1881,1871,1824
1927,1913,1899
1911,1901,1903
1855,1875,1816
1831,1817,1771
1852,1849,1828
1882,1872,1879
1861,1856,1840
1863,1853,1819
1890,1902,1873
1901,1904,1911
1858,1862,1838
1840,1841,1799
1862,1850,1841
1872,1850,1870
1858,1855,1843
1859,1865,1819
1879,1885,1871
1893,1888,1904
1862,1860,1840
1874,1872,1840
1872,1852,1845
1873,1856,1867
1827,1840,1793
1840,1862,1804
1871,1843,1855
1862,1833,1874
1840,1831,1823
1851,1853,1814
1872,1871,1868
1877,1878,1901
1861,1869,1853
1876,1872,1840
1891,1878,1882
1879,1872,1887
1856,1872,1841
1856,1851,1823
1878,1867,1869
1866,1857,1872
1852,1845,1825
1872,1869,1837
1869,1859,1856
1863,1857,1872
1862,1843,1835
1873,1851,1829
1934,1933,1918
1920,1920,1935
1806,1797,1778
1786,1776,1744
1854,1846,1851
1895,1877,1904
1874,1868,1852
1872,1855,1820
1888,1872,1872
1860,1839,1824
1836,1821,1819
1853,1834,1783
1870,1843,1856
1877,1856,1889
1863,1847,1867
1881,1866,1856
1893,1872,1914
1876,1863,1923
1825,1831,1840
1843,1840,1837
1895,1873,1872
1880,1872,1911
1843,1840,1801
1845,1840,1850
1888,1863,1918
1872,1859,1891
1861,1862,1831
1891,1904,1823
1879,1863,1856
1841,1840,1840
1834,1840,1814
1829,1824,1755
1817,1804,1808
1845,1840,1825
1840,1818,1818
1844,1831,1794
1872,1866,1903
1874,1871,1901
1838,1839,1837
1841,1854,1766
1882,1886,1872
1872,1872,1840
1871,1871,1872
1861,1845,1783
1850,1837,1840
1847,1843,1859
1852,1842,1823
1856,1846,1822
1889,1872,1867
1867,1855,1841
1835,1837,1843
1851,1849,1809
1904,1911,1889
1902,1904,1904
1826,1839,1783
1850,1851,1792
1854,1840,1841
1838,1821,1846
1811,1807,1795
1851,1829,1791
1883,1867,1868
1882,1882,1840
1875,1874,1842
1843,1835,1809
1863,1858,1842
1898,1883,1877
1849,1856,1840
1853,1841,1810
1879,1860,1839
1858,1843,1902
1841,1843,1843
1863,1857,1808
1873,1869,1847
1870,1872,1890
1834,1840,1787
1853,1858,1810
1870,1862,1859
1882,1897,1913
1840,1837,1826
1847,1831,1856
1867,1839,1863
1828,1840,1839
1817,1808,1850
1840,1834,1809
1879,1866,1888
1872,1866,1861
1859,1847,1840
1859,1856,1832
1885,1869,1843
1872,1860,1882
1829,1833,1813
1847,1843,1815
1889,1883,1883
1872,1870,1877
1850,1853,1825
1872,1872,1827
1869,1871,1845
1834,1839,1872
1805,1797,1771
1819,1824,1740
1872,1866,1855
1872,1865,1968
1863,1859,1935
1854,1861,1827
1857,1878,1836
1829,1854,1806
1823,1841,1820
1851,1853,1828
1881,1875,1883
1884,1879,1895
1826,1836,1808
1841,1844,1808
1872,1879,1866
1911,1920,1923
1840,1827,1814
1825,1808,1786
1866,1869,1845
1883,1877,1853
1833,1837,1808
1815,1819,1778
1853,1841,1842
1871,1863,1842
1856,1847,1823
1872,1875,1808
1887,1873,1862
1863,1844,1869
1833,1826,1804
1855,1850,1872
1899,1911,1905
1886,1881,1886
1813,1814,1865
1840,1840,1778
1883,1879,1840
1895,1882,1872
1846,1840,1797
1855,1846,1805
1881,1871,1865
1870,1871,1882
1854,1858,1875
1874,1879,1839
1881,1876,1923
1859,1861,1876
1830,1831,1877
1838,1840,1817
1886,1872,1890
1887,1883,1885
1856,1856,1837
1868,1856,1827
1872,1856,1923
1827,1822,1837
1789,1792,1806
1837,1846,1796
1872,1859,1863
1870,1865,1891
1851,1841,1817
1863,1841,1779
1901,1878,1876
1876,1866,1859
1840,1840,1808
1842,1840,1808
1878,1861,1779
1872,1863,1866
1856,1851,1813
1869,1870,1793
1888,1873,1859
1851,1840,1909
1842,1839,1808
1867,1857,1819
1863,1851,1831
1827,1829,1835
1823,1833,1806
1868,1874,1879
1904,1886,1882
1860,1862,1858
1815,1817,1776
1832,1820,1793
1843,1836,1835
1845,1845,1843
1841,1856,1811
1877,1881,1840
1884,1866,1867
1855,1854,1854
1825,1836,1806
1845,1850,1814
1856,1860,1851
1845,1850,1856
1834,1838,1811
1847,1849,1806
1877,1882,1865
1873,1885,1874
1856,1876,1823
1870,1883,1823
1857,1857,1845
1843,1854,1850
1843,1859,1823
1877,1904,1842
1890,1905,1867
1840,1855,1838
1782,1798,1767
1808,1815,1778
1859,1883,1859
1835,1851,1851
1795,1810,1786
1887,1846,1808
1906,1872,1863
1897,1859,1855
1868,1846,1808
1839,1866,1817
1855,1886,1871
1871,1886,1879
1874,1861,1821
1886,1870,1813
1912,1871,1853
1862,1856,1845
1820,1845,1806
1894,1883,1840
1947,1926,1911
1865,1855,1846
1840,1799,1757
1786,1823,1759
1879,1844,1833
1823,1840,1841
1813,1799,1766
1811,1825,1777
1869,1867,1857
1875,1875,1872
1841,1859,1819
1875,1862,1808
1916,1886,1866
1899,1882,1873
1845,1856,1818
1810,1845,1797
1895,1871,1863
1877,1885,1881
1874,1884,1846
1849,1838,1806
1829,1842,1835
1856,1863,1869
1839,1840,1813
1850,1867,1821
1898,1915,1888
1878,1898,1877
1743,1788,1734
1779,1803,1744
1856,1828,1844
1859,1841,1869
1829,1839,1822
1872,1857,1823
1862,1854,1858
1844,1843,1841
1814,1827,1793
1843,1853,1807
1908,1888,1878
1875,1881,1881
1806,1856,1820
1831,1863,1808
1881,1881,1861
1893,1872,1872
1887,1877,1831
1936,1883,1835
1826,1872,1847
1813,1863,1851
1872,1891,1826
1853,1872,1805
1872,1868,1850
1840,1850,1871
1791,1788,1763
1818,1825,1786
1856,1852,1846
1861,1881,1878
1877,1866,1826
1863,1884,1833
1878,1893,1869
1889,1899,1888
1828,1858,1814
1887,1850,1808
1891,1873,1872
1882,1897,1884
1855,1870,1822
1884,1874,1831
1891,1881,1883
1857,1864,1872
1840,1854,1815
1875,1879,1833
1927,1930,1903
1891,1900,1887
1812,1814,1793
1843,1808,1777
1896,1888,1877
1886,1893,1893
1817,1867,1826
1791,1853,1802
1851,1883,1878
1916,1904,1921
1869,1874,1853
1827,1854,1804
1902,1874,1863
1899,1907,1899
1795,1891,1855
1809,1862,1819
1859,1846,1853
1870,1857,1869
1873,1874,1841
1860,1853,1811
1859,1856,1843
1869,1888,1873
1859,1881,1839
1842,1862,1805
1878,1887,1863
1890,1889,1880
1823,1860,1825
1837,1863,1830
1873,1887,1886
1895,1894,1904
1890,1904,1858
1918,1883,1839
1871,1885,1873
1869,1851,1871
1805,1814,1797
1842,1843,1810
1926,1878,1872
1871,1895,1893
1899,1858,1795
1872,1861,1812
1953,1889,1883
1947,1887,1898
1909,1860,1834
1808,1854,1808
1890,1889,1867
1885,1901,1888
1854,1858,1840
1890,1902,1851
1910,1904,1890
1855,1863,1873
1829,1835,1806
1831,1834,1779
1855,1856,1840
1867,1878,1872
1858,1887,1826
1903,1859,1807
1850,1865,1859
1901,1891,1898
1859,1863,1824
1809,1831,1772
1856,1849,1837
1869,1871,1863
1844,1863,1817
1845,1872,1821
1889,1884,1869
1851,1886,1890
1849,1859,1830
1859,1867,1825
1872,1890,1877
1890,1897,1899
1968,1911,1871
1842,1852,1803
1929,1872,1846
1861,1856,1860
1807,1846,1824
1875,1870,1831
1894,1882,1888
1835,1863,1872
1855,1835,1808
1872,1840,1811
1897,1886,1872
1890,1891,1892
1877,1893,1866
1855,1856,1820
1856,1840,1831
1839,1836,1831
1820,1844,1819
1869,1878,1855
1875,1865,1868
1842,1840,1855
1833,1841,1819
1865,1888,1839
1904,1902,1890
1872,1849,1867
1851,1840,1830
1866,1851,1837
1904,1875,1887
1879,1871,1891
1866,1872,1854
1843,1839,1813
1878,1853,1867
1878,1846,1872
1850,1842,1827
1899,1883,1851
1893,1893,1872
1882,1866,1874
1833,1827,1809
1825,1822,1782
1876,1863,1863
1904,1877,1904
1862,1862,1852
1873,1871,1842
1873,1856,1865
1878,1872,1892
1858,1872,1850
1879,1882,1840
1904,1883,1889
1870,1847,1872
1840,1840,1826
1845,1845,1814
1881,1878,1872
1899,1905,1905
1872,1882,1857
1862,1854,1827
1850,1834,1830
1862,1855,1871
1857,1858,1856
1853,1854,1811
1883,1867,1856
1873,1872,1881
1858,1870,1844
1872,1859,1836
1894,1882,1873
1894,1907,1895
1829,1840,1827
1840,1833,1819
1887,1870,1888
1885,1875,1899
1865,1879,1860
1875,1874,1849
1916,1916,1907
1866,1876,1872
1799,1803,1782
1833,1831,1797
1887,1870,1875
1874,1863,1885
1840,1850,1840
1872,1866,1847
1893,1877,1883
1895,1895,1909
1856,1871,1856
1837,1854,1811
1872,1871,1865
1858,1841,1867
1825,1824,1825
1862,1841,1829
1908,1875,1885
1882,1873,1879
1838,1850,1825
1847,1843,1825
1855,1840,1841
1859,1856,1871
1853,1867,1845
1835,1845,1811
1859,1842,1842
1866,1863,1872
1866,1903,1855
1863,1879,1837
1872,1858,1859
1859,1840,1865
1840,1847,1840
1882,1890,1858
1889,1861,1872
1858,1844,1858
1826,1839,1811
1840,1856,1809
1896,1893,1886
1871,1851,1875
1808,1813,1797
1829,1841,1803
1883,1858,1871
1856,1861,1865
1821,1833,1813
1847,1835,1820
1879,1857,1862
1882,1867,1888
1862,1865,1850
1873,1861,1840
1890,1868,1873
1863,1858,1863
1845,1845,1827
1865,1859,1827
1886,1855,1859
1886,1866,1875
1858,1872,1840
1824,1829,1797
1846,1822,1834
1860,1850,1866
1855,1852,1842
1891,1879,1855
1866,1836,1837
1865,1845,1849
1834,1844,1810
1854,1859,1824
1872,1856,1853
1870,1840,1862
1837,1837,1822
1850,1852,1824
1873,1857,1859
1872,1868,1872
1856,1867,1838
1870,1872,1839
1883,1871,1860
1903,1881,1893
1817,1814,1797
1829,1819,1796
1878,1843,1853
1861,1840,1856
1843,1861,1834
1876,1872,1836
1874,1847,1841
1868,1847,1854
1877,1892,1855
1822,1834,1791
1838,1809,1810
1847,1821,1839
1839,1828,1815
1856,1855,1826
1894,1869,1879
1870,1846,1870
1839,1840,1822
1841,1845,1810
1887,1861,1858
1891,1853,1892
1852,1856,1840
1827,1782,1798
1840,1841,1815
1839,1872,1840
1830,1869,1823
1840,1840,1825
1870,1854,1855
1846,1817,1845
1832,1871,1813
1843,1859,1825
1879,1904,1872
1899,1923,1886
1876,1939,1862
1838,1827,1816
1835,1790,1824
1851,1840,1845
1836,1808,1817
1856,1829,1835
1909,1921,1899
1871,1872,1872
1798,1813,1783
1835,1819,1799
1854,1840,1837
1856,1850,1855
1827,1835,1815
1851,1818,1808
1874,1849,1846
1850,1834,1830
1834,1855,1808
1852,1865,1823
1875,1851,1858
1859,1851,1865
1845,1871,1838
1873,1875,1842
1887,1812,1869
1827,1847,1834
1808,1840,1799
1834,1810,1799
1867,1819,1836
1878,1858,1849
1829,1825,1797
1837,1817,1801
1883,1844,1856
1900,1866,1887
1872,1869,1840
1843,1815,1803
1863,1843,1831
1870,1840,1843
1849,1849,1817
1850,1856,1809
1881,1844,1845
1872,1904,1852
1889,1881,1859
1841,1859,1807
1823,1751,1792
1861,1845,1840
1861,1837,1819
1833,1807,1792
1856,1807,1831
1870,1901,1859
1856,1865,1839
1847,1838,1822
1899,1849,1866
1887,1884,1873
1835,1863,1819
1840,1825,1808
1855,1775,1834
1837,1815,1824
1826,1846,1810
1856,1858,1825
1905,1900,1877
1903,1851,1888
1847,1829,1831
1833,1942,1810
1837,1810,1825
1825,1807,1815
1851,1843,1831
1853,1846,1804
1865,1838,1826
1855,1846,1846
1834,1842,1807
1859,1867,1837
1874,1863,1866
1872,1861,1862
1851,1857,1831
1861,1901,1826
1873,1903,1857
1877,1897,1865
1835,1815,1809
1840,1852,1799
1882,1866,1863
1888,1883,1891
1847,1857,1836
1867,1833,1827
1883,1882,1860
1840,1863,1840
1810,1856,1808
1840,1865,1808
1869,1776,1861
1867,1855,1878
1854,1855,1842
1871,1875,1841
1875,1872,1858
1876,1877,1873
1857,1859,1835
1868,1856,1813
1890,1883,1855
1862,1847,1861
1842,1840,1818
1856,1818,1813
1870,1870,1856
1871,1842,1874
1841,1814,1826
1872,1805,1841
1899,1935,1893
1860,1842,1872
1842,1846,1808
1851,1931,1817
1856,1840,1867
1847,1817,1872
1840,1889,1833
1855,1869,1840
1888,1792,1900
1874,1875,1893
1843,1821,1820
1867,1850,1830
1879,1869,1890
1877,1863,1894
1862,1869,1840
1859,1875,1826
1882,1930,1882
1872,1878,1891
1893,1915,1873
1901,1917,1867
1841,1840,1843
1840,1840,1840
1870,1815,1823
1904,1869,1851
1862,1866,1855
1835,1835,1856
1837,1856,1811
1845,1831,1808
1859,1920,1855
1872,1874,1875
1856,1867,1834
1874,1840,1839
1897,1895,1891
1878,1879,1877
1856,1867,1822
1870,1866,1840
1901,1888,1902
1883,1904,1893
1867,1856,1829
1870,1836,1824
1886,1879,1874
1884,1890,1895
1890,1904,1864
1901,1929,1862
1879,1921,1863
1866,1835,1859
1850,1824,1802
1874,1851,1824
1861,1879,1859
1846,1852,1858
1850,1827,1813
1855,1822,1809
1871,1846,1867
1869,1867,1861
1871,1851,1825
1882,1877,1840
1895,1921,1877
1865,1842,1856
1827,1774,1779
1872,1818,1813
1897,1873,1887
1867,1865,1863
1840,1812,1781
1863,1854,1790
1910,1895,1873
1856,1843,1850
1829,1815,1791
1891,1899,1836
1892,1886,1873
1835,1833,1822
1815,1815,1776
1859,1851,1806
1886,1879,1872
1871,1872,1878
1855,1845,1810
1872,1861,1823
1900,1891,1879
1891,1890,1895
1856,1840,1822
1873,1850,1806
1882,1876,1871
1883,1882,1878
1872,1871,1831
1859,1839,1792
1871,1861,1858
1874,1885,1895
1877,1875,1856
1847,1840,1799
1861,1858,1835
1865,1872,1858
1857,1855,1811
1872,1870,1811
1890,1901,1872
1885,1875,1872
1862,1853,1810
1872,1875,1814
1893,1904,1883
1891,1901,1877
1875,1890,1819
1917,1918,1847
1880,1881,1871
1840,1843,1842
1825,1833,1785
1850,1852,1799
1904,1922,1893
1887,1896,1871
1853,1855,1813
1867,1877,1825
1898,1911,1872
1888,1886,1854
1851,1856,1799
1865,1878,1824
1877,1911,1881
1875,1899,1872
1861,1872,1808
1873,1871,1808
1886,1894,1851
1873,1887,1847
1869,1863,1826
1888,1875,1834
1902,1895,1866
1874,1886,1853
1852,1866,1799
1868,1884,1807
1899,1904,1871
1882,1885,1875
1856,1851,1813
1868,1867,1819
1888,1899,1872
1890,1894,1872
1870,1866,1811
1877,1874,1814
1899,1902,1872
1879,1890,1872
1862,1865,1812
1877,1877,1818
1897,1899,1872
1889,1887,1872
1867,1850,1812
1871,1861,1809
1885,1889,1872
1873,1878,1878
1855,1856,1813
1870,1861,1809
1901,1881,1865
1888,1872,1866
1854,1844,1803
1879,1857,1803
1901,1879,1875
1894,1874,1878
1873,1853,1813
1879,1857,1815
1904,1874,1867
1895,1870,1869
1873,1840,1808
1883,1859,1820
1910,1883,1879
1897,1873,1877
1872,1847,1808
1895,1863,1817
1901,1879,1873
1894,1872,1875
1880,1840,1815
1894,1854,1829
1904,1872,1886
1898,1859,1881
1875,1829,1822
1888,1841,1823
1902,1869,1879
1885,1854,1882
1866,1812,1814
1881,1825,1827
1906,1855,1892
1894,1840,1893
1865,1817,1823
1879,1822,1821
1904,1843,1887
1893,1836,1888
1875,1802,1823
1893,1814,1828
1909,1847,1889
1905,1838,1889
1885,1804,1824
1903,1812,1829
1907,1843,1886
1895,1825,1886
1872,1795,1821
1890,1803,1822
1914,1827,1879
1905,1821,1887
1874,1793,1815
1883,1805,1819
1909,1830,1874
1902,1819,1872
1874,1788,1810
1897,1798,1818
1910,1831,1874
1903,1822,1872
1872,1785,1797
1886,1795,1811
1902,1823,1875
1902,1812,1879
