1860,1838,1901
1951,1871,1822
1935,1886,1874
1867,1915,2014
1824,1841,1838
1744,1762,1584
1807,1834,1748
1941,1914,1939
1949,1968,1965
1795,1807,1728
1787,1783,1776
1826,1808,1879
1852,1831,1907
1840,1843,1776
1872,1914,1809
1903,1920,1935
1840,1867,1865
1858,1792,1808
1850,1820,1858
1867,1922,1882
1801,1878,1797
1911,1786,1770
1902,1867,1890
1862,1937,2037
1846,1868,1797
1847,1757,1645
1831,1803,1806
1901,1895,1971
1802,1935,1904
1916,1840,1762
1717,1849,1783
1873,1866,1905
1853,1841,1921
1859,1838,1854
1860,1841,1808
1831,1895,1858
1859,1910,1851
1863,1869,1762
1867,1856,1840
1870,1861,1924
1902,1922,1882
1920,1938,1859
1889,1857,1858
1814,1810,1872
1776,1774,1776
1840,1806,1789
1897,1882,1861
1844,1837,1843
1808,1855,1851
1840,1865,1795
1862,1856,1839
1893,1866,1918
1856,1856,1840
1827,1829,1760
1875,1881,1872
1899,1919,1945
1803,1811,1779
1793,1808,1714
1857,1875,1855
1893,1932,1919
1904,1851,1890
1855,1808,1845
1833,1857,1876
1827,1871,1887
1803,1792,1744
1844,1815,1757
1893,1873,1840
1899,1859,1934
1831,1831,1904
1865,1899,1835
1892,1887,1831
1863,1806,1883
1825,1819,1840
1842,1872,1815
1891,1907,1865
1806,1843,1808
1807,1840,1807
1887,1847,1872
1878,1851,1933
1842,1842,1865
1808,1809,1742
1831,1808,1767
1915,1918,1963
1878,1860,1964
1845,1814,1796
1873,1829,1753
1891,1877,1865
1857,1932,1917
1845,1873,1873
1860,1791,1813
1902,1863,1890
1861,1887,1897
1808,1805,1813
1866,1843,1766
1895,1891,1857
1796,1808,1846
1809,1814,1801
1839,1808,1754
1895,1859,1872
1893,1879,1959
1890,1951,1967
1855,1894,1808
1863,1808,1767
1897,1823,1858
1883,1846,1876
1903,1923,1833
1904,1904,1883
1909,1820,1986
1855,1834,1852
1808,1843,1711
1794,1849,1721
1841,1862,1836
1901,1951,1917
1903,1870,1838
1851,1791,1813
1808,1808,1822
1803,1804,1805
1837,1782,1787
1884,1860,1899
1920,1921,2000
1892,1901,1843
1859,1807,1737
1859,1836,1753
1851,1856,1875
1870,1883,1918
1852,1888,1821
1809,1913,1775
1819,1845,1850
1840,1805,1901
1877,1878,1839
1899,1919,1811
1841,1831,1891
1841,1776,1786
1847,1764,1709
1822,1795,1810
1841,1856,1887
1857,1857,1821
1879,1892,1817
1909,1920,1897
1902,1903,1905
1845,1809,1840
1859,1839,1808
1902,1913,1891
1853,1857,1853
1821,1818,1845
1841,1842,1744
1849,1855,1844
1840,1873,1903
1799,1837,1742
1829,1802,1744
1902,1908,1902
1894,1941,1950
1841,1831,1840
1808,1761,1695
1844,1844,1837
1877,1893,1961
1869,1872,1873
1849,1810,1759
1872,1890,1867
1911,1936,1885
1867,1840,1783
1808,1858,1833
1813,1859,1812
1855,1885,1895
1845,1797,1845
1842,1744,1745
1872,1806,1856
1834,1886,1837
1817,1863,1821
1884,1850,1809
1874,1867,1867
1880,1919,1947
1862,1879,1849
1840,1831,1756
1866,1904,1851
1904,1977,2020
1887,1842,1927
1883,1790,1780
1865,1840,1737
1840,1919,1839
1893,1905,1834
1840,1808,1766
1831,1819,1858
1847,1850,1904
1853,1820,1943
1872,1798,1803
1856,1936,1697
1858,1919,1834
1872,1830,1865
1857,1831,1814
1887,1893,1870
1885,1928,1935
1840,1851,1843
1852,1767,1791
1892,1895,1886
1956,2000,2103
1872,1968,1877
1766,1750,1611
1762,1730,1671
1817,1734,1847
1871,1810,1888
1942,1859,1889
1919,1990,1934
1857,1899,1872
1870,1845,1839
1882,1760,1863
1898,1863,1856
1855,1873,1936
1840,1897,1883
1887,1867,1829
1862,1827,1795
1872,1828,1859
1881,1857,1872
1845,1845,1830
1847,1926,1853
1837,1857,1861
1830,1753,1819
1841,1808,1792
1907,1909,1899
1899,1959,1950
1856,1879,1856
1846,1763,1728
1875,1789,1845
1873,1911,1847
1874,1840,1835
1885,1838,1871
1937,1920,1937
1901,1911,1927
1892,1893,1911
1878,1840,1776
1799,1751,1775
1839,1856,1858
1834,1831,1813
1815,1791,1729
1840,1808,1790
1850,1895,1849
1878,1911,1884
1869,1821,1845
1894,1883,1893
1874,1903,1904
1898,1951,1936
1872,1765,1824
1840,1802,1791
1851,1891,1867
1899,1811,1867
1943,1958,1911
1904,1936,1872
1809,1798,1847
1764,1728,1758
1863,1856,1808
1882,1843,1883
1869,1882,1886
1836,1839,1801
1856,1745,1807
1878,1831,1895
1884,1860,1875
1902,1894,1860
1874,1843,1812
1946,1936,1917
1875,1915,1889
1838,1763,1858
1817,1802,1803
1867,1887,1861
1850,1878,1855
1854,1869,1808
1902,1858,1872
1859,1869,1869
1824,1866,1863
1857,1833,1840
1863,1793,1761
1891,1929,1878
1858,1872,1925
1846,1811,1834
1911,1882,1901
1954,1927,1984
1819,1823,1790
1779,1792,1728
1872,1866,1789
1876,1877,1857
1873,1765,1897
1856,1883,1836
1833,1870,1787
1891,1883,1851
1874,1840,1906
1872,1880,1891
1899,1872,1845
1872,1872,1872
1860,1841,1878
1847,1834,1835
1851,1820,1804
1919,1894,1891
1933,1944,1975
1855,1853,1892
1778,1766,1681
1829,1747,1829
1850,1891,1919
1892,1920,1933
1889,1865,1758
1866,1840,1766
1858,1812,1874
1913,1952,1906
1895,1882,1872
1841,1872,1857
1834,1956,1859
1853,1872,1824
1842,1778,1750
1911,1759,1831
1917,1936,1990
1894,1967,1895
1811,1781,1703
1803,1815,1789
1835,1792,1855
1863,1805,1851
1871,1827,1791
1902,1920,1807
1861,1930,1852
1839,1738,1840
1859,1904,1895
1873,1879,1873
1883,1913,1879
1891,1919,1814
1871,1829,1731
1919,1934,1862
1867,1877,1906
1815,1798,1807
1851,1822,1789
1898,1935,1904
1853,1860,1847
1809,1805,1782
1840,1854,1851
1904,1942,1921
1869,1904,1839
1815,1763,1741
1857,1797,1763
1872,1939,1840
1906,1870,2007
1867,1808,1808
1834,1805,1719
1841,1836,1805
1872,1942,1934
1906,1921,1904
1861,1829,1813
1888,1855,1906
1881,1841,1889
1783,1871,1758
1745,1771,1661
1805,1771,1806
1838,1839,1888
1879,1854,1859
1872,1840,1796
1873,1850,1827
1878,1871,1955
1890,1886,1867
1886,1891,1822
1872,1954,1863
1862,1904,1902
1884,1765,1827
1823,1723,1701
1854,1857,1836
1839,1870,1891
1815,1817,1811
1840,1810,1799
1871,1890,1881
1815,1858,1847
1830,1848,1798
1847,1802,1806
1871,1881,1841
1874,1907,1914
1877,1902,1878
1854,1841,1790
1903,1841,1867
1904,1871,1934
1872,1852,1830
1872,1870,1854
1825,1810,1803
1827,1809,1855
1829,1795,1826
1835,1806,1804
1853,1851,1858
1845,1901,1833
1872,1870,1807
1873,1824,1794
1847,1845,1859
1863,1871,1971
1873,1813,1861
1907,1888,1830
1919,1998,1872
1855,1826,1887
1792,1711,1796
1803,1741,1751
1879,1872,1846
1859,1898,1858
1872,1887,1871
1877,1827,1847
1845,1803,1785
1866,1872,1864
1893,1852,1860
1890,1840,1808
1865,1854,1873
1875,1840,1917
1872,1818,1858
1856,1883,1764
1846,1914,1808
1869,1881,1926
1890,1792,1924
1895,1789,1862
1867,1840,1783
1862,1936,1840
1842,1878,1840
1856,1810,1802
1874,1790,1865
1903,1869,1904
1810,1787,1750
1843,1783,1769
1883,1866,1872
1869,1843,1878
1846,1813,1839
1857,1808,1776
1885,1890,1859
1885,1959,1923
1885,1859,1904
1867,1815,1793
1851,1825,1798
1840,1850,1814
1885,1877,1968
1893,1879,1911
1899,1884,1841
1849,1837,1798
1808,1807,1765
1840,1765,1790
1882,1814,1825
1936,1915,1937
1919,1931,1979
1840,1838,1717
1826,1883,1769
1813,1840,1863
1811,1769,1837
1858,1798,1783
1887,1859,1842
1902,1921,1971
1847,1827,1824
1791,1798,1712
1835,1856,1804
1850,1859,1873
1865,1825,1863
1907,1895,1841
1907,1917,1891
1850,1856,1914
1828,1802,1820
1861,1815,1781
1890,1827,1857
1862,1869,1855
1895,1879,1850
1885,1855,1920
1877,1891,1846
1891,1904,1871
1889,1884,1858
1874,1901,1865
1858,1892,1874
1857,1838,1892
1815,1758,1716
1808,1773,1695
1862,1839,1845
1856,1886,1908
1872,1881,1840
1856,1808,1778
1872,1841,1853
1870,1897,1847
1863,1890,1830
1870,1854,1839
1880,1841,1903
1862,1840,1814
1835,1801,1808
1851,1841,1808
1888,1941,1874
1907,1967,1907
1914,1947,1901
1875,1755,1766
1821,1765,1729
1866,1857,1936
1898,1904,1898
1813,1904,1759
1854,1882,1834
1843,1806,1840
1826,1776,1810
1850,1819,1811
1879,1904,1872
1858,1865,1966
1840,1839,1810
1867,1874,1744
1898,1840,1822
1917,1908,1956
1906,1891,1887
1861,1808,1777
1865,1917,1849
1857,1917,1862
1824,1799,1776
1840,1755,1749
1879,1834,1913
1887,1889,2062
1958,1969,1868
1819,1801,1664
1838,1790,1783
1861,1879,1920
1863,1845,1811
1898,1859,1829
1863,1824,1809
1864,1866,1904
1853,1874,1883
1907,1901,1872
1871,1842,1810
1839,1815,1887
1894,1871,1903
1934,1934,1891
1839,1854,1717
1824,1834,1776
1842,1799,1829
1847,1787,1797
1859,1878,1803
1931,1966,1943
1904,1985,1840
1854,1853,1807
1854,1751,1889
1851,1776,2032
1826,1808,1843
1859,1841,1733
1856,1849,1807
1892,1910,1897
1898,1939,1877
1775,1779,1744
1803,1862,1810
1899,1922,1839
1921,1862,1872
1846,1783,1789
1831,1812,1793
1774,1783,1808
1847,1875,1838
1886,1881,1810
1875,1876,1870
1857,1878,1863
1862,1861,1888
1915,1904,1821
1881,1893,1840
1823,1897,1860
1840,1895,1920
1851,1844,1861
1867,1904,1835
1855,1882,1847
1838,1831,1871
1868,1889,1797
1875,1858,1851
1840,1870,1877
1818,1789,1774
1842,1808,1746
1902,1899,1874
1872,1893,1918
1851,1857,1884
1893,1920,1840
1843,1879,1750
1836,1841,1858
1873,1823,1887
1915,1918,1817
1840,1924,1829
1874,1878,2007
1878,1808,1925
1892,1845,1900
1852,1855,1803
1845,1878,1902
1865,1850,1808
1810,1833,1683
1847,1843,1855
1885,1867,1986
1882,1821,1940
1501,1847,1870
1595,1947,1861
1812,1959,1842
1878,1850,1776
1856,1788,1819
1809,1865,1859
1791,1936,1945
1835,1843,1794
1810,1776,1792
1825,1886,1907
1712,1872,1854
1901,1792,1793
1982,1811,1777
1886,1922,1847
1815,1999,1941
1816,1835,1841
1823,1799,1792
1833,1829,1872
1835,1862,1934
1831,1919,1935
1831,1844,1735
1833,1883,1875
1833,1891,2000
1831,1823,1843
1831,1877,1745
1833,1872,1739
1831,1812,1992
1831,1835,1898
1833,1872,1850
1831,1885,1872
1818,1890,1891
1828,1840,1843
1858,1885,1901
1868,1886,1889
1895,1904,1902
1843,1808,1769
1895,1790,1876
1903,1846,1797
1857,1872,1786
1850,1786,1865
1929,1821,1840
1917,1846,1899
1956,1907,1951
1968,1840,1968
1921,1783,1840
1914,1827,1877
1907,1862,1905
1933,1849,1734
1937,1856,1825
1968,1879,1903
1989,1933,2002
1878,1777,1872
1822,1714,1736
1855,1780,1766
1890,1815,1847
1959,1878,1863
1968,1875,1853
1892,1786,1743
1839,1727,1754
1878,1731,1769
1911,1835,1794
1911,1856,1904
1906,1852,1907
1936,1819,1875
1931,1808,1722
1938,1863,1936
1909,1872,1955
1927,1876,1906
1941,1776,1788
1887,1726,1787
1887,1786,1878
1911,1821,1844
1937,1840,1771
1930,1843,1837
1929,1875,1901
1984,1865,1893
1935,1835,1776
1909,1852,1837
1887,1819,1845
1903,1790,1803
1904,1782,1775
1888,1806,1807
1899,1819,1856
1937,1840,1888
1961,1856,1863
1915,1872,1904
1914,1827,1795
1887,1776,1786
1904,1790,1766
1927,1823,1878
1927,1847,1919
1942,1869,1923
1968,1903,1835
1904,1846,1744
1887,1833,1872
1846,1710,1779
1870,1712,1703
1903,1805,1813
1917,1851,1863
1901,1808,1801
1898,1812,1818
1946,1851,1893
1903,1835,1861
1851,1776,1775
1891,1823,1791
1915,1852,1862
1915,1856,1840
1899,1838,1787
1927,1893,1845
1952,1951,1878
1899,1808,1839
1846,1733,1782
1898,1808,1799
1910,1840,1882
1861,1840,1837
1863,1780,1839
1879,1806,1751
1935,1881,1819
1909,1855,1867
1858,1846,1814
1872,1808,1751
1931,1802,1813
1885,1799,1840
1913,1761,1803
1953,1799,1808
1951,1873,1885
1983,1883,1906
1872,1820,1840
1842,1776,1707
1898,1812,1795
1891,1831,1847
1872,1810,1787
1886,1842,1843
1925,1861,1819
1842,1856,1814
1971,1841,1823
1941,1824,1872
1936,1845,1885
1949,1925,1857
1895,1839,1802
1929,1803,1764
1866,1808,1815
1904,1875,1888
1872,1810,1776
1840,1774,1706
1890,1822,1801
1921,1893,1857
1886,1819,1861
1863,1776,1811
1910,1837,1827
1963,1915,1886
1904,1858,1910
1611,1782,1764
1215,1821,1814
957,1907,1951
1680,1969,1921
2047,1939,1743
1998,1777,1798
1856,1758,1857
1911,1834,1843
1910,1835,1809
1888,1854,1792
1920,1856,1867
1889,1774,1802
1853,1782,1818
1923,1872,1879
1947,1937,1867
1923,1859,1776
1873,1777,1695
1861,1841,1806
1895,1877,1921
1962,1883,1952
1949,1871,1808
1926,1867,1843
1939,1872,1855
1872,1818,1846
1911,1828,1815
1919,1863,1765
1949,1942,1915
1866,1831,1886
1787,1835,1760
1840,1869,1792
1857,1876,1827
1885,1850,1861
1861,1783,1803
1872,1791,1773
1872,1880,1903
1856,1823,1807
1859,1827,1814
1901,1891,1847
1931,1891,1857
1963,1901,1904
1910,1893,1809
1874,1828,1808
1838,1822,1908
1838,1835,1881
1931,1906,1794
1968,1971,1867
1867,1840,1856
1825,1748,1818
1838,1774,1731
1873,1839,1810
1931,1894,1909
1907,1882,1872
1855,1869,1747
1894,1846,1820
1891,1810,1917
1911,1853,1936
1872,1869,1797
1872,1871,1755
1879,1847,1825
1819,1856,1876
1908,1867,1855
1927,1887,1904
1913,1909,1879
1885,1925,1871
1872,1840,1888
1904,1717,1857
1809,1732,1695
1877,1789,1705
1882,1846,1802
1904,1961,1885
1871,1892,1925
1837,1744,1788
1931,1837,1840
1979,1905,1968
1831,1831,1761
1776,1775,1719
1871,1815,1829
1907,1856,1887
1903,1875,1899
1920,1922,1906
1858,1920,1905
1874,1855,1807
1802,1786,1791
1879,1856,1791
1885,1892,1826
1936,1931,1873
1904,1878,1910
1870,1826,1903
1795,1760,1748
1825,1790,1763
1876,1827,1834
1772,1810,1829
1746,1807,1777
1781,1939,1866
1441,1910,1915
912,1786,1843
1154,1856,1830
1814,1905,1840
2062,1858,1939
1920,1782,1888
1870,1836,1792
1872,1899,1802
1904,1904,1808
1829,1775,1775
1833,1786,1797
1911,1895,1853
1910,1858,1904
1904,1807,1905
1926,1842,2000
1884,1887,1746
1843,1843,1726
1856,1837,1814
1871,1874,1825
1894,1936,1909
1941,1874,2010
1874,1774,1806
1879,1766,1700
1869,1808,1819
1935,1901,1939
1943,1891,1955
1894,1840,1818
1877,1870,1846
1846,1873,1782
1919,1859,1821
1914,1795,1824
1820,1776,1861
1867,1840,1899
1878,1906,1867
1910,1969,1874
1893,1834,1837
1786,1775,1822
1830,1792,1808
1839,1808,1825
1916,1920,1985
1954,1960,1938
1881,1852,1855
1866,1827,1789
1902,1922,1851
1906,1885,1949
1872,1835,1831
1888,1843,1781
1879,1858,1855
1856,1918,1919
1854,1838,1904
1865,1810,1795
1881,1867,1859
1889,1965,1929
1856,1910,1808
1826,1773,1743
1857,1797,1876
1922,1875,1911
1869,1824,1840
1819,1863,1838
1874,1882,1887
1883,1866,1845
1849,1834,1779
1885,1891,1848
1935,1936,1910
1903,1853,1894
1872,1820,1829
1862,1831,1801
1909,1904,1905
1922,1913,1933
1872,1867,1904
1838,1827,1770
1837,1903,1774
1878,1917,1913
1833,1840,1813
1843,1791,1860
1894,1793,1873
1863,1795,1815
1856,1843,1828
1875,1872,1858
1922,1927,1892
1920,1973,1906
1869,1903,1829
1847,1841,1841
1884,1871,1935
1899,1894,1988
1910,1871,1860
1904,1873,1783
1914,1886,1901
1850,1886,1923
1851,1891,1858
1857,1837,1805
1862,1825,1795
1879,1840,1935
1876,1842,1946
1849,1856,1767
1847,1830,1776
1857,1843,1830
1852,1850,1856
1853,1845,1834
1886,1861,1887
1902,1904,1945
1914,1942,1913
1906,1878,1850
1923,1889,1872
1875,1874,1891
1842,1871,1884
1819,1872,1804
1836,1808,1823
1899,1853,1890
1855,1877,1840
1826,1872,1797
1863,1823,1841
1839,1794,1840
1838,1837,1859
1865,1856,1881
1622,1930,1936
1605,1948,1964
1830,1856,1934
1866,1799,1773
1846,1872,1735
1860,1919,1838
1861,1862,1865
1837,1780,1808
1893,1903,1865
1888,1887,1920
1865,1825,1881
1806,1827,1862
891,1878,1837
0,1931,1921
966,1878,1859
1986,1843,1791
2098,1822,1787
1902,1838,1815
1803,1795,1806
1807,1818,1866
1825,1917,1893
1840,1980,1940
1839,1916,1904
1827,1823,1791
1835,1779,1819
1835,1821,1852
1831,1861,1857
1831,1890,1802
1835,1947,1889
1833,1871,1886
1835,1802,1793
1829,1822,1809
1834,1920,1917
1834,1968,1965
1826,1825,1798
1831,1842,1790
1830,1901,1920
1829,1907,1870
1836,1853,1856
1840,1854,1883
1833,1936,1931
1836,1934,1936
1827,1852,1842
1838,1813,1765
1829,1808,1730
1835,1830,1834
1824,1839,1821
1854,1859,1835
1901,1971,1933
1837,1864,1927
1808,1806,1872
1829,1825,1834
1872,1887,1887
1840,1857,1892
1797,1859,1782
1829,1872,1747
1851,1874,1841
1905,1920,1941
1875,1890,1897
1840,1876,1825
1146,1921,1871
1187,1917,1950
1683,1872,1776
1872,1802,1677
1890,1793,1815
1869,1846,1906
1850,1861,1853
1872,1835,1899
1886,1858,1895
1872,1956,1850
1856,1905,1817
1856,1818,1823
1840,1852,1840
1870,1879,1867
1823,1837,1856
1838,1824,1812
1906,1954,1904
1834,1873,1886
1719,1766,1697
1778,1765,1712
1855,1851,1879
1926,1995,1995
1856,1871,1865
1830,1847,1745
1894,1878,1827
1885,1823,1917
1890,1899,1895
1924,1904,1814
1904,1843,1869
1905,1904,1890
1879,1852,1847
1835,1897,1751
1841,1805,1774
1896,1862,1911
1954,1854,1935
1932,1845,1792
1863,1846,1758
1835,1826,1808
1887,1843,1975
1895,1854,1862
1903,1859,1718
1878,1883,1795
1910,1917,1879
1920,1883,1868
1911,1872,1882
1902,1877,1889
1947,1935,1889
1872,1827,1772
1858,1811,1815
1883,1846,1855
1914,1915,1895
1923,1921,1948
1874,1891,1847
1859,1782,1879
1910,1817,1891
1904,1807,1820
1885,1859,1747
1910,1878,1840
1899,1862,1827
1857,1830,1795
1892,1909,1875
1927,1953,1943
1914,1850,1841
1899,1829,1795
1887,1845,1847
1926,1891,1940
1935,1926,1847
1909,1921,1840
1859,1853,1855
1822,1779,1790
1815,1744,1727
1855,1792,1776
1890,1858,1874
1939,1918,1970
1888,1872,1882
1900,1919,1789
1920,1890,1838
1927,1739,1935
1886,1797,1857
1845,1873,1765
1894,1875,1825
1856,1821,1827
1871,1938,1840
1887,1904,1834
1930,1861,1875
1926,1841,1909
1844,1847,1773
1815,1760,1721
1872,1767,1840
1907,1857,1901
1863,1824,1833
1873,1827,1807
1891,1840,1828
1872,1855,1854
1909,1886,1936
1874,1867,1824
1920,1879,1879
1914,1861,1898
1892,1844,1808
1841,1846,1727
1872,1875,1827
1869,1856,1863
1874,1855,1841
1882,1836,1853
1904,1987,1856
1907,1923,1943
1923,1938,1871
1824,1767,1706
1871,1850,1815
1902,1853,1841
1841,1761,1777
1858,1699,1799
1925,1868,1945
1891,1872,1936
1909,1902,1934
1918,1883,1819
1869,1841,1764
1847,1750,1808
1887,1886,1872
1901,1904,1839
1904,1845,1853
1897,1842,1901
1910,1872,1860
1854,1831,1773
1856,1826,1822
1872,1859,1874
1875,1876,1875
1887,1866,1805
1981,1979,1936
1883,1874,1824
1809,1745,1738
1867,1789,1856
1840,1876,1922
1851,1893,1881
1863,1878,1765
1856,1830,1742
1898,1936,1855
1904,2000,1907
1872,1803,1807
1862,1733,1802
1891,1786,1884
1885,1872,1934
1853,1840,1840
1876,1842,1841
1904,1900,1847
1910,1888,1841
1881,1873,1841
1882,1821,1811
1937,1883,1862
1891,1905,1883
1821,1797,1859
1856,1862,1792
1936,1913,1850
1904,1857,1833
1842,1847,1825
1877,1920,1866
1866,1858,1886
1872,1829,1827
1879,1836,1841
1875,1904,1823
1911,1782,1859
1862,1847,1824
1866,1818,1826
1882,1795,1837
1871,1783,1811
1873,1843,1841
1859,1840,1813
1861,1855,1849
1898,1929,1850
1917,1887,1871
1891,1870,1841
1877,1872,1856
1869,1883,1808
1869,1906,1865
1904,1780,1872
1900,1833,1821
1623,1890,1885
1680,1877,1946
1821,1776,1845
1861,1762,1743
1842,1843,1794
1835,1907,1899
1830,1837,1813
1778,1837,1795
1855,1889,1898
1677,1862,1945
1915,1830,1815
1913,1855,1817
1863,1890,1878
1803,1891,1847
1856,1926,1825
1854,1879,1909
1838,1772,1847
1827,1799,1815
1831,1854,1809
1835,1871,1826
1837,1835,1816
1830,1843,1911
1827,1891,1891
1790,1862,1810
1813,1808,1783
1869,1860,1874
1684,1936,1889
1712,1921,1794
1985,1859,1833
1933,1808,1937
1840,1803,1823
1808,1850,1757
1871,1875,1795
1984,1892,1882
2034,1846,1899
2129,1902,1910
2150,1893,1893
2064,1842,1835
2038,1847,1854
2055,1849,1744
2119,1911,1852
2147,1875,1879
2156,1774,1837
2099,1744,1763
2138,1846,1869
2192,1915,1943
2169,1892,1862
2075,1776,1744
2137,1898,1868
2171,1903,1961
2167,1842,1841
2145,1808,1734
2129,1822,1780
2107,1853,1859
2116,1866,1844
2133,1863,1806
2181,1857,1856
2159,1870,1884
2106,1803,1823
2130,1842,1840
2151,1998,1915
2139,1937,1889
2081,1742,1767
2061,1759,1842
2113,1915,1930
2023,1919,1843
1600,1861,1791
1661,1796,1786
1745,1821,1813
1737,1913,1901
1821,1871,1885
1856,1809,1763
1767,1879,1808
952,1915,1908
2339,1887,1936
2330,1831,1797
1936,1889,1925
1358,1909,1870
1974,1929,1781
1645,1870,1772
1807,1793,1823
1679,1866,1895
1627,1856,1859
1939,1840,1845
2065,1891,1883
2254,1899,1936
1968,1876,1898
1808,1899,1830
1794,1859,1879
1825,1840,1952
1840,1859,1783
1353,1871,1715
1435,1889,1859
2127,1894,1951
2294,1812,1885
1982,1808,1824
1796,1870,1862
1787,1890,1814
1818,1862,1766
1839,1911,1835
1856,1917,1872
1984,1905,1915
2154,1905,1934
2160,1809,1643
2256,1863,1725
2375,1911,1846
2446,1854,1856
2458,1837,1791
2480,1808,1836
2528,1835,1874
2594,1840,1875
2679,1886,1911
2672,1889,1899
2641,1842,1840
2624,1773,1735
2624,1808,1719
2702,1856,1910
2773,1926,1934
2752,1916,1839
2637,1778,1689
2683,1819,1772
2765,1871,1968
2768,1888,1870
2739,1860,1775
2736,1857,1838
2736,1872,1840
2730,1829,1796
2718,1788,1807
2766,1887,1835
2791,1959,1915
2739,1813,1829
2719,1812,1781
2758,1881,1936
2715,1826,1876
2671,1817,1706
2691,1795,1727
2729,1818,1872
2736,1920,1901
2721,1888,1817
2695,1809,1838
2687,1826,1798
2663,1856,1815
2646,1869,1954
2662,1861,1778
2703,1882,1797
2710,1915,1891
2641,1847,1837
2644,1820,1758
2668,1854,1841
2635,1871,1904
2624,1878,1845
2608,1847,1762
2623,1850,1872
2624,1882,1939
2597,1882,1763
2559,1825,1693
2599,1853,1830
2621,1883,1949
2642,1887,1919
2511,1831,1773
2494,1856,1751
2544,1905,1938
2510,1841,1943
2513,1835,1815
2507,1850,1690
2482,1838,1856
2495,1852,1856
2515,1904,1865
2506,1900,1864
2451,1867,1799
2436,1843,1833
2461,1869,1878
2414,1825,1834
2451,1889,1887
2464,1920,1930
2431,1858,1769
2399,1840,1722
2414,1863,1857
2433,1887,1867
2422,1872,1851
2374,1856,1830
2414,1901,1895
2384,1865,1868
2361,1841,1821
2365,1878,1871
2359,1897,1904
2327,1866,1761
2310,1788,1742
2323,1807,1792
2321,1853,1895
2308,1872,1873
2321,1842,1803
2320,1868,1856
2288,1895,1923
2256,1831,1849
2275,1850,1786
2319,1900,1890
2273,1871,1898
2253,1838,1809
2230,1826,1871
2262,1901,1886
2286,1922,1911
2235,1850,1797
2179,1829,1782
2243,1942,1901
2250,1981,1951
2160,1801,1796
2155,1772,1791
2219,1883,1869
2221,1891,1911
2139,1843,1782
2185,1882,1773
2169,1871,1837
2148,1865,1953
2118,1808,1873
2155,1791,1776
2160,1823,1831
2160,1887,2034
2143,1883,1920
2147,1894,1732
2149,1904,1831
2123,1878,1885
2066,1849,1831
2070,1846,1845
2111,1923,1831
2098,1882,1855
2064,1852,1769
2132,1901,1873
2094,1916,1970
2032,1861,1855
1977,1777,1760
2032,1821,1856
2065,1840,1851
2077,1875,1925
2037,1887,1875
2032,1887,1791
2027,1858,1856
2010,1872,1856
1981,1856,1867
1977,1806,1845
1974,1820,1802
2007,1885,1854
2021,1884,1849
2019,1873,1843
2023,1900,1911
1981,1936,1898
1984,1884,1869
1966,1826,1770
1915,1841,1772
1927,1854,1883
1936,1840,1786
1939,1859,1811
1967,1895,1935
1927,1855,1841
1900,1811,1849
1911,1819,1805
1958,1899,1866
1947,1925,1917
1892,1841,1841
1875,1818,1808
1954,1943,1886
1960,1935,1922
1872,1821,1823
1845,1796,1793
1881,1814,1816
1909,1856,1870
1904,1895,1897
1935,1937,1964
1911,1920,1863
1830,1837,1824
1842,1837,1813
1868,1839,1877
1901,1893,1871
1856,1844,1763
1792,1810,1776
1813,1823,1791
1842,1815,1808
1850,1835,1904
1853,1813,1895
1867,1865,1864
1878,1920,1955
1863,1934,1921
1819,1789,1808
1821,1780,1806
1842,1853,1879
1808,1872,1843
1817,1930,1836
1840,1891,1923
1825,1821,1850
1813,1840,1889
1777,1815,1811
1792,1830,1776
1794,1858,1793
1785,1859,1872
1789,1879,1854
1842,1882,1939
1867,1911,1912
1825,1880,1843
1763,1798,1808
1729,1751,1765
1733,1809,1808
1809,1905,1903
1805,1875,1860
1759,1825,1798
1753,1833,1847
1792,1901,1870
1811,1935,1878
1808,1885,1857
1766,1843,1799
1751,1872,1812
1745,1799,1851
1773,1817,1814
1776,1869,1839
1783,1888,1927
1765,1860,1869
1808,1904,1826
1825,1925,1975
1708,1871,1801
1681,1809,1745
1735,1805,1781
1781,1872,1891
1746,1861,1872
1744,1868,1809
1733,1821,1791
1733,1811,1813
1719,1831,1872
1742,1857,1843
1755,1849,1809
1749,1901,1840
1771,1935,1878
1717,1801,1833
1703,1778,1785
1744,1846,1872
1765,1882,1935
1747,1863,1858
1749,1887,1855
1782,1938,1952
1734,1890,1921
1682,1797,1775
1685,1761,1705
1737,1827,1859
1739,1894,1954
1761,1941,1891
1728,1825,1741
1691,1774,1789
1713,1815,1876
1695,1810,1867
1739,1888,1849
1771,1950,1904
1728,1847,1888
1673,1767,1801
1588,1785,1705
1775,1899,1840
1651,1872,1882
1695,1856,1859
1715,1907,1859
1727,1853,1853
1709,1839,1847
1629,1814,1809
1724,1913,1881
1731,1850,1875
1712,1806,1823
1707,1822,1747
1664,1833,1780
1782,1904,1964
1779,1996,1991
1680,1831,1791
1723,1767,1746
1700,1861,1855
1710,1877,1903
1756,1898,1923
1673,1760,1712
1657,1785,1755
1694,1856,1845
1721,1863,1874
1727,1910,1850
1726,1929,1879
1696,1835,1865
1646,1806,1889
1606,1759,1757
1686,1788,1770
1680,1872,1818
1727,1889,1853
1707,1822,1863
1712,1879,1933
1689,1884,1918
1669,1940,1791
1664,1843,1698
1707,1739,1812
1742,1792,1934
1707,1827,1811
1701,1803,1731
1695,1846,1844
1671,1863,1871
1695,1867,1837
1715,1914,1884
1751,1904,1904
1669,1822,1841
1658,1783,1815
1687,1829,1771
1707,1861,1814
1699,1803,1838
1769,1834,1851
1751,1854,1815
1782,1904,1887
1748,1936,1875
1654,1808,1827
1659,1809,1840
1735,1920,1856
1771,1879,1897
1701,1746,1766
1689,1790,1701
1665,1816,1774
1734,1837,1868
1755,1840,1885
1714,1874,1841
1733,1874,1875
1727,1863,1898
1738,1873,1840
1719,1875,1767
1776,1872,1873
1733,1805,1918
1701,1802,1808
1702,1840,1749
1696,1877,1824
1762,1959,1968
1744,1841,1854
1698,1798,1778
1693,1854,1806
1710,1823,1838
1738,1824,1873
