1920,1875,1819
1762,1847,1787
1840,1851,1843
1872,1874,1904
1919,1851,1858
1810,1824,1822
1808,1860,1809
1870,1861,1878
1846,1845,1831
1818,1840,1761
1865,1867,1854
1852,1875,1889
1811,1815,1830
1850,1776,1799
1807,1835,1819
1830,1881,1827
1829,1855,1842
1823,1815,1819
1818,1821,1813
1841,1843,1909
1851,1856,1825
1866,1845,1776
1854,1859,1831
1855,1886,1902
1776,1869,1826
1822,1824,1815
1884,1849,1819
1872,1899,1899
1874,1935,1858
1811,1865,1797
1827,1757,1798
1834,1785,1881
1855,1818,1920
1849,1802,1787
1847,1883,1885
1840,1882,1878
1821,1825,1842
1858,1828,1741
1859,1867,1799
1923,1897,1914
1808,1818,1830
1834,1841,1826
1889,1919,1873
1841,1869,1856
1809,1812,1818
1824,1818,1845
1851,1841,1830
1879,1897,1856
1863,1870,1853
1837,1802,1792
1840,1829,1850
1858,1856,1872
1840,1840,1826
1808,1829,1781
1833,1850,1840
1841,1870,1895
1839,1894,1887
1856,1910,1843
1860,1833,1828
1859,1837,1782
1845,1840,1796
1822,1824,1808
1843,1831,1862
1843,1855,1878
1840,1824,1812
1831,1798,1789
1872,1868,1885
1863,1884,1877
1849,1862,1792
1811,1847,1764
1872,1891,1913
1872,1847,1871
1825,1815,1802
1803,1805,1815
1861,1853,1825
1873,1861,1877
1840,1837,1830
1808,1865,1740
1872,1898,1902
1872,1863,1862
1847,1807,1795
1856,1824,1840
1885,1872,1882
1913,1913,1936
1840,1851,1810
1767,1789,1707
1830,1860,1797
1854,1911,1885
1868,1843,1865
1839,1808,1758
1890,1863,1860
1875,1862,1913
1859,1860,1856
1819,1838,1789
1861,1883,1863
1856,1894,1877
1840,1851,1819
1854,1857,1782
1862,1874,1837
1867,1856,1875
1840,1825,1846
1856,1840,1809
1884,1904,1870
1872,1903,1869
1854,1845,1821
1858,1840,1776
1872,1872,1862
1880,1907,1919
1846,1853,1860
1842,1827,1819
1861,1853,1787
1866,1893,1829
1840,1860,1835
1829,1837,1779
1872,1862,1849
1881,1874,1872
1844,1837,1838
1847,1830,1810
1867,1869,1840
1887,1890,1888
1883,1886,1823
1853,1869,1790
1866,1872,1903
1889,1853,1963
1824,1852,1808
1839,1842,1776
1872,1872,1843
1888,1914,1883
1878,1859,1802
1841,1820,1792
1857,1846,1883
1861,1872,1903
1839,1810,1874
1839,1818,1772
1870,1859,1837
1875,1879,1906
1857,1866,1870
1842,1846,1776
1894,1904,1913
1872,1902,1912
1839,1831,1809
1837,1812,1777
1883,1883,1863
1881,1865,1902
1855,1813,1850
1860,1815,1798
1874,1870,1859
1884,1902,1875
1853,1856,1808
1835,1827,1779
1853,1835,1885
1889,1895,1977
1887,1889,1859
1843,1849,1747
1856,1852,1829
1885,1862,1922
1874,1871,1879
1858,1870,1761
1870,1861,1821
1875,1885,1938
1856,1840,1856
1854,1829,1802
1853,1856,1827
1856,1885,1905
1837,1865,1850
1824,1889,1770
1835,1841,1788
1850,1820,1894
1833,1817,1862
1840,1845,1834
1869,1863,1873
1893,1868,1935
1844,1839,1846
1816,1845,1774
1857,1877,1830
1904,1909,1925
1839,1839,1844
1815,1814,1763
1904,1889,1910
1878,1899,1941
1840,1844,1827
1831,1823,1826
1873,1867,1807
1860,1882,1811
1862,1920,1857
1840,1851,1839
1852,1840,1863
1850,1838,1901
1867,1845,1840
1843,1840,1801
1855,1872,1847
1868,1897,1866
1855,1874,1882
1845,1856,1826
1868,1882,1835
1883,1895,1902
1839,1842,1845
1842,1837,1831
1891,1887,1919
1868,1809,1873
1831,1810,1840
1851,1920,1807
1882,1900,1811
1887,1854,1895
1822,1821,1825
1814,1797,1769
1869,1954,1893
1891,1937,1943
1826,1840,1776
1808,1841,1743
1877,1904,1905
1889,1869,1899
1851,1840,1828
1843,1893,1859
1889,1955,1893
1877,1895,1863
1838,1814,1813
1818,1797,1782
1871,1837,1856
1886,1904,1915
1860,1919,1847
1861,1849,1797
1900,1834,1886
1889,1872,1960
1840,1822,1819
1849,1893,1745
1874,1847,1915
1872,1850,1957
1856,1856,1804
1835,1872,1749
1875,1910,1850
1879,1929,1899
1852,1892,1876
1878,1892,1879
1859,1868,1837
1853,1819,1842
1828,1852,1815
1829,1842,1814
1882,1879,1875
1904,1894,1887
1879,1872,1841
1852,1827,1783
1871,1849,1847
1872,1872,1911
1867,1857,1879
1873,1872,1830
1890,1889,1878
1866,1886,1909
1863,1872,1824
1839,1805,1776
1864,1900,1845
1858,1909,1879
1856,1892,1895
1857,1821,1830
1884,1899,1809
1882,1946,1864
1856,1863,1856
1840,1797,1760
1867,1843,1850
1903,1891,1910
1873,1853,1842
1835,1865,1778
1877,1902,1840
1891,1830,1965
1858,1857,1854
1837,1891,1706
1863,1850,1805
1898,1897,1929
1870,1889,1854
1860,1874,1825
1904,1893,1863
1904,1918,1903
1841,1871,1862
1829,1791,1842
1852,1814,1809
1872,1861,1837
1854,1857,1841
1854,1851,1776
1894,1885,1860
1878,1872,1885
1845,1870,1811
1858,1901,1834
1911,1937,1885
1859,1826,1883
1813,1831,1822
1825,1823,1747
1872,1863,1834
1898,1872,1902
1872,1858,1872
1872,1835,1810
1903,1890,1882
1873,1846,1874
1843,1856,1814
1838,1877,1814
1873,1915,1877
1849,1835,1899
1830,1786,1811
1841,1814,1818
1879,1878,1840
1877,1897,1862
1851,1872,1827
1823,1824,1757
1865,1823,1850
1889,1874,1960
1849,1856,1840
1849,1872,1784
1871,1923,1840
1869,1895,1897
1873,1857,1856
1831,1843,1745
1877,1839,1866
1881,1888,1871
1855,1847,1821
1824,1786,1758
1863,1889,1863
1879,1875,1897
1872,1905,1845
1878,1820,1826
1884,1885,1899
1863,1926,1932
1807,1819,1803
1830,1808,1739
1887,1903,1810
1869,1856,1835
1847,1890,1822
1848,1885,1817
1870,1885,1863
1888,1875,1869
1857,1840,1840
1850,1840,1805
1858,1847,1814
1872,1861,1885
1849,1829,1884
1833,1854,1843
1866,1894,1824
1869,1846,1855
1856,1843,1802
1839,1843,1739
1899,1921,1852
1886,1910,1925
1866,1829,1859
1872,1818,1856
1890,1866,1917
1875,1904,1846
1821,1895,1763
1838,1817,1771
1878,1834,1899
1915,1879,1934
1903,1872,1831
1826,1826,1766
1849,1872,1868
1837,1841,1861
1845,1872,1834
1835,1850,1795
1885,1879,1872
1872,1834,1901
1818,1840,1766
1813,1789,1750
1877,1859,1855
1877,1919,1933
1845,1877,1883
1858,1905,1822
1872,1893,1826
1872,1851,1829
1860,1805,1811
1843,1865,1792
1881,1916,1918
1898,1885,1937
1843,1833,1775
1863,1846,1759
1872,1883,1847
1874,1883,1910
1841,1853,1849
1829,1840,1795
1875,1920,1862
1872,1914,1861
1846,1828,1781
1851,1833,1815
1887,1879,1881
1873,1872,1872
1829,1846,1813
1858,1854,1828
1897,1904,1877
1893,1936,1878
1859,1923,1840
1855,1856,1882
1851,1824,1831
1840,1822,1806
1847,1814,1776
1843,1838,1782
1919,1915,1918
1910,1936,1904
1872,1904,1843
1839,1847,1840
1849,1862,1857
1858,1853,1808
1858,1869,1791
1863,1881,1807
1879,1887,1895
1882,1884,1895
1865,1829,1815
1840,1813,1767
1872,1874,1860
1888,1872,1900
1877,1838,1842
1837,1831,1786
1894,1875,1858
1862,1869,1866
1839,1847,1799
1843,1824,1755
1890,1897,1867
1885,1907,1873
1845,1849,1806
1841,1855,1808
1860,1842,1865
1886,1847,1904
1883,1861,1874
1843,1847,1791
1869,1893,1823
1871,1874,1874
1855,1815,1830
1856,1825,1843
1872,1845,1809
1883,1879,1827
1871,1888,1843
1837,1819,1807
1861,1837,1823
1879,1867,1882
1851,1839,1856
1831,1859,1826
1877,1903,1885
1874,1872,1926
1859,1841,1839
1856,1878,1815
1891,1865,1827
1877,1847,1845
1847,1840,1843
1874,1859,1853
1918,1932,1887
1887,1895,1863
1831,1826,1806
1847,1821,1840
1914,1893,1885
1898,1890,1872
1808,1821,1749
1803,1858,1773
1876,1903,1862
1883,1875,1886
1859,1850,1870
1861,1872,1823
1858,1872,1856
1904,1891,1927
1869,1840,1859
1810,1789,1762
1843,1850,1825
1883,1918,1939
1872,1840,1872
1840,1827,1769
1863,1885,1801
1901,1875,1901
1856,1838,1830
1840,1842,1778
1891,1898,1861
1895,1915,1974
1866,1904,1905
1835,1834,1774
1850,1838,1774
1881,1869,1843
1856,1840,1825
1877,1869,1863
1904,1889,1902
1858,1836,1818
1827,1823,1776
1821,1854,1777
1886,1898,1901
1883,1903,1883
1858,1884,1821
1861,1861,1850
1882,1843,1872
1893,1841,1936
1846,1808,1783
1841,1831,1706
1885,1887,1847
1904,1904,1906
1872,1904,1881
1849,1890,1859
1862,1835,1782
1871,1835,1846
1867,1851,1840
1869,1863,1874
1874,1873,1851
1858,1921,1860
1837,1840,1861
1840,1798,1758
1881,1860,1840
1894,1901,1895
1855,1854,1852
1837,1827,1771
1878,1905,1923
1881,1893,1875
1841,1837,1763
1826,1809,1775
1894,1857,2019
1901,1914,1887
1861,1891,1767
1800,1820,1728
1841,1856,1839
1901,1904,1942
1872,1871,1840
1856,1840,1799
1863,1887,1814
1867,1888,1889
1845,1857,1824
1840,1827,1766
1887,1888,1879
1868,1891,1945
1856,1867,1828
1841,1847,1787
1869,1854,1862
1879,1879,1967
1872,1883,1897
1849,1840,1799
1879,1859,1797
1903,1914,1909
1865,1887,1881
1808,1812,1744
1841,1821,1792
1878,1871,1974
1869,1861,1900
1870,1872,1723
1902,1899,1826
1880,1861,1930
1862,1849,1853
1850,1835,1845
1886,1872,1859
1889,1884,1856
1865,1841,1788
1854,1862,1808
1886,1899,1930
1887,1895,1926
1840,1824,1757
1843,1824,1788
1885,1885,1891
1883,1871,1897
1857,1819,1797
1873,1855,1827
1904,1903,1907
1893,1887,1844
1859,1854,1819
1839,1808,1765
1859,1837,1831
1877,1894,1879
1863,1851,1904
1856,1827,1878
1856,1855,1814
1888,1879,1846
1859,1855,1839
1866,1840,1760
1872,1875,1811
1879,1866,1904
1869,1831,1887
1840,1810,1851
1856,1867,1777
1898,1940,1871
1846,1843,1806
1818,1800,1769
1898,1888,1902
1899,1877,1877
1840,1827,1835
1814,1822,1813
1870,1826,1919
1889,1856,1904
1873,1901,1900
1876,1842,1829
1861,1815,1787
1841,1834,1882
1870,1847,1879
1843,1841,1787
1867,1851,1828
1884,1871,1883
1869,1859,1866
1831,1831,1787
1859,1882,1887
1891,1931,1994
1853,1813,1847
1822,1787,1782
1879,1870,1911
1904,1884,1924
1849,1840,1791
1854,1841,1771
1877,1882,1861
1860,1876,1867
1846,1823,1876
1837,1811,1786
1862,1847,1840
1885,1877,1894
1856,1866,1872
1878,1862,1854
1895,1867,1839
1842,1843,1851
1814,1824,1824
1840,1831,1811
1862,1858,1839
1889,1893,1936
1876,1867,1873
1860,1829,1776
1847,1845,1781
1883,1861,1985
1859,1831,1957
1840,1845,1837
1861,1863,1868
1873,1873,1855
1843,1829,1834
1846,1851,1812
1873,1873,1793
1888,1870,1862
1850,1847,1777
1865,1876,1850
1873,1926,1858
1891,1877,1902
1843,1775,1799
1834,1792,1879
1881,1886,1905
1893,1901,1928
1893,1859,1839
1857,1817,1837
1862,1855,1856
1891,1881,1866
1890,1877,1838
1863,1840,1780
1853,1831,1885
1853,1863,1874
1839,1857,1808
1850,1829,1851
1885,1863,1904
1892,1899,1866
1849,1876,1808
1843,1853,1857
1870,1840,1900
1885,1890,1840
1854,1850,1794
1839,1791,1744
1885,1840,1808
1898,1883,1906
1856,1844,1817
1898,1837,1809
1889,1847,1848
1874,1863,1941
1840,1841,1818
1851,1840,1776
1905,1879,1852
1885,1883,1833
1858,1857,1813
1853,1831,1808
1876,1869,1898
1856,1840,1877
1846,1833,1847
1853,1834,1808
1877,1847,1871
1883,1856,1879
1840,1829,1870
1845,1815,1808
1885,1860,1819
1914,1906,1908
1860,1862,1898
1815,1811,1748
1871,1839,1878
1904,1856,1935
1853,1827,1810
1808,1808,1806
1846,1835,1870
1861,1855,1911
1873,1865,1840
1877,1837,1840
1862,1829,1818
1857,1859,1933
1866,1891,1872
1851,1869,1767
1904,1871,1879
1886,1853,1920
1834,1840,1925
1839,1850,1803
1876,1867,1886
1875,1891,1882
1857,1846,1814
1857,1807,1803
1889,1844,1877
1878,1853,1887
1839,1840,1792
1858,1841,1779
1889,1870,1863
1901,1890,1955
1866,1846,1859
1856,1856,1763
1891,1923,1841
1860,1881,1903
1842,1831,1873
1840,1820,1780
1878,1872,1825
1885,1876,1893
1890,1906,1895
1870,1883,1858
1831,1833,1798
1827,1816,1782
1838,1822,1808
1853,1853,1823
1891,1913,1927
1934,1957,2043
1897,1847,1803
1798,1744,1701
1852,1791,1853
1913,1857,1840
1847,1869,1811
1795,1856,1808
1894,1875,1872
1938,1913,1936
1899,1840,1834
1840,1819,1745
1821,1859,1826
1837,1883,1904
1875,1867,1860
1893,1856,1809
1875,1873,1878
1899,1901,1918
1840,1859,1841
1846,1863,1808
1858,1887,1857
1863,1869,1879
1855,1831,1911
1851,1838,1819
1879,1872,1819
1889,1881,1851
1872,1869,1840
1849,1845,1808
1859,1862,1859
1867,1885,1904
1916,1870,1873
1901,1899,1843
1904,1880,1886
1883,1872,1942
1878,1855,1847
1857,1855,1811
1886,1868,1869
1932,1887,1929
1926,1871,1964
1929,1847,1807
1888,1872,1777
1888,1889,1861
1833,1822,1825
1840,1805,1787
1905,1872,1861
1881,1874,1872
1824,1821,1798
1841,1816,1787
1904,1863,1898
1903,1855,1888
1863,1819,1798
1897,1840,1823
1953,1872,1990
1895,1843,1869
1853,1812,1709
1933,1836,1744
1925,1853,1890
1902,1869,1919
1906,1837,1814
1883,1830,1802
1923,1856,1858
1875,1869,1887
1889,1870,1857
1876,1857,1824
1853,1848,1912
1898,1823,1950
1996,1886,1951
1830,1790,1692
1850,1841,1749
1873,1838,1840
1821,1833,1833
1843,1818,1805
1919,1833,1857
1893,1855,1906
1845,1842,1872
1863,1837,1828
1883,1856,1867
1871,1863,1904
1877,1847,1863
1867,1840,1823
1895,1867,1870
1901,1881,1908
1881,1855,1870
1870,1840,1827
1893,1872,1871
1908,1899,1938
1895,1891,1904
1854,1838,1863
1809,1827,1820
1915,1874,1840
1877,1904,1860
1818,1826,1792
1807,1836,1821
1969,1857,1879
1887,1863,1872
1888,1865,1837
1933,1872,1860
1886,1873,1895
1885,1863,1852
1872,1873,1833
1904,1889,1878
1898,1873,1920
1854,1840,1811
1862,1843,1767
1905,1872,1831
1917,1895,1885
1887,1875,1854
1873,1861,1810
1899,1886,1856
1910,1895,1897
1909,1915,1891
1858,1883,1823
1849,1904,1904
1891,1847,1878
1857,1754,1723
1775,1771,1693
1845,1843,1791
1967,1878,1872
1883,1860,1838
1965,1867,1831
1875,1821,1804
1886,1821,1824
1840,1812,1821
1854,1833,1806
1872,1873,1863
1931,1895,1911
1835,1854,1879
1866,1808,1799
1856,1831,1824
1855,1863,1884
1872,1862,1894
1866,1833,1857
1872,1879,1895
1931,1872,1821
1842,1828,1761
1824,1819,1791
1881,1878,1935
1907,1858,1891
1909,1819,1803
1779,1791,1783
1842,1833,1847
1833,1861,1914
1808,1823,1843
1805,1790,1762
1841,1835,1808
1871,1871,1872
1872,1860,1859
1836,1824,1798
1755,1871,1851
1873,1872,1904
1873,1857,1876
1858,1859,1854
1883,1845,1843
1815,1845,2003
1805,1829,1791
1808,1841,1691
1911,1863,1777
1856,1874,1878
1841,1856,1853
1829,1828,1808
1892,1855,1837
1937,1878,1882
1862,1863,1879
1824,1860,1797
1904,1921,1885
1861,1878,1863
1791,1810,1842
1765,1808,1674
1853,1855,1759
1885,1860,1849
1870,1867,1871
1909,1901,1911
1859,1864,1867
1794,1837,1772
1807,1854,1808
1805,1881,1835
1861,1901,1827
1864,1833,1856
1859,1829,1871
1841,1848,1795
1830,1867,1766
1850,1878,1853
1863,1872,1899
1846,1851,1919
1840,1872,1792
1827,1885,1815
1840,1824,1770
1850,1865,1770
1850,1904,1849
1809,1783,1802
1826,1798,1861
1857,1834,1791
1824,1849,1775
1836,1858,1845
1840,1885,1887
1825,1856,1803
1850,1887,1819
1840,1872,1823
1831,1871,1849
1841,1875,1788
1840,1856,1887
1839,1894,1827
1818,1895,1791
1831,1824,1814
1861,1827,1877
1831,1845,1757
1827,1843,1709
1823,1823,1753
1894,1897,1936
1890,1920,1920
1808,1872,1785
1776,1842,1733
1840,1845,1787
1871,1846,1814
1839,1847,1831
1825,1843,1793
1842,1861,1771
1872,1904,1830
1839,1856,1838
1826,1851,1794
1822,1840,1779
1842,1855,1865
1854,1872,1847
1851,1923,1883
1879,1898,1818
1835,1845,1785
1808,1831,1785
1816,1869,1822
1878,1857,1927
1862,1809,1883
1840,1883,1863
1795,1830,1715
1863,1834,1779
1827,1804,1842
1829,1855,1872
1824,1867,1872
1867,1915,1902
1838,1881,1840
1814,1776,1765
1803,1753,1748
1841,1852,1859
1860,1890,1856
1819,1877,1762
1878,1891,1899
1885,1869,1891
1801,1811,1806
1771,1779,1775
1808,1846,1767
1867,1878,1838
1863,1845,1936
1813,1855,1867
1823,1846,1807
1877,1873,1827
1872,1876,1853
1871,1936,1878
1811,1808,1783
1811,1772,1779
1840,1823,1853
1837,1850,1841
1823,1819,1804
1827,1853,1806
1867,1888,1873
1840,1856,1829
1835,1841,1803
1893,1936,1971
1887,1953,1871
1829,1815,1739
1769,1735,1700
1814,1811,1892
1856,1904,1930
1872,1954,1875
1834,1843,1779
1856,1835,1746
1851,1831,1840
1802,1809,1817
1809,1845,1798
1910,1919,1911
1869,1876,1831
1845,1842,1840
1839,1839,1833
1846,1869,1856
1875,1914,1902
1854,1867,1838
1826,1834,1774
1826,1854,1836
1831,1873,1901
1840,1875,1891
1829,1847,1789
1854,1843,1781
1840,1868,1817
1858,1907,1877
1831,1838,1814
1845,1823,1824
1870,1845,1855
1840,1836,1837
1837,1850,1858
1861,1872,1892
1880,1901,1926
1856,1857,1835
1824,1846,1735
1856,1923,1840
1863,1897,1855
1810,1811,1837
1808,1807,1836
1838,1857,1839
1858,1889,1887
1870,1868,1872
1929,1917,1831
1834,1871,1826
1787,1806,1833
1826,1825,1875
1840,1820,1751
1877,1890,1788
1885,1901,1850
1871,1878,1885
1842,1823,1821
1867,1865,1830
1838,1854,1818
1831,1861,1781
1814,1855,1764
1843,1921,1919
1859,1955,1933
1867,1942,1845
1840,1894,1766
1860,1914,1831
1855,1858,1872
1860,1829,1849
1810,1897,1876
1839,1825,1893
1846,1889,1815
1872,1837,1795
1821,1788,1747
1847,1860,1830
1874,1889,1933
1843,1818,1877
1829,1850,1799
1821,1823,1803
1837,1891,1833
1870,1872,1854
1829,1854,1794
1842,1890,1883
1859,1885,1923
1835,1840,1826
1829,1855,1731
1887,1989,1878
1875,1937,1962
1831,1865,1789
1863,1777,1760
1844,1758,1821
1808,1834,1828
1813,1856,1814
1839,1869,1853
1863,1855,1894
1861,1865,1919
1840,1891,1856
1819,1849,1730
1847,1893,1818
1883,1889,1971
1840,1840,1808
1811,1845,1730
1854,1903,1859
1876,1927,1997
1814,1838,1791
1829,1798,1711
1856,1854,1789
1867,1885,1887
1857,1879,1912
1823,1879,1762
1836,1795,1756
1882,1857,1927
1838,1842,1842
1835,1835,1738
1854,1856,1815
1917,1926,1903
1847,1859,1908
1776,1863,1767
1821,1915,1815
1886,1968,1852
1838,1842,1813
1822,1842,1797
1874,1941,1852
1891,1825,1902
1865,1853,1808
1826,1813,1728
1847,1882,1854
1863,1895,1956
1895,1943,1920
1839,1822,1749
1825,1861,1767
1837,1890,1859
1845,1875,1843
1846,1839,1781
1843,1826,1798
1867,1861,1875
1875,1856,1950
1898,1885,1886
1872,1903,1831
1864,1874,1817
1855,1833,1845
1862,1845,1818
1876,1885,1821
1853,1873,1840
1840,1855,1837
1850,1821,1872
1875,1840,1862
1877,1883,1905
1870,1879,1814
1840,1862,1765
1848,1872,1840
1868,1833,1904
1867,1856,1883
1858,1868,1887
1861,1857,1830
1870,1869,1801
1875,1871,1841
1827,1830,1812
1859,1866,1830
1845,1861,1875
1850,1845,1868
1850,1834,1815
1875,1873,1815
1888,1903,1905
1878,1888,1914
1867,1889,1840
1901,1910,1819
1889,1823,1819
1842,1818,1837
1835,1815,1792
1903,1873,1861
1915,1899,1905
1869,1838,1847
1817,1809,1779
1840,1857,1847
1865,1942,1863
1856,1930,1851
1872,1845,1822
1884,1963,1840
1885,1908,1889
1876,1805,1891
1872,1842,1889
1895,1866,1854
1876,1854,1813
1845,1903,1766
1856,1891,1786
1888,1904,1850
1904,1881,1958
1856,1847,1833
1842,1840,1776
1905,1867,1841
1878,1863,1946
1856,1861,1873
1841,1806,1764
1877,1845,1847
1911,1913,1895
1885,1898,1891
1840,1816,1856
1872,1833,1850
1877,1857,1877
1850,1840,1850
1857,1867,1835
1893,1902,1830
1883,1869,1872
1851,1833,1901
1824,1821,1825
1904,1892,1825
1872,1865,1868
1849,1856,1856
1853,1948,1851
1885,1892,1936
1898,1917,1880
1862,1852,1779
1825,1783,1717
1850,1826,1821
1885,1886,1917
1850,1842,1875
1839,1810,1851
1872,1806,1883
1869,1885,1879
1858,1854,1817
1872,1843,1810
1870,1855,1840
1879,1887,1934
1853,1854,1814
1827,1829,1784
1849,1872,1926
1872,1865,1851
1875,1840,1801
1841,1817,1776
1855,1861,1812
1878,1863,1883
1859,1840,1929
1859,1859,1843
1900,1889,1813
1853,1855,1865
1835,1833,1839
1837,1839,1778
1867,1840,1856
1872,1874,1910
1858,1876,1850
1843,1856,1829
1863,1872,1839
1840,1847,1868
1816,1810,1829
1840,1811,1840
1882,1857,1936
1881,1888,1808
1859,1872,1830
1851,1850,1775
1877,1894,1859
1854,1887,1877
1840,1872,1853
1821,1831,1789
1860,1850,1842
1856,1862,1899
1865,1841,1904
1866,1850,1850
1881,1889,1907
1919,1922,1894
1843,1831,1811
1822,1819,1781
1856,1855,1799
1879,1872,1872
1870,1873,1831
1840,1858,1776
1850,1863,1825
1883,1871,1881
1873,1858,1856
1873,1895,1904
1881,1876,1862
1871,1831,1857
1849,1808,1846
1840,1813,1809
1856,1858,1779
1863,1878,1830
1867,1894,1854
1863,1860,1843
1856,1849,1808
1893,1858,1881
1856,1823,1821
1821,1827,1776
1874,1882,1914
1904,1911,1987
1854,1856,1819
1828,1825,1722
1875,1852,1807
1889,1875,1841
1858,1885,1817
1850,1869,1846
1873,1878,1867
1878,1852,1872
1856,1804,1854
1845,1807,1818
1872,1872,1901
1886,1891,1835
1853,1871,1773
1842,1840,1746
1893,1885,1856
1897,1879,1947
1856,1852,1836
1847,1863,1777
1885,1862,1825
1901,1875,1939
1863,1858,1831
1823,1816,1741
1852,1845,1875
1883,1893,1931
1862,1872,1823
1879,1856,1838
1883,1872,1841
1860,1840,1856
1867,1856,1910
1857,1872,1851
1851,1859,1775
1857,1850,1841
1865,1824,1843
1849,1811,1760
1860,1833,1808
1866,1863,1923
1904,1883,1877
1887,1868,1827
1850,1845,1825
1858,1869,1798
1812,1837,1770
1815,1794,1743
1885,1872,1856
1905,1890,1918
1841,1840,1840
1834,1841,1817
1904,1900,1901
1872,1858,1899
1858,1847,1877
1821,1805,1738
1850,1839,1788
1882,1870,1872
1871,1871,1883
1872,1867,1878
1893,1868,1824
1893,1840,1855
1840,1801,1826
1805,1776,1771
1858,1859,1870
1902,1892,1904
1883,1870,1921
1843,1831,1794
1872,1865,1805
1850,1841,1808
1819,1813,1783
1811,1808,1761
1849,1857,1842
1867,1882,1899
1854,1854,1904
1821,1827,1808
1852,1839,1751
1856,1865,1819
1850,1865,1844
1875,1884,1881
1872,1874,1834
1883,1862,1856
1863,1839,1844
1819,1805,1824
1849,1840,1805
1863,1856,1846
1856,1857,1854
1910,1911,1899
1853,1841,1840
1841,1845,1808
1842,1830,1786
1826,1806,1767
1841,1839,1820
1872,1873,1899
1872,1865,1898
1856,1862,1826
1857,1862,1776
1881,1895,1863
1867,1885,1931
1799,1806,1776
1823,1792,1890
1847,1840,1843
1852,1856,1830
1854,1827,1786
1852,1860,1856
1871,1883,1871
1857,1861,1885
1881,1858,1862
1872,1870,1843
1821,1840,1790
1835,1823,1796
1835,1831,1782
1872,1886,1855
1883,1889,1870
1857,1843,1809
1851,1825,1887
1867,1850,1853
1873,1875,1869
1846,1850,1828
1831,1859,1806
1893,1910,1858
1881,1903,1888
1893,1868,1847
1863,1827,1775
1813,1823,1805
1821,1827,1829
1824,1840,1809
1841,1824,1783
1890,1865,1879
1911,1891,2021
1861,1857,1862
1827,1853,1791
1850,1878,1766
1870,1893,1856
1859,1860,1845
1854,1824,1797
1890,1866,1837
1875,1861,1845
1859,1856,1859
1895,1871,1928
1865,1865,1809
1854,1872,1871
1863,1875,1875
1872,1872,1855
1872,1885,1794
1886,1899,1951
1862,1862,1859
1803,1831,1742
1876,1888,1851
1887,1855,1856
1874,1856,1829
1853,1822,1805
1860,1854,1846
1883,1861,1939
1850,1846,1866
1849,1851,1781
1888,1902,1874
1879,1856,1845
1838,1815,1780
1833,1839,1805
1865,1877,1877
1875,1883,1901
1867,1857,1898
1867,1863,1791
1883,1915,1830
1909,1927,1946
1837,1825,1840
1835,1792,1793
1873,1835,1808
1894,1887,1840
1855,1869,1811
1813,1835,1785
1856,1854,1830
1882,1874,1899
1883,1911,1937
1877,1881,1856
1805,1835,1851
1814,1840,1811
1839,1840,1806
1843,1841,1799
1894,1883,1863
1922,1894,1915
1888,1878,1922
1870,1882,1824
1865,1868,1822
1889,1862,1902
1922,1859,1823
1882,1871,1824
1859,1862,1942
1853,1858,2013
1841,1857,1784
1815,1840,1671
1847,1855,1798
1904,1875,1856
1882,1870,1859
1882,1865,1846
1934,1921,1927
1890,1907,1897
1890,1856,1814
1829,1803,1774
1889,1834,1856
1925,1905,1924
1905,1909,1936
1838,1828,1875
1828,1841,1776
1867,1890,1808
1885,1886,1851
1898,1896,1849
1909,1882,1881
1861,1865,1844
1847,1840,1808
1853,1833,1755
1916,1878,1817
1901,1883,1967
1860,1866,1915
1863,1872,1797
1866,1901,1828
1889,1887,1744
1883,1847,1840
1857,1846,1814
1869,1883,1856
1920,1934,1961
1871,1878,1892
1808,1793,1697
1831,1819,1854
1878,1872,1920
1891,1877,1889
1850,1859,1773
1869,1867,1825
1894,1888,1942
1889,1876,1872
1860,1840,1820
1855,1865,1819
1857,1871,1851
1867,1870,1906
1865,1870,1803
1867,1873,1863
1870,1907,1902
1885,1866,1899
1889,1845,1889
1822,1831,1763
1839,1872,1829
1869,1902,1903
1873,1870,1842
1898,1851,1835
1895,1863,1930
1846,1858,1920
1826,1831,1893
1840,1856,1867
1887,1877,1882
1889,1878,1853
1873,1861,1805
1936,1931,1884
1929,1902,1904
1851,1823,1874
1811,1797,1809
1845,1850,1808
1856,1887,1853
1838,1894,1839
1845,1850,1836
1915,1861,1887
1918,1877,1919
1840,1870,1861
1852,1872,1823
1910,1875,1866
1889,1867,1899
1825,1840,1851
1840,1845,1798
1894,1899,1904
1896,1888,2041
1886,1872,2005
1840,1841,1690
1835,1868,1666
1855,1869,1796
1843,1840,1885
1940,1837,1813
1921,1866,1830
1840,1906,1890
1837,1903,1901
1854,1842,1827
1856,1843,1846
1821,1840,1845
1820,1848,1856
1889,1840,1834
1943,1875,1860
1853,1871,1901
1785,1850,1815
1783,1826,1777
1865,1857,1839
1908,1879,1875
1872,1887,1874
1900,1889,1889
1789,1884,1803
1840,1856,1857
1919,1786,1815
1967,1783,1757
1840,1845,1891
1730,1875,1938
1750,1839,1856
1835,1817,1754
1887,1858,1843
1949,1874,1840
2031,1847,1857
1776,1850,1866
1803,1920,1936
1931,1889,1883
2014,1840,1874
1795,1826,1883
1727,1874,1950
1796,1889,1910
1858,1863,1825
1907,1856,1826
1867,1897,1906
1991,1889,1910
1938,1845,1887
1727,1827,1841
1682,1810,1876
1790,1833,1917
1769,1807,1761
1802,1793,1786
1869,1854,1879
1831,1874,1878
1887,1851,1847
1935,1825,1792
1871,1870,1879
1776,1872,1967
1807,1859,1936
1801,1853,1793
1903,1861,1849
1858,1856,1907
1826,1831,1869
1856,1843,1840
1857,1865,1881
1847,1856,1883
1776,1809,1866
1733,1843,1831
1934,1853,1872
1907,1872,1920
1877,1870,1851
1827,1829,1824
1885,1829,1831
1874,1850,1872
1908,1872,1905
1821,1858,1891
1763,1840,1887
1833,1865,1898
1884,1872,1986
1813,1837,1812
1861,1831,1747
1859,1826,1849
1799,1830,1843
1767,1815,1781
1891,1845,1839
1949,1885,1915
1927,1882,1904
1887,1841,1818
1792,1831,1897
1791,1845,1872
