1845,1968,1827
1855,1808,1817
1855,1762,1840
1872,1822,1825
1850,1862,1814
1834,1884,1778
1834,1904,1857
1785,1799,1833
1801,1878,1818
1856,1840,1889
1870,1805,1877
1855,1847,1872
1846,1881,1801
1845,1921,1853
1882,1866,1933
1853,1793,1898
1856,1841,1805
1854,1919,1895
1879,2002,1883
1873,1890,1891
1813,1827,1766
1849,1841,1811
1843,1811,1838
1843,1877,1783
1828,1859,1807
1847,1861,1860
1840,1882,1909
1847,1861,1861
1838,1814,1750
1829,1851,1817
1863,1919,1927
1885,1915,1917
1831,1830,1766
1843,1817,1792
1859,1819,1866
1872,1872,1872
1862,1899,1817
1859,1883,1815
1863,1907,1846
1847,1866,1824
1808,1821,1829
1839,1955,1842
1875,1968,1876
1845,1749,1835
1817,1755,1826
1870,1856,1891
1911,1966,1899
1842,1911,1840
1831,1791,1771
1813,1806,1829
1847,1914,1937
1841,1921,1801
1863,1842,1747
1853,1781,1767
1857,1856,1901
1851,1936,1996
1846,1846,1808
1843,1769,1855
1840,1809,1835
1839,1873,1797
1831,1872,1793
1851,1869,1841
1872,1917,1915
1858,1936,1844
1835,1815,1799
1858,1840,1907
1901,1942,1966
1822,1808,1754
1797,1735,1741
1856,1859,1863
1867,1987,1997
1826,1870,1856
1798,1758,1684
1841,1813,1743
1910,1903,1920
1879,1898,1843
1819,1852,1859
1818,1790,1787
1850,1809,1840
1849,1856,1888
1850,1869,1808
1872,1936,1744
1855,1911,1927
1839,1811,1837
1839,1797,1785
1889,1895,1927
1919,2069,1939
1887,1947,1847
1837,1725,1764
1825,1718,1841
1889,1973,1941
1885,1968,1915
1839,1873,1672
1805,1778,1731
1842,1728,1827
1840,1777,1807
1872,1898,1955
1883,1982,1877
1869,1853,1840
1851,1766,1835
1840,1783,1817
1861,1871,1862
1911,2043,1983
1915,2082,1941
1811,1798,1719
1814,1685,1770
1842,1751,1891
1843,1838,1835
1871,1946,1850
1895,1897,1893
1875,1856,1907
1823,1808,1883
1839,1878,1822
1911,1919,1904
1954,1982,1993
1834,1802,1936
1774,1697,1721
1814,1767,1759
1883,1871,1933
1883,1879,1872
1858,1873,1802
1878,1916,1887
1908,1987,1945
1883,1944,1881
1857,1806,1791
1841,1793,1856
1827,1801,1878
1824,1799,1792
1852,1850,1782
1855,1887,1847
1919,2001,1983
1927,2112,1926
1819,1712,1721
1794,1616,1766
1838,1759,1853
1862,1843,1866
1842,1891,1831
1937,2035,1973
1921,1893,1927
1805,1732,1744
1829,1849,1789
1889,1919,1899
1876,1989,1953
1779,1860,1759
1771,1682,1707
1846,1779,1829
1866,1839,1902
1917,1906,1930
1874,1895,1829
1866,1872,1859
1823,1840,1825
1848,1820,1807
1863,1867,1787
1878,1995,1861
1823,1858,1868
1815,1709,1818
1770,1759,1785
1910,1870,1850
1942,1990,1986
1927,2100,1956
1808,1842,1767
1776,1731,1727
1844,1719,1809
1861,1787,1838
1840,1893,1846
1894,1903,1886
1814,1851,1863
1893,1804,1821
1846,1809,1762
1904,1866,1840
1879,1991,1933
1871,2105,1875
1783,1791,1774
1785,1645,1776
1840,1744,1858
1872,1854,1831
1896,1934,1853
1899,1958,1878
1861,1862,1883
1840,1861,1872
1823,1915,1826
1789,1783,1734
1814,1744,1803
1826,1801,1828
1904,1934,1872
1919,2057,1951
1865,1917,1899
1818,1719,1766
1748,1678,1694
1808,1797,1814
1873,1894,1892
1870,1877,1872
1879,1855,1821
1947,1969,1889
1890,2096,1936
1872,1822,1905
1825,1755,1776
1845,1808,1783
1853,1818,1860
1850,1857,1856
1861,1847,1789
1858,1853,1833
1870,1888,1917
1827,1892,1883
1887,1878,1839
1888,1881,1855
1904,1900,1902
1869,1889,1863
1825,1849,1795
1887,1883,1869
1890,1898,1905
1843,1904,1862
1859,1862,1803
1905,1855,1840
1857,1886,1903
1872,1877,1882
1847,1884,1835
1872,1903,1859
1875,1888,1901
1871,1869,1872
1876,1898,1841
1939,1911,1872
1906,1898,1886
1879,1870,1850
1830,1835,1792
1869,1873,1856
1903,1901,1915
1901,1895,1892
1904,1898,1847
1901,1889,1861
1909,1907,1904
1882,1877,1872
1882,1862,1824
1900,1889,1863
1904,1906,1899
1887,1875,1859
1884,1876,1841
1918,1904,1891
1959,1927,1930
1929,1897,1899
1917,1845,1826
1997,1873,1871
1923,1870,1904
1869,1854,1871
1875,1867,1855
1872,1839,1863
1776,1840,1893
1954,1841,1886
1903,1845,1854
1936,1872,1903
1938,1880,1939
1910,1846,1890
1898,1834,1840
1934,1859,1899
1942,1875,1948
1919,1854,1905
1916,1843,1856
1938,1868,1903
1942,1874,1939
1888,1851,1894
1993,1831,1853
1968,1871,1907
1941,1887,1963
1961,1855,1904
1921,1827,1841
1967,1871,1899
1922,1847,1918
1919,1815,1873
1918,1806,1840
1890,1794,1846
1834,1811,1905
1947,1805,1872
1921,1814,1858
1926,1841,1922
1953,1855,1949
1888,1827,1907
1922,1823,1852
1872,1819,1888
1904,1818,1927
1900,1810,1890
1938,1791,1840
1906,1814,1867
1975,1829,1911
1906,1809,1885
1921,1809,1847
1919,1846,1895
1932,1851,1927
1910,1838,1898
1879,1840,1861
1952,1862,1916
1923,1850,1931
1870,1799,1850
1868,1808,1811
1906,1827,1872
1925,1855,1933
1929,1850,1892
1831,1872,1858
1955,1862,1875
1862,1817,1859
1796,1793,1810
1811,1763,1753
1835,1815,1833
1975,1853,1895
1856,1837,1858
1847,1831,1814
1890,1866,1866
1904,1872,1904
1937,1847,1866
1884,1840,1817
1966,1859,1861
1887,1866,1902
1911,1850,1856
1926,1838,1805
1911,1861,1859
1935,1882,1907
1905,1872,1872
1882,1855,1818
1871,1856,1829
1893,1875,1881
1882,1861,1856
1876,1841,1808
1918,1885,1863
1872,1888,1851
1841,1847,1831
1858,1811,1812
1908,1869,1882
1904,1889,1913
1850,1851,1839
1845,1855,1787
1886,1865,1845
1900,1872,1901
1871,1856,1854
1866,1854,1813
1897,1898,1872
1887,1915,1899
1866,1869,1851
1875,1843,1821
1894,1854,1853
1883,1854,1877
1871,1884,1855
1855,1877,1811
1884,1920,1857
1915,1963,1926
1943,2112,1943
1870,1923,1815
1805,1638,1773
1794,1677,1808
1840,1808,1824
1831,1842,1776
1867,1889,1847
1897,1957,1923
1872,1925,1869
1831,1835,1789
1840,1751,1808
1862,1837,1872
1873,2007,1879
1850,1809,1808
1867,1769,1826
1872,1808,1866
1856,1841,1853
1849,1887,1815
1874,1949,1862
1856,1848,1877
1886,1899,1869
1865,1967,1821
1806,1751,1776
1806,1712,1808
1840,1810,1826
1868,1936,1828
1872,1903,1845
1851,1833,1865
1828,1831,1817
1839,1875,1779
1873,1917,1842
1874,1845,1887
1849,1825,1840
1838,1838,1788
1877,1931,1865
1883,1956,1891
1855,1872,1833
1866,1877,1811
1871,1873,1839
1861,1863,1853
1859,1917,1828
1854,1904,1786
1863,1847,1814
1856,1867,1858
1858,1914,1859
1870,1798,1830
1855,1793,1833
1850,1907,1856
1856,1920,1839
1845,1915,1792
1829,1867,1813
1841,1856,1854
1840,1851,1817
1850,1874,1791
1881,1942,1851
1870,1938,1869
1840,1831,1813
1857,1849,1793
1861,1904,1811
1863,1907,1840
1861,1882,1831
1862,1866,1806
1887,1941,1835
1889,1941,1866
1835,1893,1798
1817,1839,1755
1856,1903,1826
1902,1971,1896
1889,1903,1848
1812,1822,1748
1809,1865,1776
1866,1937,1858
1841,1899,1805
1850,1885,1781
1856,1883,1813
1846,1879,1835
1843,1885,1814
1856,1898,1797
1881,1861,1835
1863,1888,1831
1843,1856,1802
1845,1869,1779
1893,1952,1855
1897,1893,1879
1850,1806,1811
1824,1863,1745
1863,1936,1811
1874,1947,1850
1849,1875,1810
1867,1858,1811
1873,1861,1841
1858,1936,1835
1854,1886,1787
1837,1866,1755
1881,1881,1836
1897,1906,1898
1859,1871,1834
1839,1836,1771
1878,1834,1838
1894,1972,1887
1873,1941,1834
1866,1842,1795
1891,1849,1845
1920,1903,1918
1910,1925,1874
1847,1872,1766
1855,1882,1794
1883,1903,1872
1875,1891,1849
1889,1883,1821
1922,1920,1871
1896,1914,1872
1835,1862,1808
1813,1833,1756
1872,1893,1838
1904,1894,1899
1878,1874,1840
1867,1857,1791
1890,1894,1839
1904,1914,1894
1893,1950,1857
1878,1966,1812
1890,1855,1843
1910,1847,1899
1927,1931,1905
1856,1890,1805
1840,1819,1795
1861,1815,1840
1872,1803,1846
1887,1872,1830
1862,1850,1833
1865,1838,1869
1878,1872,1849
1885,1836,1829
1874,1915,1834
1877,1835,1881
1889,1859,1869
1839,1815,1793
1855,1873,1830
1872,1870,1872
1860,1849,1854
1866,1807,1815
1879,1791,1853
1895,1843,1911
1872,1873,1872
1866,1887,1821
1861,1839,1839
1874,1882,1887
1877,1882,1860
1877,1872,1825
1856,1815,1822
1851,1883,1850
1857,1808,1846
1871,1796,1802
1936,1879,1872
1904,1863,1903
1822,1808,1826
1818,1841,1777
1852,1904,1836
1869,1934,1885
1851,1840,1841
1840,1808,1805
1862,1872,1849
1875,1885,1910
1872,1863,1873
1811,1836,1779
1850,1856,1846
1889,1869,1911
1846,1788,1844
1839,1809,1808
1835,1826,1840
1841,1851,1873
1841,1854,1848
1851,1827,1819
1855,1840,1836
1854,1792,1875
1837,1815,1865
1861,1869,1840
1840,1853,1838
1851,1872,1872
1858,1913,1851
1855,1831,1840
1819,1843,1825
1833,1820,1867
1872,1904,1878
1826,1797,1808
1827,1808,1857
1824,1840,1859
1808,1728,1833
1840,1791,1833
1818,1798,1815
1783,1790,1820
1807,1821,1810
1837,1831,1804
1854,1855,1845
1861,1885,1887
1837,1856,1825
1826,1830,1810
1857,1796,1879
1856,1799,1903
1845,1817,1872
1856,1840,1823
1859,1823,1852
1867,1841,1883
1858,1813,1849
1840,1795,1786
1825,1797,1811
1842,1837,1878
1840,1807,1845
1780,1742,1744
1807,1740,1782
1827,1767,1830
1835,1774,1838
1834,1745,1807
1842,1795,1839
1838,1815,1872
1836,1816,1840
1822,1779,1791
1863,1840,1857
1904,1905,1926
1847,1746,1837
1793,1748,1759
1808,1776,1808
1838,1818,1875
1857,1826,1845
1885,1819,1832
1831,1751,1825
1804,1788,1833
1804,1777,1807
1819,1770,1781
1851,1792,1822
1835,1796,1850
1825,1776,1834
1855,1802,1804
1883,1871,1849
1866,1872,1879
1809,1745,1823
1814,1718,1791
1825,1872,1845
1874,1840,1908
1895,1827,1874
1810,1769,1788
1798,1777,1819
1869,1882,1903
1839,1843,1852
1778,1804,1769
1779,1776,1782
1808,1774,1853
1808,1754,1845
1833,1763,1797
1857,1776,1872
1853,1757,1906
1831,1794,1844
1840,1751,1804
1813,1697,1815
1861,1798,1920
1825,1796,1859
1748,1727,1723
1793,1803,1783
1809,1815,1874
1808,1800,1843
1840,1831,1807
1968,1901,1890
2000,1888,1872
1762,1721,1706
1722,1812,1782
1805,1829,1824
1776,1830,1870
1798,1803,1839
1917,1807,1798
1819,1796,1814
1749,1746,1839
1777,1858,1872
1818,1853,1859
1795,1872,1809
1823,1886,1856
1755,1867,1798
1778,1926,1786
1801,1831,1837
1782,1841,1849
1733,1931,1762
1776,1893,1776
1854,1933,1834
1809,1904,1877
1791,1963,1847
1808,1935,1793
1785,1913,1755
1770,1920,1821
1767,1906,1776
1777,1853,1754
1817,1943,1831
1833,1955,1902
1824,1966,1858
1838,1943,1852
1829,1951,1840
1811,1935,1907
1791,1918,1776
1793,1927,1689
1850,1965,1872
1877,1990,1887
1834,1936,1806
1803,1894,1751
1885,1978,1807
1829,1955,1834
1738,1874,1758
1729,1872,1723
1841,1983,1863
1869,1969,1872
1840,1909,1813
1803,1875,1741
1839,1935,1837
1842,1946,1886
1757,1887,1757
1786,1945,1762
1808,1953,1746
1859,1926,1843
1798,1906,1786
1808,1875,1759
1856,1897,1831
1853,1941,1885
1842,1943,1909
1798,1863,1745
1842,1922,1821
1854,1969,1861
1825,1963,1791
1827,1867,1731
1831,1843,1747
1805,1886,1792
1844,1922,1873
1880,1937,1795
1803,1919,1754
1746,1862,1808
1775,1853,1821
1817,1882,1801
1870,1919,1877
1860,1982,1894
1792,1863,1765
1774,1825,1722
1810,1874,1811
1850,1889,1886
1833,1904,1789
1861,1940,1817
1870,1913,1844
1811,1838,1829
1804,1890,1834
1826,1862,1790
1857,1872,1821
1893,1919,1891
1840,1925,1833
1743,1847,1709
1791,1877,1790
1824,1851,1817
1819,1906,1792
1792,1846,1827
1822,1838,1808
1855,1911,1793
1844,1936,1796
1840,1895,1791
1871,1857,1868
1903,1942,1967
1822,1925,1858
1773,1825,1751
1855,1823,1803
1875,1858,1870
1794,1853,1767
1809,1834,1764
1825,1840,1840
1843,1915,1889
1827,1936,1818
1833,1905,1813
1871,1851,1869
1894,1934,1931
1808,1884,1809
1776,1791,1683
1841,1851,1794
1892,1919,1890
1824,1893,1867
1803,1872,1791
1803,1876,1791
1831,1843,1831
1870,1839,1843
1823,1889,1825
1862,1971,1875
1842,1911,1869
1844,1859,1840
1871,1869,1807
1910,1964,1899
1904,1926,1921
1829,1773,1770
1797,1791,1756
1882,1952,1859
1866,1964,1906
1808,1819,1851
1775,1789,1858
1774,1808,1802
1840,1812,1815
1835,1840,1781
1831,1857,1791
1789,1842,1830
1811,1941,1904
1840,1899,1853
1823,1798,1774
1891,1851,1897
1904,1906,1937
1851,1887,1850
1814,1871,1844
1851,1917,1857
1844,1923,1899
1860,1924,1954
1824,1825,1787
1826,1848,1745
1811,1840,1819
1837,1859,1858
1799,1839,1786
1842,1831,1853
1854,1860,1865
1851,1926,1840
1906,2003,1891
1851,1889,1875
1794,1745,1854
1776,1802,1783
1812,1868,1808
1854,1878,1899
1873,1958,1890
1871,1903,1857
1840,1846,1793
1795,1866,1823
1837,1870,1862
1867,1893,1903
1894,1907,1878
1911,1933,1887
1847,1875,1890
1769,1869,1754
1763,1799,1747
1827,1840,1858
1879,1941,1925
1872,1922,1855
1842,1825,1808
1853,1840,1862
1885,1950,1942
1845,1921,1887
1867,1914,1904
1898,1888,1866
1850,1807,1954
1859,1808,1809
1839,1898,1783
1870,1938,1802
1871,1904,1945
1820,1939,1887
1840,1882,1863
1856,1788,1803
1878,1801,1830
1874,1849,1883
1844,1897,1856
1840,1895,1831
1889,1871,1968
1877,1872,1898
1821,1909,1826
1849,1949,1799
1863,1907,1809
1888,1904,1827
1909,1914,1888
1860,1897,1872
1830,1872,1863
1817,1855,1807
1862,1853,1871
1892,1877,1909
1886,1999,1886
1869,1998,1850
1808,1773,1789
1824,1771,1872
1856,1877,1923
1894,1961,1938
1911,1934,1850
1827,1840,1806
1824,1878,1806
1840,1901,1885
1911,1974,1891
1887,1968,1921
1835,1835,1871
1872,1794,1870
1866,1865,1868
1872,1925,1920
1852,1968,1872
1823,1904,1749
1872,1841,1827
1914,1903,1919
1839,1882,1857
1826,1909,1838
1839,1841,1799
1891,1856,1858
1893,1840,1906
1840,1861,1827
1901,1951,1788
1911,1943,1892
1840,1901,1927
1807,1808,1872
1841,1846,1756
1887,1918,1869
1902,1920,1904
1843,1872,1871
1842,1968,1866
1871,1935,1893
1856,1861,1868
1867,1889,1912
1870,1827,1839
1883,1858,1997
1904,1939,1910
1882,1968,1851
1847,1833,1793
1829,1776,1863
1838,1811,1831
1847,1867,1831
1881,1889,1815
1880,1954,1914
1882,2000,1955
1831,1850,1818
1841,1840,1809
1904,1946,1829
1865,1847,1827
1833,1820,1842
1874,1857,1847
1891,1871,1867
1907,1930,1904
1897,1919,1882
1856,1869,1847
1869,1904,1843
1872,1949,1869
1862,1852,1876
1861,1776,1850
1885,1845,1937
1869,1838,1888
1894,1914,1814
1841,1883,1823
1890,1895,1904
1904,1920,2023
1886,1885,1876
1863,1872,1840
1875,1893,1878
1865,1895,1877
1841,1842,1899
1875,1869,1875
1862,1887,1782
1879,1904,1872
1859,1867,1886
1870,1887,1807
1867,1931,1830
1873,1859,1889
1860,1803,1946
1872,1861,1870
1894,1968,1873
1907,1936,1927
1907,1892,1904
1883,1840,1758
1854,1872,1829
1853,1921,1891
1846,1798,1833
1869,1797,1794
1911,1858,1830
1882,1862,1888
1840,1840,1865
1883,1891,1904
1905,1931,1909
1929,1965,1925
1920,1919,1918
1825,1819,1712
1840,1875,1757
1903,1968,1915
1877,1827,1876
1852,1786,1858
1894,1856,1937
1919,1887,1879
1904,1890,1875
1872,1865,1824
1899,1910,1879
1895,1920,1945
1883,1827,1909
1855,1777,1799
1947,1927,1878
1933,1949,1945
1856,1849,1887
1797,1769,1776
1847,1884,1813
1937,1968,1914
1894,1906,1860
1856,1847,1868
1885,1904,1903
1907,1877,1977
1909,1855,1935
1865,1817,1888
1872,1829,1837
1915,1911,1858
1916,1938,1862
1877,1818,1846
1862,1895,1891
1915,1937,1933
1872,1854,1853
1875,1792,1854
1901,1823,1877
1909,1883,1903
1899,1887,1866
1891,1939,1935
1969,1978,1996
1888,1885,1871
1767,1709,1616
1808,1803,1679
1891,1923,1904
1938,1922,1946
1905,1795,1840
1871,1758,1791
1907,1840,1922
1922,1942,1926
1873,1925,1904
1861,1851,1787
1894,1802,1837
1896,1872,1875
1870,1847,1854
1905,1859,1846
1905,1902,1861
1866,1855,1869
1857,1825,1863
1898,1866,1854
1904,1898,1872
1862,1879,1856
1845,1770,1811
1849,1809,1838
1919,1955,1989
1905,1903,1888
1842,1763,1747
1887,1821,1784
1879,1931,1882
1902,1965,1911
1889,1818,1870
1917,1816,1851
1883,1820,1855
1888,1903,1935
1862,1929,1859
1814,1886,1809
1872,1891,1840
1909,1808,1888
1923,1821,1872
1872,1872,1822
1919,1867,1863
1856,1881,1936
1909,1857,1841
1909,1872,1783
1842,1893,1823
1840,1883,1861
1805,1810,1856
1905,1793,1861
1889,1837,1872
1825,1915,1843
1867,1921,1873
1849,1840,1814
1860,1824,1823
1887,1866,1855
1869,1883,1891
1891,1851,1895
1919,1878,1815
1838,1825,1786
1830,1921,1822
1879,1904,1808
1899,1777,1883
1970,1840,1951
1870,1825,1845
1821,1841,1828
1891,1856,1873
1871,1873,1856
1887,1863,1785
1895,1860,1812
1873,1875,1872
1889,1847,1877
1872,1854,1872
1872,1901,1823
1915,1917,1903
1874,1809,1925
1840,1810,1767
1854,1830,1761
1935,1872,1872
1886,1863,1904
1898,1873,1887
1872,1856,1859
1903,1883,1847
1890,1883,1856
1855,1881,1858
1909,1929,1853
1859,1898,1831
1879,1840,1847
1851,1840,1862
1861,1869,1787
1891,1936,1900
1874,1849,1855
1881,1798,1845
1838,1802,1859
1904,1858,1856
1856,1887,1861
1870,1857,1840
1841,1823,1873
1927,1886,1811
1883,1901,1826
1889,1835,1815
1842,1805,1799
1897,1842,1894
1877,1847,1895
1839,1827,1790
1886,1833,1758
1920,1893,1872
1908,1904,1925
1924,1915,1847
1856,1931,1811
1845,1817,1836
1865,1794,1855
1865,1781,1799
1840,1781,1760
1884,1883,1855
1895,1906,1870
1859,1905,1808
1802,1808,1771
1847,1863,1821
1872,1872,1870
1882,1818,1872
1863,1779,1810
1845,1844,1869
1850,1904,1877
1872,1823,1827
1877,1878,1814
1922,1929,1872
1887,1885,1881
1862,1831,1826
1854,1824,1781
1826,1893,1936
1939,1941,1954
1862,1834,1770
1831,1799,1780
1865,1845,1851
1838,1791,1833
1868,1842,1849
1872,1878,1808
1869,1913,1844
1855,1895,1835
1841,1791,1802
1855,1791,1805
1903,1822,1874
1897,1894,1891
1811,1907,1840
1900,1762,1776
1930,1749,1868
1836,1825,1936
1872,1872,1854
1872,1959,1803
1922,1857,1817
1900,1792,1828
1872,1831,1839
1859,1856,1813
1934,1878,1871
1868,1875,1876
1846,1913,1846
1831,1872,1815
1919,1799,1835
1911,1789,1958
1870,1818,1831
1835,1854,1749
1872,1882,1839
1875,1891,1906
1902,1872,1859
1871,1852,1827
1850,1867,1825
1853,1857,1840
1824,1856,1859
1887,1911,1827
1837,1926,1846
1871,1877,1882
1847,1769,1789
1825,1798,1735
1881,1881,1867
1889,1879,1907
1870,1870,1837
1871,1898,1795
1859,1851,1840
1887,1879,1904
1874,1859,1884
1840,1782,1769
1912,1860,1885
1891,1851,1964
1855,1894,1872
1810,1841,1737
1888,1925,1829
1891,1942,1947
1855,1793,1843
1818,1758,1744
1845,1840,1785
1846,1828,1834
1879,1839,1846
1754,1791,1761
1784,1824,1840
1846,1849,1910
1872,1875,1905
1885,1843,1785
1853,1874,1791
1872,1902,1855
1866,1823,1823
1850,1794,1790
1885,1862,1882
1876,1948,1978
1839,1879,1824
1831,1776,1748
1900,1882,1874
1869,1891,1850
1815,1855,1837
1801,1728,1810
1850,1751,1888
1872,1849,1875
1863,1869,1808
1817,1853,1744
1828,1866,1778
1872,1866,1920
1872,1859,1856
1818,1818,1779
1840,1866,1819
1870,1904,1872
1856,1886,1865
1861,1840,1814
1843,1809,1803
1826,1840,1819
1829,1833,1814
1850,1859,1827
1885,1917,1886
1872,1877,1890
1855,1850,1822
1825,1780,1758
1835,1817,1919
1852,1878,1883
1831,1904,1777
1807,1799,1719
1839,1791,1827
1877,1840,1904
1850,1840,1872
1808,1813,1747
1856,1849,1869
1877,1889,1942
1859,1842,1840
1827,1804,1740
1840,1877,1859
1913,2001,2000
1888,1947,1858
1762,1747,1684
1776,1744,1757
1846,1788,1863
1853,1867,1904
1830,1850,1805
1871,1872,1799
1872,1850,1849
1825,1790,1819
1814,1776,1812
1899,1909,1881
1899,1952,1911
1838,1845,1844
1842,1823,1788
1850,1862,1808
1847,1871,1853
1835,1811,1817
1826,1847,1767
1872,1856,1892
1898,1850,1930
1854,1843,1867
1815,1838,1795
1851,1878,1872
1872,1872,1861
1893,1902,1872
1857,1875,1870
1850,1841,1781
1863,1911,1853
1831,1847,1767
1822,1805,1743
1867,1855,1831
1885,1917,1939
1829,1872,1825
1824,1849,1776
1858,1854,1851
1893,1873,1933
1889,1820,1895
1857,1878,1854
1863,1855,1865
1843,1886,1853
1855,1856,1809
1856,1812,1793
1823,1799,1818
1838,1899,1898
1872,1955,1902
1821,1862,1775
1811,1791,1783
1872,1840,1898
1870,1855,1947
1841,1845,1799
1876,1887,1814
1875,1853,1903
1857,1874,1878
1845,1847,1792
1881,1867,1855
1877,1895,1873
1838,1906,1849
1845,1891,1826
1905,1866,1897
1873,1839,1862
1834,1827,1793
1847,1879,1843
1875,1887,1883
1867,1841,1903
1850,1835,1803
1875,1868,1797
1936,1898,1907
1881,1889,1935
1841,1831,1824
1844,1882,1758
1863,1886,1862
1860,1834,1850
1840,1839,1842
1861,1872,1873
1872,1845,1846
1872,1911,1873
1856,1819,1843
1859,1808,1851
1859,1821,1854
1858,1822,1878
1846,1842,1867
1855,1878,1837
1903,1975,1872
1876,1910,1858
1836,1792,1840
1850,1799,1799
1867,1827,1808
1879,1869,1933
1861,1873,1908
1840,1845,1776
1875,1879,1844
1900,1917,1904
1823,1835,1838
1819,1830,1809
1879,1890,1850
1921,1914,1899
1863,1840,1841
1839,1825,1765
1870,1871,1782
1866,1890,1870
1830,1866,1875
1843,1869,1901
1879,1919,1889
1885,1915,1922
1885,1886,1841
1848,1815,1751
1861,1818,1826
1887,1810,1913
1883,1879,1888
1847,1879,1840
1871,1921,1906
1873,1973,1867
1877,1791,1845
1867,1750,1812
1843,1807,1776
1857,1822,1872
1881,1862,1855
1837,1834,1790
1859,1920,1842
1873,1869,1901
1879,1807,1876
1853,1785,1783
1894,1920,1872
1899,1897,1887
1854,1850,1837
1840,1840,1791
1841,1925,1851
1870,1866,1842
1850,1769,1805
1846,1789,1763
1882,1936,1888
1894,1904,1877
1867,1827,1870
1872,1815,1854
1885,1897,1894
1885,1862,1865
1862,1927,1765
1858,1806,1776
1858,1865,1826
1837,1825,1843
1879,1875,1867
1855,1847,1807
1855,1882,1829
1859,1840,1847
1845,1821,1841
1855,1839,1811
1887,1872,1831
1882,1920,1892
1875,1922,1885
1829,1823,1776
1835,1791,1795
1868,1809,1905
1876,1798,1855
1857,1831,1777
1859,1877,1845
1872,1930,1924
1804,1859,1779
1840,1818,1740
1887,1823,1895
1859,1850,1860
1841,1853,1808
1846,1823,1783
1840,1826,1807
1872,1868,1895
1894,1849,1871
1820,1787,1766
1856,1848,1865
1872,1875,1998
1842,1803,1834
1831,1747,1728
1847,1775,1810
1872,1901,1878
1867,1858,1831
1824,1777,1808
1854,1811,1820
1889,1886,1857
1863,1856,1818
1850,1870,1829
1872,1907,1851
1872,1914,1888
1879,1904,1870
1882,1847,1808
1870,1808,1793
1891,1840,1885
1865,1867,1862
1875,1904,1853
1872,1832,1842
1867,1839,1886
1904,1924,1931
1850,1904,1815
1834,1854,1761
1854,1776,1787
1838,1803,1808
1842,1813,1830
1852,1799,1846
1872,1824,1914
1870,1863,1863
1825,1797,1817
1845,1875,1795
1879,1856,1869
1864,1850,1852
1850,1723,1795
1882,1879,1878
1881,1872,1951
1867,1856,1869
1840,1811,1762
1898,1899,1872
1897,1936,1899
1872,1931,1870
1872,1859,1791
1867,1808,1808
1833,1834,1839
1859,1866,1857
1873,1825,1827
1904,1878,1897
1856,1895,1881
1797,1830,1789
1840,1810,1751
1883,1845,1808
1865,1873,1886
1871,1867,1888
1854,1799,1820
1882,1983,1840
1887,1898,1843
1871,1772,1861
1857,1800,1818
1873,1911,1821
1882,1894,1869
1869,1920,1860
1883,1843,1871
1877,1907,1885
1876,1897,1847
1849,1808,1823
1865,1775,1808
1875,1872,1876
1883,1878,1898
1890,1855,1829
1870,1839,1778
1880,1939,1839
1922,1965,1903
1851,1872,1834
1803,1776,1808
1855,1867,1814
1904,1889,1853
1872,1786,1817
1873,1805,1852
1875,1904,1845
1862,1943,1849
1839,1808,1826
1846,1841,1793
1891,1865,1859
1863,1871,1874
1861,1887,1849
1856,1833,1811
1895,1871,1877
1893,1919,1927
1834,1809,1871
1834,1882,1797
1881,1897,1847
1918,1962,1950
1927,1899,1881
1827,1744,1742
1803,1840,1752
1838,1942,1881
1827,1853,1838
1856,1934,1827
1882,1916,1875
1844,1795,1857
1827,1777,1820
1837,1837,1797
1872,1865,1872
1887,1889,1921
1859,1855,1856
1859,1870,1872
1884,1898,1894
1875,1907,1858
1831,1847,1822
1863,1808,1810
1879,1863,1834
1904,1904,1872
1840,1840,1789
1812,1828,1823
1853,1847,1901
1872,1897,1883
1839,1840,1827
1809,1782,1751
1839,1895,1830
1889,1966,1899
1863,1846,1843
1847,1792,1842
1833,1801,1856
1834,1823,1845
1837,1843,1820
1838,1847,1795
1866,1902,1879
1886,1892,1949
1869,1792,1833
1834,1819,1793
1856,1903,1845
1875,1937,1888
1873,1913,1883
1865,1840,1856
1882,1863,1872
1888,1901,1893
1855,1849,1870
1840,1835,1813
1815,1833,1791
1837,1840,1873
1821,1842,1824
1846,1856,1788
1857,1855,1859
1882,1877,1897
1847,1866,1828
1851,1904,1810
1879,1917,1834
1872,1802,1890
1855,1793,1844
1834,1821,1782
1855,1861,1839
1873,1873,1887
1875,1858,1898
1856,1866,1807
1878,1898,1826
1874,1874,1870
1827,1803,1851
1829,1819,1777
1883,1872,1821
1893,1922,1888
1851,1840,1853
1828,1777,1776
1834,1766,1847
1859,1802,1872
1898,1882,1862
1879,1855,1802
1862,1819,1843
1825,1828,1821
1839,1835,1798
1856,1840,1787
1883,1926,1870
1903,1922,1970
1877,1855,1862
1814,1792,1745
1851,1840,1812
1872,1855,1877
1840,1795,1851
1872,1813,1825
1866,1802,1795
1863,1837,1872
1826,1823,1840
1818,1795,1791
1873,1847,1847
1879,1843,1889
1840,1813,1856
1893,1916,1846
1884,1909,1810
1835,1802,1794
1867,1791,1878
1875,1830,1905
1831,1846,1780
1822,1851,1801
1846,1833,1839
1848,1842,1797
1869,1835,1821
1872,1820,1876
1870,1850,1872
1833,1853,1782
1840,1867,1797
1885,1855,1901
1840,1825,1843
1821,1777,1815
1865,1863,1826
1872,1862,1845
1811,1789,1815
1849,1841,1808
1862,1855,1830
1872,1839,1879
1856,1808,1829
1826,1795,1780
1851,1861,1857
1856,1862,1926
1838,1802,1850
1811,1821,1790
1859,1915,1824
1899,1872,1897
1852,1851,1877
1835,1872,1794
1872,1871,1904
1846,1805,1919
1811,1790,1766
1826,1791,1749
1840,1831,1805
1875,1937,1904
1915,2000,1935
1853,1829,1776
1823,1733,1774
1816,1790,1870
1842,1855,1851
1831,1840,1776
1882,1881,1879
1856,1855,1872
1821,1797,1799
1824,1836,1795
1857,1918,1870
1874,1863,1955
1858,1872,1872
1833,1869,1782
1853,1896,1850
1856,1859,1867
1863,1776,1826
1829,1784,1766
1840,1834,1840
1850,1835,1863
1859,1835,1849
1863,1840,1796
