1785,1337,1779
1840,1269,1705
1867,1328,1808
1803,1421,1894
1793,1329,1808
1849,1295,1744
1863,1368,1845
1801,1456,1888
1819,1535,1853
1885,1242,1733
1848,1252,1815
1799,1325,1920
1795,1350,1713
1835,1370,1636
1922,1476,1872
1968,1523,1973
1783,1472,1744
1731,1422,1680
1778,1344,1806
1808,1359,1951
1791,1427,1749
1850,1470,1707
1819,1439,1846
1791,1441,1981
1773,1395,1813
1819,1428,1681
1873,1584,1841
1827,1563,1962
1789,1402,1760
1815,1422,1699
1898,1610,1887
1877,1519,1924
1783,1473,1787
1776,1515,1680
1789,1525,1781
1780,1535,1901
1797,1514,1871
1836,1530,1744
1857,1607,1833
1803,1597,1887
1759,1526,1776
1797,1600,1696
1819,1616,1846
1803,1562,1950
1821,1582,1802
1831,1584,1711
1817,1561,1792
1790,1680,1984
1767,1696,1812
1779,1584,1663
1811,1599,1808
1789,1637,1943
1787,1616,1838
1857,1691,1744
1885,1759,1839
1755,1659,1907
1712,1533,1778
1748,1555,1695
1823,1704,1855
1824,1779,1936
1786,1729,1846
1822,1730,1801
1817,1776,1803
1789,1747,1888
1776,1712,1815
1808,1699,1746
1858,1856,1879
1840,1810,1950
1787,1729,1914
1789,1753,1709
1817,1834,1777
1814,1767,1939
1787,1723,1856
1808,1713,1776
1821,1856,1807
1818,1883,1883
1810,1794,1829
1840,1821,1839
1838,1782,1904
1792,1802,1872
1776,1831,1759
1808,1773,1729
1867,1843,1903
1844,1856,1995
1796,1934,1847
1830,1823,1774
1849,1857,1885
1809,1916,1950
1766,1916,1814
1805,1894,1729
1872,1915,1898
1840,1939,1953
1809,1826,1858
1852,1765,1780
1856,1856,1872
1830,1936,1949
1794,1875,1817
1826,1857,1744
1883,1931,1909
1862,1990,2035
1821,1946,1819
1842,1887,1711
1866,1922,1840
1827,1953,1939
1802,1886,1840
1844,1897,1807
1897,2011,1927
1842,1936,1930
1808,1910,1819
1841,1897,1774
1872,1923,1872
1845,1941,1945
1819,1911,1851
1845,1947,1793
1890,2015,1970
1859,1997,1952
1824,1936,1786
1834,1920,1745
1878,1984,1878
1870,2018,2011
1865,1967,1919
1885,1918,1760
1887,1991,1830
1869,2017,1946
1840,1938,1857
1862,1946,1822
1900,2104,1970
1865,2023,1968
1837,1894,1794
1874,1901,1775
1904,2007,1857
1881,2042,1968
1878,1999,1890
1869,1942,1777
1891,2026,1897
1851,2007,1957
1830,1953,1840
1869,1949,1781
1899,2017,1879
1885,2077,1969
1871,2043,1859
1889,1951,1772
1890,1957,1882
1877,2000,1994
1872,1965,1885
1902,1963,1832
1899,2061,1852
1895,2094,1947
1872,1984,1853
1869,1984,1769
1885,2018,1874
1863,2017,1948
1855,1989,1872
1903,1950,1808
1920,2000,1904
1879,2058,1955
1872,2032,1870
1905,2007,1811
1922,2032,1919
1887,2033,1952
1875,2010,1884
1879,2006,1760
1919,1997,1860
1891,1998,1949
1882,1983,1883
1886,1968,1792
1899,2035,1881
1886,2052,1962
1843,2002,1830
1891,2015,1841
1936,2047,1945
1888,2042,1969
1871,1987,1881
1911,1950,1846
1926,2096,1897
1889,2084,1913
1845,1946,1834
1895,1957,1808
1917,1946,1871
1886,1985,1923
1855,1967,1835
1902,1967,1815
1917,2003,1983
1883,2032,1971
1875,2032,1844
1907,2031,1787
1905,1983,1835
1885,1968,1930
1871,1937,1855
1899,1968,1787
1910,2007,1883
1893,2011,1967
1861,1966,1872
1890,1945,1774
1936,2020,1943
1947,2115,2032
1856,1939,1778
1871,1841,1703
1902,1969,1857
1879,1994,1929
1877,1967,1840
1911,1939,1796
1920,1971,1910
1875,1990,1953
1853,1958,1825
1902,1909,1813
1922,1968,1899
1904,2001,1958
1863,1934,1885
1882,1915,1802
1941,2026,1917
1899,2000,1916
1870,1927,1789
1891,1858,1741
1901,1925,1872
1863,1979,1931
1861,1941,1835
1921,1887,1794
1936,1968,1894
1900,2001,1967
1869,1942,1929
1895,1907,1773
1911,1939,1826
1899,1987,1928
1872,1968,1840
1903,1895,1806
1921,1914,1930
1898,1968,1952
1904,1949,1857
1933,1935,1793
1903,1919,1855
1859,1955,1919
1857,1905,1855
1891,1891,1789
1928,1963,1872
1914,2023,2005
1887,1937,1903
1888,1825,1741
1911,1902,1833
1887,1954,1946
1858,1928,1840
1888,1950,1761
1923,1914,1890
1899,1893,1951
1871,1871,1796
1911,1869,1747
1917,1939,1872
1875,1956,1920
1874,1913,1867
1904,1915,1808
1922,1931,1849
1885,1913,1915
1852,1858,1821
1883,1860,1727
1910,1927,1855
1898,1968,1953
1869,1905,1887
1888,1880,1744
1941,1949,1855
1887,1923,1909
1846,1896,1809
1894,1837,1773
1924,1897,1929
1893,1942,1963
1843,1861,1808
1886,1840,1744
1950,1935,1895
1902,1979,1999
1844,1882,1817
1887,1807,1734
1904,1881,1856
1875,1903,1938
1861,1859,1853
1904,1873,1798
1938,1962,1891
1940,1986,2021
1856,1847,1843
1854,1795,1707
1898,1884,1840
1883,1936,1942
1847,1878,1776
1872,1843,1712
1913,1920,1890
1906,1968,1943
1903,1939,1875
1899,1892,1783
1904,1936,1881
1873,1901,1950
1856,1795,1809
1887,1806,1707
1920,1903,1859
1904,1981,1966
1859,1925,1868
1874,1887,1701
1896,1915,1807
1876,1879,1936
1845,1797,1821
1882,1836,1759
1917,1918,1873
1904,1929,1915
1857,1854,1856
1904,1837,1826
1899,1891,1849
1876,1936,1882
1833,1859,1793
1877,1877,1726
1921,1971,1914
1882,1925,1951
1843,1818,1808
1885,1776,1765
1904,1879,1879
1859,1922,1930
1840,1846,1727
1874,1832,1715
1912,1922,1891
1878,1967,1962
1840,1874,1804
1876,1837,1764
1902,1934,1851
1872,1942,1891
1824,1776,1842
1859,1776,1799
1925,1919,1904
1858,1934,1856
1833,1826,1766
1872,1836,1731
1904,1875,1873
1862,1897,1936
1828,1866,1808
1878,1842,1779
1923,1903,1889
1859,1955,1904
1842,1875,1840
1898,1827,1778
1895,1874,1853
1855,1898,1932
1837,1844,1801
1874,1840,1717
1909,1922,1871
1870,1952,1872
1838,1869,1809
1872,1833,1798
1930,1936,1866
1847,1897,1837
1825,1810,1795
1877,1805,1750
1915,1883,1902
1870,1895,1955
1847,1877,1823
1867,1851,1706
1936,1978,1856
1846,1911,1865
1795,1779,1803
1867,1822,1763
1902,1879,1947
1863,1911,1918
1822,1840,1740
1870,1828,1740
1907,1902,1875
1862,1936,2027
1835,1876,1797
1866,1851,1779
1899,1920,1799
1882,1930,1983
1817,1873,1790
1844,1843,1745
1879,1862,1950
1855,1904,1974
1810,1863,1743
1849,1862,1735
1887,1869,1901
1858,1937,1965
1857,1836,1802
1857,1793,1719
1878,1894,1921
1879,1954,1967
1810,1885,1716
1825,1815,1728
1862,1822,1865
1868,1894,2023
1837,1845,1791
1846,1803,1648
1898,1898,1822
1868,1934,1948
1845,1850,1823
1850,1846,1754
1903,1946,1904
1875,1890,1942
1826,1840,1792
1878,1922,1751
1895,1904,1840
1856,1834,1909
1842,1805,1787
1883,1818,1805
1883,1871,1866
1869,1947,1880
1838,1874,1742
1879,1866,1665
1900,1889,1882
1875,1887,1981
1866,1895,1841
1877,1846,1698
1902,1883,1827
1866,1883,1897
1833,1835,1853
1873,1823,1791
1870,1897,1856
1851,1951,1930
1846,1855,1792
1861,1808,1728
1903,1909,1873
1861,1929,1924
1835,1872,1842
1862,1826,1766
1905,1904,1946
1867,1932,1971
1817,1855,1751
1871,1850,1723
1905,1910,1894
1870,1931,1997
1850,1877,1845
1899,1845,1787
1905,1919,1872
1843,1870,1893
1849,1806,1787
1878,1818,1795
1897,1929,1917
1851,1953,1929
1829,1841,1840
1872,1839,1766
1904,1904,1883
1874,1934,1967
1843,1883,1837
1882,1856,1771
1913,1925,1941
1879,1890,1949
1835,1823,1791
1866,1818,1731
1914,1929,1903
1906,2006,1983
1848,1871,1808
1861,1812,1749
1891,1861,1885
1878,1905,1977
1808,1857,1819
1828,1822,1751
1869,1904,1872
1821,1949,1938
1865,1852,1851
1824,1814,1799
1943,1892,1863
1872,1904,1917
1842,1840,1813
1839,1835,1783
1936,1920,1893
1865,1952,1985
1825,1828,1829
1826,1805,1769
1904,1891,1855
1876,1907,1965
1806,1850,1854
1872,1863,1827
1952,1924,1883
1872,1917,1935
1837,1873,1835
1840,1809,1737
1903,1879,1891
1872,1903,1961
1854,1799,1818
1869,1787,1763
1900,1902,1891
1844,1937,1969
1831,1830,1832
1888,1799,1758
1923,1895,1904
1904,1955,1957
1853,1885,1864
1879,1825,1823
1907,1859,1834
1874,1895,1904
1844,1808,1808
1891,1815,1803
1915,1904,1859
1875,1924,1940
1857,1854,1811
1890,1850,1750
1922,1897,1920
1871,1871,1987
1818,1839,1775
1856,1840,1742
1885,1871,1886
1857,1899,1948
1851,1855,1805
1930,1869,1808
1909,1893,1871
1861,1905,1917
1847,1791,1789
1842,1775,1749
1915,1870,1897
1830,1920,1964
1846,1874,1822
1967,1902,1841
1856,1845,1917
1853,1850,1909
1806,1803,1758
1862,1837,1728
1885,1930,1916
1911,1966,1946
1807,1853,1790
1831,1776,1745
1851,1871,1872
1873,1936,1946
1860,1859,1813
1897,1804,1735
1867,1856,1842
1867,1889,1967
1870,1823,1837
1863,1813,1717
1894,1887,1865
1885,1929,1945
1833,1872,1769
1863,1832,1737
1890,1861,1898
1847,1885,1916
1813,1818,1797
1862,1807,1744
1881,1897,1883
1866,1924,1948
1853,1845,1822
1856,1802,1761
1881,1893,1889
1838,1932,1920
1873,1850,1814
1854,1808,1776
1846,1887,1920
1875,1905,1941
1840,1840,1778
1857,1824,1723
1901,1891,1888
1855,1925,1973
1746,1809,1799
1865,1792,1789
1879,1919,1861
1844,1920,1854
1803,1841,1747
1847,1807,1717
1898,1885,1874
1882,1903,1957
1856,1828,1827
1872,1829,1767
1898,1898,1856
1856,1950,1939
1804,1840,1765
1841,1763,1703
1927,1844,1867
1843,1900,1910
1866,1837,1768
1909,1830,1748
1923,1911,1936
1905,1920,1950
1778,1867,1856
1907,1845,1746
1915,1891,1838
1879,1903,1941
1810,1808,1783
1871,1786,1774
1902,1875,1867
1898,1913,1910
1858,1865,1797
1840,1835,1754
1918,1904,1870
1857,1927,1942
1855,1809,1824
1778,1772,1757
1865,1899,1872
1870,1926,1946
1845,1857,1829
1865,1808,1712
1891,1856,1840
1869,1904,1920
1919,1875,1863
1837,1818,1759
1939,1888,1857
1849,1927,1936
1838,1840,1792
1892,1840,1799
1894,1906,1859
1843,1909,1917
1776,1823,1801
1857,1842,1762
1866,1895,1890
1862,1904,1943
1818,1854,1835
1850,1815,1761
1887,1898,1852
1843,1934,1925
1835,1813,1826
1844,1817,1770
1840,1906,1869
1823,1913,1889
1795,1833,1775
1846,1834,1734
1872,1899,1869
1749,1934,1968
1834,1897,1866
1856,1805,1769
1849,1825,1839
1840,1849,1875
1815,1814,1775
1857,1830,1781
1894,1904,1953
1871,1904,1941
1821,1827,1769
1850,1806,1697
1901,1911,1870
1865,1920,1935
1840,1818,1819
1881,1857,1741
1874,1933,1879
1840,1885,1930
1824,1828,1810
1871,1840,1782
1893,1875,1902
1851,1910,1953
1821,1855,1765
1871,1837,1725
1915,1894,1920
1845,1899,1947
1808,1850,1823
1856,1809,1744
1902,1871,1877
1865,1904,1907
1827,1835,1777
1874,1851,1749
1887,1936,1891
1847,1920,1934
1821,1818,1799
1870,1810,1743
1872,1869,1871
1846,1920,1994
1840,1875,1840
1867,1811,1722
1878,1871,1812
1842,1882,1909
1829,1835,1857
1871,1856,1819
1887,1904,1840
1840,1904,1888
1811,1839,1808
1861,1820,1760
1879,1889,1875
1841,1915,1908
1840,1887,1808
1847,1840,1733
1881,1877,1921
1853,1872,1977
1815,1812,1761
1867,1839,1727
1886,1917,1876
1845,1935,1958
1823,1891,1791
1859,1808,1739
1870,1846,1887
1854,1918,1971
1840,1855,1843
1846,1840,1748
1874,1922,1868
1855,1936,1932
1838,1815,1813
1855,1807,1759
1867,1903,1882
1850,1966,1963
1814,1881,1782
1855,1831,1712
1883,1856,1859
1829,1891,1917
1809,1826,1822
1861,1821,1778
1894,1942,1910
1858,1922,1947
1830,1805,1852
1849,1798,1709
1879,1904,1821
1872,1983,1955
1843,1920,1831
1849,1756,1744
1861,1854,1862
1824,1909,1930
1808,1840,1783
1852,1843,1759
1905,1942,1883
1840,1938,1899
1830,1812,1869
1873,1821,1808
1887,1889,1824
1833,1919,1890
1813,1867,1826
1872,1811,1769
1879,1835,1853
1840,1891,1949
1809,1863,1807
1853,1846,1744
1878,1866,1872
1840,1873,1920
1830,1872,1835
1858,1840,1782
1871,1918,1845
1830,1920,1889
1820,1840,1773
1881,1856,1766
1886,1946,1918
1849,1904,1926
1822,1805,1809
1840,1814,1747
1881,1905,1860
1862,1934,1939
1814,1865,1762
1850,1827,1745
1879,1932,1951
1871,1925,1947
1827,1803,1741
1841,1808,1687
1872,1942,1866
1840,1936,1924
1830,1845,1796
1857,1839,1746
1872,1885,1856
1829,1872,1936
1821,1829,1808
1853,1841,1736
1878,1916,1885
1870,1943,1936
1835,1878,1777
1842,1793,1711
1883,1893,1910
1840,1904,1957
1811,1835,1778
1858,1818,1729
1891,1907,1908
1869,1936,1978
1823,1837,1767
1850,1823,1731
1855,1863,1839
1811,1888,1893
1808,1839,1781
1863,1825,1742
1883,1904,1875
1848,1936,1968
1842,1872,1827
1867,1833,1709
1860,1899,1839
1827,1878,1979
1820,1824,1796
1863,1818,1727
1900,1894,1871
1851,1934,1888
1818,1872,1770
1863,1860,1791
1877,1873,1893
1837,1959,1904
1838,1906,1810
1872,1808,1745
1863,1833,1840
1827,1913,1947
1807,1749,1781
1859,1838,1713
1874,1857,1846
1835,1915,1923
1823,1833,1801
1859,1793,1745
1876,1869,1904
1855,1920,1968
1834,1810,1767
1847,1871,1679
1866,1906,1855
1846,1861,1984
1831,1822,1829
1840,1787,1711
1872,1743,1863
1840,1919,1941
1823,1818,1829
1852,1855,1721
1874,1911,1846
1839,1893,1947
1829,1853,1807
1855,1810,1710
1886,1878,1875
1867,1888,1951
1840,1830,1841
1855,1872,1739
1875,1890,1824
1839,1958,1917
1827,1803,1837
1867,1776,1744
1877,1893,1835
1843,1879,1942
1835,1883,1843
1873,1871,1738
1884,1936,1831
1855,1904,1899
1801,1798,1787
1848,1802,1731
1886,1872,1872
1835,1917,1921
1831,1859,1855
1843,1857,1765
1860,1890,1808
1843,1904,1903
1826,1937,1815
1850,1835,1723
1870,1861,1837
1841,1925,1971
1779,1902,1747
1837,1808,1646
1867,1869,1847
1827,1867,1951
1819,1883,1781
1839,1776,1690
1862,1913,1856
1819,1913,1941
1808,1779,1797
1863,1775,1744
1867,1856,1890
1823,1950,1957
1806,1904,1745
1834,1841,1669
1842,1865,1844
1830,1883,1981
1827,1893,1823
1855,1841,1711
1857,1866,1831
1822,1845,1911
1823,1888,1835
1855,1798,1739
1867,1844,1890
1829,1902,1968
1819,1776,1765
1855,1798,1694
1865,1894,1813
1811,1886,1915
1803,1861,1798
1827,1802,1758
1846,1867,1858
1818,1906,1910
1808,1851,1766
1858,1904,1760
1887,1903,1927
1819,1829,1919
1803,1759,1799
1842,1761,1721
1873,1843,1832
1840,1921,1923
1815,1843,1811
1854,1799,1731
1871,1867,1872
1863,1931,1972
1844,1849,1859
1837,1788,1715
1846,1846,1796
1835,1839,1891
1833,1793,1808
1881,1822,1809
1882,1895,1934
1813,1870,1887
1793,1773,1731
1854,1791,1723
1872,1881,1885
1840,1905,1936
1835,1837,1797
1878,1829,1762
1858,1905,1872
1821,1834,1942
1810,1787,1825
1862,1777,1757
1875,1851,1847
1845,1882,1937
1808,1792,1805
1856,1814,1718
1868,1871,1870
1841,1882,1956
1835,1828,1811
1858,1810,1808
1870,1840,1890
1817,1783,1870
1805,1787,1763
1888,1828,1824
1897,1946,1918
1840,1903,1902
1818,1822,1793
1850,1765,1763
1882,1840,1872
1834,1857,1910
1831,1776,1873
1866,1808,1801
1878,1889,1891
1834,1936,1901
1813,1808,1817
1853,1866,1724
1875,1862,1851
1847,1871,1931
1823,1788,1809
1895,1869,1810
1882,1947,1887
1825,1865,1888
1807,1738,1785
1863,1752,1766
1887,1875,1962
1863,1900,1974
1816,1841,1733
1858,1823,1691
1873,1854,1917
1842,1905,1975
1818,1813,1775
1856,1763,1745
1877,1850,1899
1853,1854,1923
1840,1779,1814
1871,1840,1793
1872,1904,1899
1841,1806,1959
1827,1837,1795
1867,1814,1742
1894,1921,1872
1872,1872,1935
1841,1826,1777
1872,1812,1725
1901,1867,1878
1856,1917,1950
1840,1875,1835
1879,1890,1807
1873,1811,1880
1855,1787,1939
1843,1774,1819
1886,1814,1733
1889,1875,1871
1845,1893,1940
1835,1819,1789
1883,1792,1726
1898,1869,1872
1865,1887,1949
1853,1861,1839
1901,1877,1787
1903,1969,1879
1842,1906,1925
1839,1718,1826
1883,1724,1776
1897,1839,1904
1865,1870,1937
1841,1805,1855
1869,1802,1754
1880,1889,1829
1855,1916,1904
1837,1840,1778
1886,1833,1787
1914,1910,1919
1865,1874,1995
1830,1808,1753
1862,1812,1683
1885,1903,1863
1856,1901,1962
1841,1805,1874
1890,1803,1821
1891,1856,1881
1843,1874,1891
1825,1801,1747
1854,1809,1725
1878,1906,1891
1867,1904,1972
1853,1840,1840
1873,1797,1744
1873,1862,1853
1840,1875,1957
1834,1792,1801
1873,1791,1755
1890,1886,1895
1872,1915,1968
1846,1825,1806
1860,1819,1722
1876,1887,1861
1853,1911,1937
1855,1850,1845
1871,1837,1805
1874,1870,1879
1843,1856,1916
1822,1810,1778
1881,1821,1810
1911,1905,1904
1855,1878,1901
1834,1835,1767
1873,1840,1779
1887,1870,1899
1851,1887,1962
1854,1837,1799
1872,1806,1762
1877,1894,1893
1855,1904,1958
1845,1798,1798
1885,1809,1770
1903,1904,1893
1863,1906,1905
1846,1840,1753
1891,1830,1747
1897,1904,1902
1862,1919,1943
1857,1835,1808
1869,1806,1747
1881,1902,1887
1842,1882,1949
1813,1798,1792
1885,1840,1785
1890,1920,1914
1842,1837,1908
1818,1799,1749
1875,1825,1758
1904,1898,1916
1824,1903,1906
1819,1815,1771
1867,1773,1770
1906,1862,1931
1854,1922,1955
1819,1863,1798
1861,1830,1733
1872,1907,1861
1846,1877,1913
1831,1824,1766
1889,1808,1790
1890,1862,1920
1845,1875,1920
1838,1818,1789
1867,1797,1778
1883,1870,1899
1846,1915,1925
1858,1899,1806
1858,1760,1682
1875,1834,1846
1870,1905,1952
1846,1818,1815
1869,1794,1735
1895,1858,1885
1865,1890,1967
1853,1838,1815
1865,1786,1750
1891,1865,1858
1875,1873,1949
1843,1785,1808
1852,1791,1749
1877,1920,1863
1865,1904,1950
1858,1821,1869
1891,1801,1775
1886,1872,1857
1852,1898,1936
1835,1804,1776
1883,1782,1764
1908,1871,1936
1869,1913,1957
1855,1855,1795
1885,1827,1744
1909,1883,1903
1831,1886,1893
1822,1822,1781
1877,1793,1742
1904,1863,1900
1857,1837,1968
1865,1838,1882
1878,1834,1759
1870,1859,1808
1859,1908,1920
1840,1807,1806
1890,1797,1808
1873,1869,1890
1839,1923,1936
1840,1840,1852
1908,1813,1794
1891,1847,1867
1825,1888,1919
1810,1810,1840
1872,1779,1783
1887,1853,1919
1847,1903,1933
1836,1827,1817
1863,1815,1734
1887,1905,1891
1872,1895,1968
1825,1795,1791
1874,1797,1795
1878,1904,1918
1865,1934,1985
1847,1862,1821
1874,1771,1778
1901,1868,1926
1849,1904,1945
1829,1821,1826
1874,1796,1780
1877,1875,1904
1847,1892,1925
1841,1814,1853
1887,1815,1737
1885,1887,1893
1866,1909,1933
1838,1795,1787
1878,1807,1802
1897,1947,1959
1858,1886,1937
1845,1776,1767
1859,1801,1715
1878,1887,1853
1872,1930,1958
1834,1844,1794
1853,1787,1762
1869,1862,1934
1840,1861,1894
1840,1776,1825
1868,1840,1761
1889,1921,1891
1865,1831,1934
1826,1765,1772
1871,1845,1776
1885,1870,1873
1840,1885,1937
1829,1809,1793
1890,1803,1803
1904,1860,1891
1852,1870,1959
1853,1831,1861
1866,1826,1776
1873,1937,1859
1853,1948,1957
1842,1761,1808
1873,1749,1726
1872,1868,1882
1840,1907,1957
1834,1813,1808
1872,1783,1723
1889,1886,1851
1854,1883,1894
1851,1841,1822
1910,1858,1829
1897,1923,1909
1853,1901,1847
1841,1802,1739
1893,1826,1730
1905,1914,1953
1855,1889,1947
1840,1776,1787
1857,1776,1729
1898,1881,1948
1856,1898,1950
1854,1869,1805
1902,1844,1766
1899,1856,1904
1855,1853,1916
1837,1788,1790
1886,1835,1754
1904,1924,1903
1843,1859,1919
1818,1783,1766
1872,1807,1717
1892,1879,1899
1858,1905,1974
1843,1823,1811
1883,1833,1747
1882,1890,1895
1843,1839,1935
1818,1761,1744
1872,1825,1733
1934,1963,1936
1857,1871,1943
1815,1755,1730
1872,1776,1737
1895,1902,1903
1859,1919,1904
1829,1825,1783
1891,1807,1759
1906,1911,1902
1866,1899,1969
1847,1872,1824
1875,1784,1807
1886,1840,1853
1874,1901,1902
1845,1811,1823
1887,1796,1781
1884,1857,1858
1859,1911,1917
1847,1827,1776
1907,1840,1755
1889,1902,1886
1861,1905,1931
1856,1843,1872
1887,1805,1854
1886,1868,1840
1842,1872,1878
1836,1798,1763
1886,1794,1766
1916,1883,1941
1862,1911,1939
1846,1861,1853
1869,1769,1723
1879,1877,1862
1853,1919,1920
1863,1825,1803
1915,1833,1878
1899,1909,1886
1850,1935,1817
1827,1773,1722
1875,1755,1756
1885,1841,1782
1863,1901,1961
1856,1839,1819
1893,1826,1824
1906,1874,1946
1872,1899,2019
1842,1839,1834
1877,1857,1733
1893,1899,1867
1867,1909,1911
1867,1881,1806
1877,1831,1726
1872,1869,1846
1851,1875,1953
1851,1835,1821
1862,1802,1739
1897,1895,1894
1867,1904,1907
1842,1831,1814
1886,1852,1744
1904,1962,1922
1872,1967,1958
1838,1863,1817
1879,1837,1774
1874,1840,1885
1843,1838,1909
1824,1799,1775
1886,1824,1801
1889,1910,1937
1840,1914,1919
1822,1808,1774
1872,1828,1726
1872,1873,1877
1847,1886,2023
1824,1822,1856
1862,1836,1744
1887,1883,1845
1859,1882,1959
1830,1803,1856
1850,1817,1699
1873,1889,1847
1826,1918,1930
1824,1850,1855
1872,1808,1778
1869,1862,1851
1845,1910,1940
1851,1840,1813
1872,1857,1783
1863,1841,1840
1808,1829,1853
1816,1790,1761
1875,1807,1807
1879,1905,1881
1854,1965,1890
1826,1874,1755
1883,1871,1808
1887,1875,1949
1853,1830,2007
1825,1739,1776
1860,1778,1715
1867,1904,1835
1839,1889,1914
1840,1830,1784
1898,1853,1776
1881,1909,1889
1830,1945,1857
1817,1826,1775
1854,1765,1743
1863,1856,1861
1863,1890,1981
1854,1843,1799
1888,1834,1781
1903,1884,1867
1870,1915,1903
1831,1829,1777
1913,1806,1776
1850,1894,1890
1831,1949,1891
1869,1870,1774
1850,1766,1793
1853,1863,1883
1795,1889,1918
1823,1820,1804
1868,1808,1747
1882,1905,1904
1818,1875,1925
1840,1808,1779
1904,1818,1801
1889,1897,1873
1815,1867,1879
1810,1828,1743
1878,1846,1776
1887,1877,1913
1859,1855,1935
1872,1831,1808
1923,1842,1813
1925,1903,1953
1780,1894,1897
1853,1778,1726
1845,1782,1735
1890,1904,1911
1857,1869,1934
1811,1744,1781
1887,1776,1790
1898,1872,1907
1846,1906,1904
1817,1808,1744
1879,1776,1767
1905,1895,1961
1857,1949,1978
1831,1807,1831
1863,1783,1737
1870,1825,1819
1826,1860,1907
1844,1814,1824
1882,1809,1810
1869,1867,1858
1842,1897,1890
1872,1900,1851
1885,1776,1798
1856,1829,1870
1824,1875,1907
1889,1793,1765
1865,1792,1775
1857,1877,1907
1887,1862,1911
1849,1795,1797
1894,1812,1809
1907,1872,1924
1866,1862,1932
1833,1789,1754
1897,1793,1754
1913,1874,1917
1856,1904,1937
1875,1799,1822
1871,1777,1766
1872,1843,1873
1824,1862,1920
1841,1746,1776
1875,1776,1782
1851,1871,1930
1856,1855,1936
1826,1785,1798
1873,1787,1750
1884,1840,1921
1840,1878,1968
1823,1813,1856
1855,1799,1745
1877,1854,1853
1846,1852,1946
1840,1782,1872
1873,1780,1835
1883,1873,1867
1863,1901,1888
1825,1755,1746
1859,1743,1755
1872,1837,1902
1863,1844,1917
1826,1761,1771
1854,1776,1737
1871,1871,1914
1857,1873,2008
1840,1790,1783
1968,1787,1696
1874,1858,1867
1877,1857,1936
1837,1765,1799
1872,1755,1805
1876,1831,1910
1842,1876,1919
1838,1808,1755
1879,1798,1782
1889,1813,1937
1859,1791,1927
1829,1759,1763
1887,1798,1777
1907,1890,1910
1883,1863,1919
1806,1768,1762
1841,1740,1761
1893,1785,1923
1920,1835,1936
1867,1783,1797
1839,1744,1785
1856,1837,1894
1887,1850,1913
1798,1765,1739
1878,1775,1757
1894,1841,1890
1818,1846,1917
1833,1780,1769
1895,1792,1751
1954,1866,1962
1877,1871,1969
1838,1790,1817
1876,1791,1733
1863,1885,1890
1847,1825,1941
1837,1740,1793
1889,1757,1747
1948,1840,1886
1854,1846,1947
1839,1783,1785
1886,1793,1763
1904,1880,1903
1875,1846,1936
1812,1776,1808
1890,1779,1767
1872,1865,1869
1836,1855,1889
1838,1774,1771
1887,1799,1808
1903,1863,1930
1841,1841,1934
1795,1757,1802
1895,1782,1803
1875,1835,1863
1821,1838,1847
1830,1785,1744
1893,1782,1754
1879,1838,1957
1839,1819,2005
1802,1749,1787
1879,1791,1680
1883,1894,1865
1855,1911,1930
1883,1759,1775
1950,1743,1759
1879,1838,1936
1878,1897,1924
1856,1841,1805
1875,1785,1749
1904,1810,1872
1856,1847,1879
1834,1820,1766
1871,1834,1783
1884,1890,1904
1854,1875,1930
1842,1786,1761
1888,1840,1727
1904,1899,1909
1864,1861,1957
1829,1792,1824
1879,1823,1885
1878,1904,1867
1840,1915,1883
1819,1799,1754
1873,1780,1751
1882,1869,1893
1856,1872,1945
1856,1776,1812
1878,1827,1761
1877,1899,1913
1837,1867,1968
1841,1802,1819
1882,1816,1793
1897,1910,1907
1842,1905,1866
1830,1842,1741
1861,1765,1761
1879,1854,1921
1855,1887,1968
1829,1791,1759
1873,1778,1738
1891,1875,1901
1871,1918,1969
1811,1826,1763
1873,1790,1759
1887,1837,1895
1861,1892,1953
1825,1844,1745
1867,1839,1698
1882,1857,1876
1854,1842,1945
1854,1793,1810
1877,1822,1759
1873,1921,1911
1865,1942,1993
1842,1781,1850
1872,1791,1750
1872,1894,1833
1849,1877,1904
1840,1755,1769
1902,1811,1759
1902,1901,1919
1840,1957,1936
1831,1845,1776
1891,1813,1761
1886,1861,1917
1856,1915,1995
1835,1817,1850
1872,1802,1796
1898,1863,1883
1853,1856,1907
1850,1783,1797
1911,1863,1779
1904,1911,1877
1840,1886,1903
1845,1810,1795
1891,1809,1779
1857,1878,1877
1840,1907,1937
1831,1827,1810
1882,1857,1808
1898,1920,1949
1851,1888,1975
1839,1811,1821
1883,1811,1857
1886,1847,1906
1839,1863,1872
1828,1810,1709
1898,1822,1744
1887,1897,1910
1840,1895,1889
1830,1823,1808
1879,1826,1761
1904,1904,1868
1840,1893,1869
1840,1835,1791
1897,1859,1764
1873,1886,1861
1840,1879,1923
1834,1805,1812
1884,1835,1782
1893,1867,1935
1863,1861,1912
1842,1824,1747
1877,1840,1765
1902,1917,1920
1834,1879,1911
1831,1761,1776
1886,1764,1757
1882,1890,1923
1840,1890,1919
1834,1758,1773
1885,1785,1782
1870,1873,1856
1839,1893,1916
1833,1795,1771
1874,1795,1773
1875,1855,1876
1845,1854,1934
1842,1766,1803
1882,1819,1741
1877,1904,1857
1835,1879,1911
1844,1773,1828
1903,1782,1761
1883,1876,1877
1856,1866,1893
1858,1772,1776
1909,1802,1739
1921,1889,1893
1903,1854,2013
1891,1773,1770
1927,1785,1735
1959,1872,1919
1917,1901,1893
1926,1814,1776
1979,1738,1792
1979,1823,1887
1953,1885,1914
1953,1798,1757
2010,1808,1828
2032,1904,1921
2005,1895,1889
1993,1794,1759
2033,1807,1767
2030,1854,1904
1999,1841,1925
2014,1769,1796
2045,1795,1744
2055,1894,1883
2009,1900,1961
2017,1788,1807
2075,1803,1792
2053,1875,1871
2003,1861,1863
2002,1788,1753
2074,1824,1803
2087,1931,1947
2053,1840,1968
2031,1774,1770
2065,1844,1755
2064,1811,1869
2015,1843,1886
2032,1837,1794
2077,1767,1785
2085,1857,1894
2037,1936,1916
2015,1806,1791
2053,1843,1731
2070,1862,1891
2029,1874,1934
2033,1744,1811
