1888,1958,1871
1873,1856,1863
1851,1879,1797
1873,1847,1822
1887,1888,1889
1883,1877,1872
1856,1915,1808
1828,1818,1779
1840,1829,1840
1853,1840,1854
1850,1839,1808
1863,1853,1830
1879,1872,1881
1873,1847,1878
1852,1835,1811
1867,1856,1819
1861,1817,1858
1845,1838,1843
1851,1811,1807
1845,1873,1807
1855,1836,1860
1857,1915,1850
1842,1809,1802
1859,1872,1825
1883,1853,1896
1866,1858,1872
1869,1888,1803
1879,1870,1814
1863,1851,1851
1857,1856,1851
1828,1887,1786
1852,1882,1839
1872,1877,1872
1861,1856,1827
1846,1850,1776
1879,1886,1825
1896,1857,1874
1873,1856,1859
1833,1823,1786
1840,1826,1804
1872,1813,1877
1884,1867,1885
1858,1857,1808
1877,1873,1834
1874,1891,1874
1849,1817,1871
1834,1827,1792
1840,1809,1782
1865,1867,1861
1875,1872,1879
1856,1835,1829
1845,1855,1805
1872,1868,1859
1882,1889,1872
1840,1844,1806
1857,1858,1811
1859,1859,1869
1863,1846,1872
1865,1826,1827
1859,1808,1811
1878,1951,1861
1904,1898,1883
1856,1839,1805
1830,1783,1792
1856,1847,1861
1887,1866,1872
1856,1831,1797
1840,1823,1796
1859,1827,1854
1871,1847,1842
1838,1856,1776
1851,1815,1808
1879,1878,1878
1869,1856,1854
1831,1827,1785
1861,1846,1834
1883,1870,1882
1866,1856,1860
1853,1843,1798
1872,1872,1820
1891,1886,1887
1856,1832,1840
1823,1805,1778
1856,1843,1826
1894,1872,1920
1879,1872,1879
1885,1877,1811
1872,1867,1818
1834,1834,1840
1841,1838,1835
1840,1829,1791
1872,1856,1824
1890,1874,1888
1882,1871,1875
1870,1861,1808
1878,1863,1827
1891,1881,1895
1866,1844,1859
1845,1831,1802
1872,1866,1815
1904,1896,1882
1843,1831,1843
1813,1799,1770
1872,1852,1822
1893,1870,1888
1886,1875,1882
1842,1839,1789
1851,1841,1808
1873,1857,1868
1871,1855,1869
1850,1841,1813
1889,1882,1856
1918,1910,1895
1861,1845,1860
1830,1802,1766
1866,1841,1795
1878,1872,1861
1885,1857,1872
1838,1805,1791
1862,1833,1801
1853,1833,1840
1858,1840,1844
1853,1829,1802
1884,1856,1851
1898,1871,1902
1887,1877,1856
1881,1867,1827
1853,1853,1787
1866,1874,1845
1854,1846,1840
1840,1826,1787
1876,1868,1829
1883,1872,1871
1861,1853,1854
1865,1855,1809
1887,1870,1834
1863,1856,1868
1847,1849,1872
1855,1851,1807
1859,1851,1798
1851,1845,1827
1857,1856,1862
1877,1872,1857
1887,1872,1832
1875,1867,1845
1808,1809,1792
1813,1807,1776
1867,1847,1841
1870,1869,1840
1869,1865,1841
1827,1807,1808
1847,1838,1838
1870,1872,1849
1856,1850,1821
1869,1840,1827
1839,1825,1807
1867,1883,1874
1887,1894,1862
1858,1835,1819
1856,1845,1793
1845,1841,1813
1843,1840,1831
1827,1821,1782
1853,1850,1803
1879,1857,1850
1840,1830,1853
1850,1840,1823
1877,1859,1811
1878,1873,1863
1870,1865,1885
1814,1823,1776
1846,1851,1840
1904,1903,1889
1887,1898,1853
1820,1808,1759
1851,1835,1801
1888,1891,1886
1875,1904,1872
1861,1840,1849
1841,1802,1789
1853,1834,1824
1854,1853,1857
1835,1825,1789
1854,1827,1798
1883,1879,1900
1888,1878,1926
1861,1854,1795
1814,1818,1738
1856,1854,1841
1875,1852,1866
1859,1841,1798
1858,1847,1844
1919,1899,1937
1856,1840,1840
1840,1804,1796
1871,1840,1802
1886,1872,1840
1858,1840,1854
1845,1813,1819
1844,1830,1825
1879,1872,1898
1918,1920,1919
1840,1834,1772
1808,1791,1755
1855,1827,1849
1862,1829,1861
1867,1829,1821
1885,1870,1872
1902,1893,1937
1851,1814,1822
1831,1788,1741
1865,1849,1798
1907,1897,1902
1920,1883,1935
1837,1797,1802
1822,1801,1787
1830,1825,1839
1842,1840,1862
1861,1855,1795
1875,1865,1823
1875,1871,1857
1856,1841,1846
1824,1813,1795
1858,1869,1855
1872,1856,1887
1857,1847,1842
1857,1840,1801
1877,1873,1869
1890,1893,1918
1878,1870,1902
1856,1869,1749
1852,1840,1814
1855,1837,1856
1840,1808,1839
1836,1803,1804
1847,1830,1833
1889,1877,1905
1854,1837,1791
1831,1810,1775
1855,1841,1874
1911,1891,1968
1870,1858,1845
1840,1838,1795
1835,1822,1808
1861,1881,1937
1869,1887,1824
1840,1790,1784
1821,1791,1756
1862,1859,1890
1861,1871,1901
1841,1849,1822
1856,1843,1814
1875,1882,1861
1877,1872,1822
1823,1812,1779
1862,1871,1825
1911,1907,1910
1851,1840,1851
1814,1797,1771
1830,1830,1806
1889,1856,1863
1870,1845,1814
1849,1849,1814
1865,1867,1840
1862,1840,1840
1849,1830,1889
1839,1844,1803
1863,1863,1810
1872,1883,1842
1852,1841,1858
1859,1809,1833
1872,1829,1840
1911,1881,1897
1872,1845,1855
1894,1891,1875
1872,1866,1810
1847,1859,1829
1845,1843,1863
1854,1839,1779
1869,1821,1878
1882,1834,1869
1843,1813,1812
1829,1808,1785
1858,1849,1838
1894,1905,1900
1895,1899,1922
1851,1839,1812
1840,1895,1923
1886,1843,1837
1871,1810,1785
1860,1808,1793
1865,1827,1861
1881,1859,1919
1902,1866,1872
1914,1885,1933
1863,1842,1804
1822,1806,1839
1846,1825,1840
1859,1821,1763
1883,1872,1854
1903,1897,1983
1877,1859,1873
1824,1808,1715
1853,1849,1833
1920,1934,1970
1872,1870,1888
1792,1767,1776
1829,1808,1820
1871,1852,1905
1878,1849,1888
1873,1843,1881
1868,1895,1857
1871,1886,1894
1845,1835,1856
1862,1841,1789
1861,1854,1913
1860,1821,1847
1853,1813,1885
1866,1825,1844
1893,1839,1836
1895,1851,1897
1840,1813,1862
1820,1797,1872
1853,1821,1811
1867,1825,1833
1882,1836,1887
1858,1847,1838
1872,1868,1849
1887,1844,1882
1901,1852,1932
1873,1830,1856
1853,1828,1815
1856,1813,1905
1859,1805,1879
1870,1837,1834
1904,1883,1857
1899,1839,1862
1866,1812,1819
1856,1824,1808
1878,1863,1856
1875,1838,1893
1889,1813,1902
1858,1792,1814
1851,1813,1791
1883,1826,1901
1872,1802,1904
1839,1790,1774
1869,1837,1803
1885,1831,1902
1839,1789,1821
1840,1842,1846
1918,1903,1933
1885,1825,1968
1887,1815,1858
1871,1792,1777
1853,1785,1861
1855,1806,1851
1840,1793,1831
1842,1775,1776
1852,1802,1802
1897,1872,1907
1887,1844,1915
1853,1808,1837
1878,1808,1827
1885,1808,1859
1826,1794,1849
1828,1815,1829
1878,1851,1893
1930,1856,1946
1873,1821,1871
1838,1744,1828
1825,1758,1815
1885,1840,1902
1890,1846,1923
1873,1843,1874
1856,1829,1893
1872,1841,1882
1895,1819,1937
1883,1806,1849
1857,1833,1743
1840,1798,1802
1856,1818,1872
1859,1830,1863
1897,1859,1844
1931,1891,1990
1855,1807,1885
1809,1729,1733
1835,1745,1801
1893,1823,1893
1861,1817,1841
1843,1806,1825
1863,1840,1885
1897,1905,1923
1887,1866,1869
1883,1785,1823
1879,1808,1856
1877,1851,1893
1856,1870,1851
1862,1853,1849
1895,1814,1868
1933,1891,1936
1846,1814,1847
1791,1751,1730
1837,1776,1799
1892,1840,1919
1852,1822,1871
1819,1796,1793
1854,1838,1825
1887,1909,1918
1889,1872,1878
1887,1821,1839
1886,1865,1870
1877,1868,1904
1878,1850,1883
1841,1772,1813
1859,1817,1827
1910,1867,1918
1934,1936,1937
1858,1872,1818
1878,1845,1850
1849,1843,1893
1884,1791,1849
1788,1761,1743
1786,1773,1751
1872,1835,1846
1867,1845,1904
1841,1842,1808
1902,1878,1867
1963,1911,1980
1909,1860,1905
1771,1811,1788
1857,1839,1858
1903,1871,1854
1862,1822,1827
1839,1786,1801
1834,1807,1840
1895,1876,1907
1861,1907,1929
1843,1831,1791
1882,1867,1841
1856,1807,1872
1835,1790,1826
1827,1799,1774
1875,1860,1902
1890,1894,1909
1891,1853,1854
1857,1825,1830
1889,1856,1870
1840,1867,1830
1808,1808,1790
1822,1777,1776
1865,1859,1859
1915,1891,1937
1885,1860,1887
1885,1808,1801
1844,1844,1836
1904,1915,2022
1843,1927,1852
1791,1746,1667
1831,1748,1761
1887,1839,1890
1904,1889,1968
1868,1840,1819
1826,1803,1769
1870,1872,1842
1869,1892,1869
1838,1788,1808
1865,1803,1825
1883,1872,1913
1851,1856,1840
1846,1840,1791
1872,1865,1843
1865,1895,1885
1879,1921,1846
1918,1904,1826
1885,1870,1879
1876,1791,1872
1819,1797,1826
1834,1839,1825
1931,1904,1876
1858,1872,1826
1785,1802,1776
1808,1826,1779
1908,1874,1861
1836,1839,1858
1856,1845,1856
1840,1847,1804
1842,1858,1871
1889,1885,1910
1883,1902,1890
1875,1889,1843
1927,1886,1823
1909,1895,1879
1805,1829,1855
1885,1789,1762
1858,1846,1850
1947,1911,1899
1887,1915,1868
1851,1840,1808
1878,1861,1853
1909,1917,1904
1938,1950,1904
1845,1815,1776
1822,1826,1830
1838,1897,1837
1853,1856,1814
1830,1811,1806
1865,1881,1862
1899,1903,1908
1923,1867,1904
1971,1869,1779
1872,1910,1793
1917,1872,1860
1846,1875,1863
1845,1869,1805
1882,1851,1838
1899,1872,1850
1771,1863,1862
1857,1833,1799
1885,1854,1871
1919,1904,1923
1845,1874,1847
1804,1838,1723
1846,1854,1777
1885,1885,1857
1909,1885,1895
1855,1852,1806
1881,1872,1846
1887,1882,1902
1873,1894,1872
1845,1853,1803
1810,1847,1858
1911,1904,1923
1879,1884,1818
1808,1853,1749
1845,1898,1834
1851,1935,1859
1817,1835,1840
1840,1834,1803
1791,1869,1807
1877,1907,1885
1867,1872,1891
1888,1852,1856
1792,1851,1820
1879,1879,1873
1890,1904,1877
1862,1887,1811
1883,1910,1825
1831,1821,1795
1786,1813,1792
1874,1782,1758
1876,1856,1859
1902,1925,1943
1867,1866,1846
1851,1846,1786
1858,1843,1836
1883,1889,1888
1867,1907,1835
1850,1857,1776
1839,1822,1830
1869,1854,1872
1855,1872,1847
1862,1891,1808
1871,1898,1831
1872,1836,1870
1847,1808,1835
1840,1831,1815
1894,1854,1849
1921,1906,1891
1898,1920,1886
1855,1817,1817
1840,1834,1812
1876,1872,1903
1872,1894,1875
1840,1865,1814
1856,1913,1837
1930,1914,1899
1920,1856,1882
1915,1830,1793
1837,1803,1776
1838,1803,1849
1872,1854,1889
1882,1883,1858
1866,1872,1823
1889,1894,1904
1910,1920,1904
1872,1824,1779
1872,1825,1805
1901,1883,1889
1890,1853,1894
1872,1824,1819
1890,1858,1872
1917,1894,1922
1878,1867,1841
1850,1836,1811
1894,1882,1839
1941,1919,1918
1899,1888,1875
1831,1823,1809
1860,1825,1847
1890,1839,1885
1895,1866,1840
1850,1815,1769
1892,1858,1871
1918,1902,1936
1895,1858,1895
1863,1817,1804
1868,1850,1838
1909,1941,1905
1897,1857,1893
1843,1797,1806
1857,1823,1819
1901,1887,1915
1893,1893,1902
1884,1835,1840
1886,1847,1805
1911,1889,1867
1893,1885,1880
1885,1861,1833
1887,1859,1813
1895,1881,1893
1888,1879,1893
1855,1840,1834
1899,1904,1839
1903,1879,1856
1862,1853,1840
1867,1842,1798
1869,1872,1840
1907,1916,1922
1906,1919,1894
1897,1895,1827
1871,1838,1807
1872,1857,1856
1911,1878,1922
1889,1861,1843
1879,1843,1813
1870,1846,1867
1873,1879,1834
1855,1855,1792
1906,1874,1885
1918,1886,1936
1878,1870,1846
1872,1872,1841
1891,1905,1852
1904,1906,1841
1911,1885,1895
1904,1873,1840
1892,1901,1843
1873,1892,1871
1889,1901,1880
1884,1855,1873
1903,1895,1830
1858,1871,1829
1840,1845,1822
1843,1791,1757
1915,1859,1885
1904,1904,1910
1855,1846,1791
1827,1808,1787
1891,1887,1837
1918,1936,1933
1888,1882,1914
1879,1870,1807
1883,1846,1793
1892,1886,1824
1904,1926,1887
1874,1856,1840
1904,1877,1856
1936,1922,1919
1856,1856,1872
1802,1794,1770
1872,1853,1841
1891,1895,1886
1901,1895,1920
1846,1814,1765
1867,1823,1793
1904,1862,1911
1897,1883,1887
1890,1893,1817
1871,1852,1796
1899,1869,1879
1873,1874,1901
1885,1917,1854
1886,1879,1843
1893,1862,1917
1872,1855,1922
1889,1881,1799
1880,1906,1792
1876,1899,1872
1840,1811,1841
1839,1781,1815
1885,1854,1874
1887,1901,1875
1870,1870,1860
1854,1858,1776
1884,1887,1829
1904,1892,1921
1883,1871,1897
1818,1819,1755
1843,1842,1775
1903,1897,1984
1906,1919,1903
1870,1840,1798
1837,1808,1734
1882,1872,1898
1904,1872,1900
1821,1800,1745
1826,1805,1827
1886,1872,1913
1886,1872,1936
1830,1845,1802
1871,1895,1789
1903,1871,1939
1862,1855,1847
1897,1910,1826
1814,1813,1765
1808,1808,1806
1831,1795,1821
1857,1840,1834
1930,1940,1875
1903,1945,1943
1867,1831,1873
1807,1744,1699
1834,1788,1807
1887,1871,1846
1904,1883,1888
1825,1794,1789
1863,1803,1808
1873,1841,1873
1862,1921,1827
1825,1875,1783
1894,1865,1885
1872,1827,1904
1870,1872,1865
1893,1925,1883
1854,1821,1822
1851,1757,1778
1846,1845,1787
1865,1814,1855
1831,1870,1808
1840,1817,1841
1837,1744,1870
1835,1788,1751
1873,1877,1780
1877,1823,1876
1878,1859,1872
1889,1843,1872
1814,1834,1769
1850,1814,1808
1854,1872,1817
1872,1873,1845
1839,1776,1798
1831,1803,1843
1868,1851,1935
1871,1841,1813
1872,1812,1744
1854,1824,1849
1843,1879,1878
1804,1815,1771
1840,1777,1769
1904,1872,1895
1923,1851,1921
1861,1829,1819
1850,1859,1798
1807,1819,1781
1831,1770,1792
1859,1923,1810
1857,1874,1826
1878,1961,1899
1867,1781,1888
1828,1767,1793
1854,1897,1787
1858,1897,1872
1875,1839,1885
1835,1809,1717
1894,1860,1829
1862,1890,1903
1865,1877,1850
1873,1847,1801
1845,1790,1826
1826,1873,1877
1850,1859,1840
1852,1848,1775
1858,1855,1856
1876,1883,1919
1887,1913,1829
1894,1846,1808
1851,1799,1799
1859,1869,1840
1846,1855,1872
1859,1867,1857
1840,1807,1751
1856,1837,1839
1864,1904,1872
1835,1780,1802
1854,1841,1867
1899,1903,1961
1901,1831,1873
1853,1866,1757
1860,1876,1771
1825,1840,1804
1857,1901,1895
1821,1811,1781
1846,1856,1802
1885,1872,1894
1872,1825,1901
1883,1866,1839
1872,1865,1876
1851,1855,1840
1857,1904,1795
1835,1813,1804
1861,1906,1847
1877,1862,1899
1850,1825,1856
1862,1844,1805
1893,1898,1808
1888,1872,1872
1873,1872,1872
1856,1865,1840
1839,1810,1811
1861,1842,1845
1870,1871,1891
1858,1867,1823
1911,1936,1872
1895,1873,1931
1861,1873,1862
1813,1776,1756
1863,1927,1809
1920,1933,1925
1904,1904,1908
1821,1809,1785
1813,1717,1751
1853,1850,1855
1888,1872,1873
1867,1859,1833
1861,1914,1846
1932,1917,1943
1895,1875,1916
1813,1802,1847
1825,1827,1791
1871,1867,1852
1882,1900,1915
1864,1849,1860
1904,1899,1837
1857,1851,1821
1837,1798,1843
1855,1811,1821
1887,1889,1872
1920,1968,1918
1872,1862,1932
1853,1884,1855
1865,1829,1863
1884,1844,1845
1815,1871,1793
1824,1827,1776
1863,1865,1869
1919,1920,1938
1886,1935,1856
1843,1823,1793
1858,1775,1834
1875,1891,1936
1883,1904,1909
1862,1851,1839
1844,1835,1808
1847,1857,1871
1866,1939,1879
1872,1841,1830
1894,1862,1840
1883,1809,1872
1851,1840,1861
1830,1824,1825
1869,1857,1883
1899,1881,1904
1871,1852,1833
1841,1910,1786
1868,1872,1884
1915,1933,1971
1853,1835,1872
1802,1769,1776
1854,1827,1808
1879,1891,1858
1871,1829,1847
1870,1839,1827
1856,1824,1835
1857,1897,1930
1856,1882,1890
1856,1842,1846
1902,1875,1865
1872,1884,1867
1887,1901,1906
1847,1821,1811
1869,1840,1808
1867,1840,1881
1923,1941,1955
1879,1936,1876
1874,1915,1815
1858,1936,1854
1835,1869,1840
1840,1909,1802
1883,1991,1817
1904,1916,1913
1857,1797,1904
1840,1823,1807
1915,1929,1893
1871,1938,1889
1894,1929,1934
1859,1793,1807
1861,1818,1825
1840,1845,1904
1872,1867,1861
1874,1893,1787
1904,1936,1888
1852,1921,1880
1834,1872,1842
1850,1815,1815
1834,1832,1803
1862,1936,1935
1858,1920,1893
1841,1793,1840
1838,1808,1803
1890,1918,1934
1893,1970,1941
1870,1915,1808
1851,1785,1815
1875,1863,1868
1886,1921,1909
1808,1828,1781
1794,1823,1745
1859,1878,1864
1883,1906,1931
1904,1905,1887
1847,1857,1823
1821,1893,1841
1885,1949,1909
1861,1817,1850
1895,1866,1872
1850,1864,1861
1821,1838,1853
1831,1843,1787
1842,1843,1777
1840,1899,1861
1836,1870,1856
1792,1791,1744
1840,1859,1850
1893,1936,1935
1881,1894,1896
1807,1782,1776
1789,1807,1747
1850,1850,1854
1871,1883,1840
1831,1866,1765
1821,1808,1814
1877,1899,1927
1898,1928,1893
1824,1801,1728
1839,1825,1808
1877,1938,1917
1838,1843,1840
1817,1813,1776
1837,1856,1805
1849,1893,1850
1826,1872,1824
1823,1886,1805
1859,1823,1831
1868,1806,1846
1827,1795,1865
1792,1828,1794
1851,1899,1789
1851,1893,1805
1802,1807,1793
1835,1834,1830
1849,1895,1815
1858,1956,1877
1823,1807,1793
1808,1756,1744
1855,1830,1825
1847,1892,1877
1827,1854,1824
1843,1838,1782
1904,1889,1842
1808,1796,1818
1765,1790,1776
1821,1853,1813
1845,1886,1776
1858,1867,1821
1834,1809,1843
1808,1776,1808
1831,1771,1781
1878,1850,1854
1841,1867,1879
1840,1841,1757
1844,1830,1743
1870,1866,1823
1866,1869,1839
1861,1871,1810
1850,1845,1795
1863,1879,1842
1922,1902,1927
1798,1757,1733
1773,1722,1716
1839,1814,1814
1889,1866,1901
1842,1831,1717
1852,1836,1712
1860,1794,1838
1862,1814,1837
1843,1839,1765
1879,1903,1793
1904,1919,1853
1871,1770,1872
1838,1754,1744
1831,1830,1729
1865,1841,1808
1872,1806,1830
1867,1812,1767
1856,1836,1791
1874,1887,1845
1869,1819,1808
1858,1780,1775
1954,1902,1840
1902,1877,1818
1814,1792,1744
1831,1715,1726
1871,1776,1776
1902,1857,1855
1917,1858,1845
1886,1751,1726
1888,1777,1728
1911,1827,1839
1904,1858,1846
1871,1814,1770
1892,1797,1830
1920,1816,1782
1894,1852,1758
1904,1827,1757
1931,1813,1808
1875,1735,1781
1865,1791,1757
1861,1778,1707
1910,1767,1743
1909,1792,1766
1917,1834,1796
1918,1819,1766
1930,1796,1789
1925,1765,1847
1886,1744,1744
1893,1807,1709
1919,1841,1739
1930,1883,1805
1920,1771,1780
1904,1707,1738
1946,1830,1755
1968,1859,1830
1931,1757,1766
1904,1735,1712
1904,1769,1773
1933,1808,1793
1925,1807,1807
1922,1814,1727
1937,1799,1762
1954,1774,1744
1971,1808,1788
1983,1821,1794
1933,1770,1788
1923,1746,1767
1941,1779,1766
1961,1808,1739
1987,1841,1806
1974,1806,1799
1968,1822,1782
1973,1822,1792
1974,1778,1770
1955,1749,1869
1954,1803,1729
1940,1769,1742
1963,1809,1767
2011,1806,1900
2031,1845,1851
1996,1825,1726
1974,1782,1680
1991,1811,1790
1968,1837,1805
1984,1787,1819
2002,1805,1759
2031,1806,1797
1981,1744,1794
1958,1723,1739
1986,1776,1725
2002,1830,1818
1995,1819,1827
2011,1797,1756
2004,1782,1765
2019,1813,1842
2032,1808,1808
2019,1757,1821
2015,1782,1801
2064,1843,1856
2014,1810,1825
1971,1781,1778
2009,1830,1790
2067,1861,1809
2013,1778,1758
1989,1729,1707
2022,1777,1751
2033,1823,1789
2027,1841,1834
2064,1867,1825
2062,1811,1712
2037,1769,1782
2000,1744,1728
1999,1767,1771
2023,1805,1777
2030,1809,1838
2037,1811,1865
2069,1835,1856
2045,1776,1762
2075,1819,1808
2070,1828,1805
2054,1805,1775
2047,1811,1796
2087,1829,1837
2083,1792,1873
2032,1776,1790
2095,1833,1832
2097,1809,1907
2041,1787,1771
1999,1737,1679
2059,1807,1751
2125,1883,1866
2120,1853,1885
2061,1775,1810
2032,1719,1717
2053,1761,1795
2093,1843,1854
2077,1821,1777
2089,1783,1781
2096,1814,1835
2094,1808,1838
2079,1766,1842
2110,1796,1783
2134,1878,1840
2105,1872,1835
2079,1752,1713
2135,1805,1776
2130,1808,1842
2096,1791,1811
2064,1777,1807
2112,1819,1821
2166,1877,1897
2109,1840,1776
2019,1745,1670
2081,1777,1799
2127,1817,1781
2105,1850,1807
2103,1855,1798
2114,1822,1819
2109,1803,1807
2103,1815,1810
2096,1813,1779
2101,1841,1822
2131,1843,1884
2128,1762,1887
2117,1776,1767
2135,1814,1831
2129,1827,1822
2106,1834,1813
2096,1825,1764
2122,1809,1761
2142,1823,1855
2159,1859,1808
2064,1776,1777
2060,1799,1808
2112,1854,1823
2101,1788,1892
2078,1770,1718
2147,1870,1747
2154,1854,1838
2093,1774,1709
2064,1758,1783
2122,1841,1835
2147,1855,1841
2099,1805,1871
2071,1799,1826
2097,1839,1812
2134,1877,1917
2125,1814,1888
2093,1777,1738
2107,1830,1759
2142,1858,1854
2129,1829,1843
2119,1805,1818
2094,1787,1791
2114,1815,1829
2063,1822,1781
2064,1773,1797
2095,1817,1788
2135,1866,1908
2096,1817,1830
2071,1798,1729
2109,1823,1829
2119,1839,1894
2078,1802,1797
2082,1840,1804
2145,1870,1824
2087,1778,1840
2079,1819,1748
2122,1888,1840
2151,1916,1950
2112,1808,1875
2046,1718,1801
2047,1714,1664
2082,1785,1787
2127,1855,1844
2075,1841,1840
2070,1829,1846
2112,1834,1829
2103,1809,1866
2119,1824,1894
2082,1824,1838
2069,1823,1776
2108,1840,1845
2111,1844,1846
2112,1824,1824
2063,1776,1771
2039,1787,1839
2075,1807,1840
2085,1819,1774
2110,1867,1872
2064,1857,1872
2031,1802,1813
2064,1750,1830
2099,1818,1910
2101,1948,1854
2098,1905,1847
2063,1756,1774
2096,1777,1813
2082,1825,1836
2074,1834,1840
2034,1856,1783
2080,1984,1904
2117,1999,1898
2042,1729,1790
2035,1638,1763
2057,1737,1814
2098,1870,1931
2096,1840,1881
2007,1779,1745
2016,1846,1862
2064,1917,1935
1985,1846,1795
1968,1765,1648
1997,1790,1776
2032,1845,1881
2099,1872,1841
2031,1758,1777
2059,1804,1854
2061,1917,1949
2055,1926,1872
1983,1766,1749
2091,1724,1759
2064,1819,1859
2002,1925,1869
1985,1819,1776
2002,1762,1808
2017,1791,1859
2045,1888,1922
2019,1899,1849
2060,1797,1875
2031,1743,1822
2000,1785,1776
2017,1818,1759
2039,1808,1775
2064,1827,1910
2081,1849,1893
2055,1904,1857
2015,1843,1801
2004,1798,1866
2073,1776,1936
2058,1851,1806
2102,1951,1863
2003,1789,1831
2021,1744,1865
2014,1869,1798
2028,1875,1793
2031,1778,1891
2014,1785,1890
2003,1803,1811
2029,1843,1879
2046,1906,1968
2013,1883,1830
1951,1793,1745
1997,1779,1862
2023,1799,1857
1983,1823,1850
1968,1793,1792
1991,1808,1858
2075,1942,1979
2062,1938,2000
1984,1849,1890
1920,1720,1771
1898,1761,1781
2037,1809,1853
2015,1835,1801
2014,1793,1822
1997,1776,1879
1984,1845,1911
2033,1961,1866
1949,1818,1851
2026,1727,1887
2000,1775,1872
1935,1845,1801
1949,1843,1836
2015,1869,1927
1979,1837,1879
1947,1872,1855
1979,1933,1840
1981,1874,1853
1927,1761,1853
1920,1727,1847
1971,1809,1871
2011,1888,1941
1967,1824,1817
1949,1776,1729
1959,1782,1813
1952,1871,1888
1994,1930,1932
1936,1850,1853
1966,1811,1857
1930,1787,1839
1931,1862,1905
1933,1882,1814
1958,1855,1905
1958,1815,1873
1911,1753,1808
1914,1793,1782
1906,1919,1884
1965,1846,1966
1842,1825,1810
2000,1816,1738
1911,1798,1853
1965,1810,1905
1975,1869,1925
1891,1776,1872
1911,1862,1854
1944,1910,1874
1931,1872,1859
1857,1849,1794
1874,1822,1817
1922,1769,1876
1889,1771,1869
1905,1807,1915
1914,1830,1861
1934,1840,1869
1946,1949,1962
1841,1891,1796
1947,1797,1807
1921,1819,1895
1908,1891,1874
1856,1863,1843
1925,1841,1946
1895,1840,1895
1898,1879,1842
1885,1876,1847
1900,1877,1904
1934,1808,1867
1859,1807,1853
1811,1814,1803
1963,1858,1862
1962,1921,1885
1874,1855,1851
1895,1792,1858
1870,1858,1871
1904,1910,1884
1923,1856,1899
1849,1771,1791
1883,1827,1857
1915,1891,1910
1945,1919,2011
1872,1953,1869
1917,1922,1878
1862,1891,1840
1818,1776,1793
1845,1767,1829
1888,1897,1879
1918,1872,1934
1866,1813,1906
1847,1840,1795
1874,1910,1856
1904,1904,1955
1872,1840,1899
1841,1845,1779
1849,1824,1802
1872,1874,1904
1868,1895,1871
1856,1873,1814
1886,1883,1903
1861,1873,1938
1840,1889,1911
1797,1850,1835
1810,1877,1856
1914,1903,1934
1891,1893,1941
1839,1840,1866
1822,1860,1823
1849,1856,1847
1834,1872,1872
1839,1870,1841
1822,1868,1822
1863,1887,1872
1856,1882,1926
1813,1829,1813
1862,1897,1895
1841,1894,1895
1838,1854,1874
1817,1842,1838
1840,1875,1835
1907,1947,1943
1873,1925,1905
1831,1847,1822
1821,1886,1835
1890,1921,1933
1843,1886,1903
1809,1835,1803
1857,1887,1904
1911,1969,1987
1815,1868,1841
1776,1786,1746
1811,1802,1846
1859,1874,1981
1861,1919,1905
1802,1872,1798
1821,1855,1835
1827,1856,1874
1838,1919,1918
1842,1919,1870
1836,1874,1852
1829,1863,1872
1831,1825,1891
1847,1841,1865
1856,1883,1851
1871,1902,1919
1831,1890,1872
1829,1856,1830
1840,1901,1881
1866,1948,1925
1831,1851,1889
1817,1823,1821
1853,1897,1915
1872,1919,1973
1808,1827,1799
1790,1825,1762
1841,1887,1849
1887,1928,1953
1853,1878,1891
1799,1871,1823
1829,1873,1872
1878,1890,1938
1845,1921,1888
1826,1904,1857
1802,1776,1840
1822,1842,1856
1840,1915,1895
1853,1938,1863
1879,1926,1858
1843,1901,1870
1807,1889,1932
1819,1855,1875
1840,1867,1807
1790,1839,1856
1794,1862,1847
1802,1854,1840
1821,1900,1872
1856,1967,1904
1855,1892,1930
1801,1824,1777
1808,1866,1801
1831,1958,1904
1843,1978,1939
1811,1903,1885
1841,1882,1905
1841,1879,1872
1826,1873,1875
1791,1795,1820
1806,1883,1805
1829,1943,1899
1867,1904,1981
1820,1837,1824
1830,1877,1824
1822,1859,1890
1799,1839,1868
1785,1826,1795
1813,1875,1839
1840,1921,1930
1807,1936,1895
1776,1841,1739
1808,1861,1799
1838,1927,1969
1840,1985,1920
1808,1871,1767
1839,1872,1850
1828,1887,1873
1833,1872,1883
1838,1840,1847
1851,1871,1898
1821,1863,1904
1730,1856,1828
1744,1877,1774
1838,1854,1773
1839,1824,1857
1837,1839,1934
1770,1824,1777
1813,1870,1825
1841,1901,1902
1834,1904,1862
1820,1887,1830
1802,1931,1821
1831,1897,1903
1806,1844,1858
1826,1866,1831
1799,1886,1909
1814,1967,1908
1844,1904,1854
1814,1831,1792
1794,1831,1808
1799,1863,1878
1788,1837,1907
1782,1835,1778
1838,1919,1819
1841,1920,1936
1776,1875,1855
1787,1895,1817
1822,1881,1872
1840,1840,1881
1793,1794,1821
1776,1856,1802
1825,1910,1869
1840,1914,1872
1796,1859,1838
1819,1890,1873
1831,1943,1902
1807,1914,1873
1809,1883,1835
1778,1814,1788
1797,1906,1829
1848,1973,1920
1808,1881,1884
1787,1833,1853
1804,1807,1808
1846,1878,1883
1833,1936,1887
1795,1889,1810
1808,1811,1805
1808,1851,1869
1803,1886,1924
1815,1889,1851
1808,1862,1813
1808,1875,1904
1792,1877,1885
1771,1819,1759
1875,1877,1855
1811,1869,1847
1803,1902,1868
1792,1826,1834
1837,1965,1892
1815,1913,1872
1805,1794,1843
1808,1781,1829
1855,1913,1950
1858,1989,1937
1791,1903,1776
1766,1802,1737
1806,1828,1855
1861,1931,1986
1795,1961,1833
1745,1829,1716
1776,1829,1827
1817,1876,1909
1801,1852,1883
1808,1923,1818
1818,1872,1840
1820,1863,1920
1828,1894,1889
1802,1904,1815
1832,1977,1840
1863,2001,1918
1793,1782,1854
1783,1790,1787
1791,1837,1802
1845,1922,1915
1833,1907,1881
1767,1835,1795
1787,1817,1857
1845,1999,1961
1840,2000,1907
1807,1883,1759
1822,1738,1844
1839,1824,1911
1797,1866,1846
1815,1858,1835
1809,1841,1792
1815,1881,1903
