1821,1799,1744
1886,1875,1858
1872,1904,1908
1823,1824,1805
1818,1803,1754
1879,1851,1838
1884,1872,1883
1931,1851,1825
1859,1844,1793
1897,1861,1852
1835,1858,1875
1856,1843,1818
1873,1830,1786
1894,1857,1849
1870,1869,1882
1868,1843,1823
1883,1856,1803
1866,1886,1856
1886,1866,1872
1839,1808,1791
1857,1818,1776
1865,1856,1856
1857,1860,1862
1814,1836,1808
1933,1872,1819
1936,1876,1862
1811,1842,1851
1822,1812,1785
1854,1823,1782
1872,1867,1859
1825,1872,1890
1894,1855,1839
1886,1846,1804
1853,1872,1851
1856,1863,1863
1871,1845,1822
1893,1857,1814
1869,1872,1863
1856,1875,1885
1826,1799,1786
1872,1811,1782
1878,1872,1859
1853,1868,1876
1854,1842,1829
1887,1840,1815
1873,1847,1846
1842,1857,1882
1835,1826,1815
1858,1834,1797
1865,1861,1859
1853,1867,1886
1897,1846,1839
1875,1856,1819
1867,1872,1869
1850,1859,1883
1863,1840,1830
1873,1851,1809
1871,1873,1865
1857,1887,1893
1879,1862,1849
1856,1825,1790
1867,1878,1863
1851,1872,1891
1845,1827,1808
1857,1830,1795
1866,1872,1870
1872,1876,1890
1865,1856,1833
1900,1868,1823
1898,1890,1890
1836,1841,1863
1830,1826,1806
1866,1838,1805
1883,1873,1866
1841,1851,1870
1839,1836,1822
1862,1847,1815
1862,1877,1871
1860,1878,1895
1875,1872,1858
1900,1872,1830
1858,1859,1851
1854,1869,1885
1859,1845,1823
1874,1846,1810
1873,1877,1883
1889,1913,1926
1883,1872,1856
1845,1821,1779
1859,1840,1846
1866,1857,1889
1874,1871,1852
1875,1856,1819
1841,1844,1830
1838,1851,1871
1853,1838,1834
1877,1855,1823
1877,1895,1890
1838,1850,1866
1851,1824,1817
1863,1847,1819
1868,1881,1879
1866,1889,1893
1873,1872,1846
1875,1850,1811
1872,1874,1871
1890,1885,1911
1860,1851,1830
1867,1852,1815
1879,1906,1888
1862,1885,1901
1879,1867,1840
1860,1830,1785
1829,1834,1827
1828,1845,1859
1856,1836,1823
1890,1847,1811
1885,1875,1871
1889,1879,1885
1893,1863,1826
1857,1852,1798
1854,1867,1865
1871,1877,1898
1881,1862,1840
1893,1872,1839
1872,1882,1871
1864,1877,1894
1866,1862,1838
1909,1876,1828
1919,1933,1912
1833,1873,1874
1814,1818,1798
1845,1818,1781
1871,1873,1859
1856,1877,1882
1863,1865,1831
1875,1871,1811
1876,1895,1876
1873,1898,1891
1904,1876,1837
1904,1872,1821
1874,1891,1875
1847,1879,1879
1871,1857,1828
1899,1874,1814
1843,1852,1831
1833,1862,1867
1877,1867,1830
1911,1881,1822
1860,1878,1845
1863,1890,1873
1839,1857,1808
1872,1866,1795
1874,1894,1850
1862,1874,1867
1845,1851,1808
1871,1849,1803
1885,1893,1869
1872,1897,1887
1865,1872,1824
1886,1872,1808
1885,1901,1872
1874,1909,1890
1872,1873,1822
1893,1873,1808
1873,1888,1841
1844,1875,1859
1856,1857,1825
1848,1837,1783
1854,1873,1854
1872,1904,1901
1883,1867,1826
1876,1845,1786
1863,1875,1853
1847,1888,1879
1847,1859,1815
1874,1856,1798
1882,1895,1872
1871,1894,1890
1859,1860,1814
1859,1844,1787
1873,1875,1856
1861,1885,1892
1872,1861,1826
1906,1889,1835
1876,1894,1872
1837,1859,1854
1840,1841,1792
1872,1845,1786
1883,1872,1867
1872,1893,1888
1882,1878,1840
1845,1833,1781
1831,1845,1829
1837,1856,1859
1862,1841,1813
1879,1851,1806
1877,1885,1872
1872,1891,1891
1861,1853,1827
1879,1855,1809
1887,1879,1873
1867,1873,1891
1872,1857,1829
1903,1861,1815
1886,1887,1873
1870,1888,1897
1873,1865,1840
1893,1872,1821
1887,1893,1872
1875,1878,1886
1851,1821,1807
1882,1825,1798
1925,1901,1909
1891,1908,1927
1856,1833,1809
1841,1811,1766
1842,1856,1844
1861,1875,1898
1883,1859,1854
1914,1877,1851
1902,1899,1905
1846,1865,1889
1859,1830,1814
1884,1851,1820
1909,1891,1898
1904,1892,1925
1881,1856,1858
1902,1861,1841
1903,1897,1904
1862,1870,1893
1882,1865,1840
1917,1873,1838
1900,1872,1875
1850,1830,1866
1829,1802,1808
1879,1830,1817
1897,1875,1901
1871,1883,1918
1889,1874,1859
1904,1871,1833
1872,1869,1856
1849,1862,1870
1856,1844,1831
1888,1858,1837
1898,1885,1895
1872,1865,1904
1865,1838,1840
1879,1840,1823
1894,1885,1897
1887,1889,1908
1878,1850,1840
1867,1815,1793
1866,1872,1862
1874,1890,1903
1867,1826,1814
1859,1808,1783
1869,1841,1856
1875,1872,1895
1890,1854,1840
1893,1853,1818
1873,1874,1873
1856,1871,1879
1860,1849,1826
1887,1856,1817
1893,1879,1875
1872,1886,1903
1897,1873,1847
1886,1855,1815
1871,1861,1866
1877,1882,1909
1904,1891,1869
1872,1829,1792
1850,1833,1834
1840,1843,1869
1857,1840,1826
1907,1878,1846
1891,1878,1873
1871,1857,1887
1855,1826,1818
1861,1827,1796
1861,1862,1860
1862,1856,1881
1877,1841,1829
1898,1844,1827
1887,1881,1894
1872,1877,1905
1872,1843,1840
1897,1849,1825
1895,1877,1888
1887,1883,1905
1889,1867,1845
1878,1845,1817
1874,1872,1877
1883,1886,1898
1878,1860,1840
1896,1856,1829
1872,1863,1872
1809,1835,1850
1840,1830,1814
1877,1837,1815
1867,1859,1872
1858,1872,1895
1860,1843,1831
1878,1846,1814
1887,1887,1888
1875,1884,1906
1855,1842,1829
1873,1847,1814
1879,1883,1877
1861,1867,1888
1878,1862,1842
1895,1854,1830
1902,1904,1904
1873,1882,1899
1814,1806,1789
1843,1818,1786
1871,1872,1874
1876,1874,1899
1872,1849,1830
1872,1841,1802
1874,1868,1863
1886,1891,1901
1884,1856,1835
1887,1841,1808
1889,1869,1867
1872,1873,1889
1874,1855,1831
1899,1859,1827
1891,1888,1889
1887,1891,1909
1870,1844,1825
1882,1843,1813
1882,1872,1879
1872,1872,1897
1891,1856,1841
1898,1859,1825
1895,1891,1889
1855,1856,1875
1854,1826,1808
1877,1849,1818
1895,1893,1893
1861,1859,1889
1858,1827,1811
1886,1852,1815
1881,1872,1870
1872,1869,1887
1875,1843,1833
1872,1830,1808
1872,1863,1875
1878,1883,1904
1871,1840,1834
1883,1846,1815
1885,1878,1876
1856,1863,1880
1856,1840,1821
1883,1854,1819
1879,1883,1876
1873,1883,1892
1875,1862,1835
1872,1850,1808
1872,1878,1872
1866,1884,1893
1881,1872,1845
1917,1903,1856
1866,1882,1862
1810,1830,1831
1821,1803,1776
1871,1841,1799
1925,1930,1872
1871,1902,1880
1850,1811,1822
1885,1840,1835
1891,1872,1883
1861,1854,1887
1859,1827,1822
1874,1840,1809
1889,1888,1879
1872,1875,1883
1872,1850,1828
1894,1862,1817
1872,1872,1859
1857,1870,1869
1882,1875,1836
1878,1860,1808
1843,1855,1847
1841,1841,1871
1853,1824,1808
1883,1848,1811
1882,1872,1884
1872,1867,1887
1891,1845,1807
1901,1855,1806
1899,1889,1853
1872,1886,1905
1898,1866,1840
1890,1874,1835
1872,1893,1895
1838,1855,1876
1853,1834,1821
1872,1842,1808
1872,1857,1856
1872,1872,1884
1889,1857,1845
1875,1843,1809
1857,1865,1856
1840,1855,1860
1856,1837,1814
1885,1845,1822
1903,1888,1890
1938,1874,1849
1855,1856,1810
1869,1879,1889
1858,1886,1929
1807,1826,1851
1820,1799,1777
1874,1825,1812
1879,1872,1879
1872,1882,1894
1889,1879,1857
1877,1847,1839
1842,1842,1872
1851,1842,1878
1863,1840,1841
1870,1849,1849
1869,1876,1914
1867,1883,1936
1882,1853,1874
1899,1862,1870
1920,1920,1959
1822,1840,1925
1817,1817,1921
1856,1845,1978
1911,1903,2141
1905,1904,2158
1904,1853,2063
1856,1856,2074
1856,1917,2207
1820,1829,2199
1838,1786,2133
1890,1827,2187
1882,1854,2245
1840,1847,2257
1851,1815,2206
1871,1827,2207
1875,1865,2288
1860,1856,2301
1861,1815,2239
1900,1822,2219
1888,1853,2299
1851,1854,2349
1854,1810,2289
1867,1815,2275
1866,1839,2330
1857,1834,2336
1897,1846,2309
1939,1885,2336
1859,1814,2320
1817,1801,2289
1813,1771,2262
1845,1776,2276
1872,1839,2341
1911,1855,2387
1924,1829,2297
1936,1808,2256
1831,1827,2342
1829,1835,2415
1883,1795,2336
1873,1805,2260
1840,1863,2300
1872,1851,2369
1879,1782,2294
1822,1760,2281
1836,1808,2383
1882,1854,2411
1890,1809,2325
1837,1753,2256
1830,1795,2325
1861,1759,2399
1881,1743,2347
1877,1797,2275
1867,1835,2337
1854,1808,2368
1877,1774,2320
1893,1744,2228
1861,1744,2306
1872,1776,2313
1875,1775,2294
1993,1840,2288
1912,1833,2343
1777,1743,2370
1808,1717,2358
1877,1710,2229
1854,1742,2271
1792,1738,2302
1834,1701,2287
1890,1710,2264
1889,1778,2330
1851,1774,2319
1840,1705,2234
1885,1709,2286
1968,1767,2346
1889,1722,2282
1839,1712,2267
1905,1764,2333
1860,1753,2285
1831,1708,2347
1851,1707,2341
1881,1743,2289
1901,1774,2374
1885,1724,2406
1872,1712,2304
1894,1730,2314
1953,1813,2405
1885,1808,2359
1808,1643,2259
1853,1659,2297
1903,1771,2375
1869,1701,2326
1902,1638,2268
1839,1678,2272
1872,1776,2413
1856,1749,2352
1815,1642,2231
1842,1652,2255
1858,1707,2322
1855,1726,2334
1904,1702,2320
1904,1712,2320
1875,1741,2357
1855,1742,2355
1885,1718,2269
1897,1715,2269
1872,1728,2291
1856,1693,2345
1871,1694,2251
1901,1704,2254
1895,1705,2389
1879,1695,2359
1886,1683,2234
1958,1745,2295
1872,1719,2271
1834,1675,2235
1869,1697,2192
1903,1697,2201
1957,1738,2356
1901,1715,2256
1867,1675,2192
1894,1674,2197
1873,1693,2249
1868,1727,2236
1889,1727,2160
1921,1694,2175
1908,1698,2256
1879,1698,2223
1900,1694,2165
1937,1709,2134
1925,1739,2215
1873,1716,2159
1875,1678,2096
1891,1664,2091
1885,1704,2160
1888,1712,2106
1914,1733,2112
1911,1725,2079
1923,1726,2131
1901,1689,2134
1856,1664,2070
1901,1711,2093
1920,1750,2096
1876,1731,2113
1859,1685,1985
1894,1711,2045
1922,1774,2147
1919,1791,2132
1889,1710,1996
1893,1701,2037
1868,1710,2047
1874,1724,2125
1891,1707,2046
1896,1706,2055
1893,1744,2137
1893,1745,2167
1903,1726,2121
1919,1743,2117
1891,1759,2202
1887,1758,2190
1894,1734,2133
1906,1771,2125
1919,1788,2205
1895,1745,2235
1885,1721,2151
1897,1744,2085
1901,1792,2213
1891,1796,2203
1867,1744,2086
1898,1744,2063
1902,1776,2155
1877,1793,2230
1850,1722,2125
1870,1722,2061
1883,1771,2112
1887,1791,2142
1893,1774,2078
1911,1776,2059
1909,1813,2158
1887,1817,2144
1883,1776,2093
1882,1793,2000
1877,1813,2043
1889,1818,2098
1893,1753,2002
1909,1793,2010
1899,1843,2069
1867,1802,2099
1855,1749,1963
1872,1776,1947
1888,1826,2028
1887,1820,2075
1872,1808,1950
1890,1836,1922
1897,1839,2059
1882,1840,2046
1899,1840,1879
1871,1796,1920
1907,1855,1954
1887,1847,1890
1881,1818,1969
1840,1807,1901
1840,1831,1993
1853,1830,1897
1868,1808,1876
1890,1826,1921
1895,1894,1919
1883,1865,1915
1851,1785,1829
1869,1822,1829
1869,1869,1904
1856,1857,1889
1883,1857,1878
1934,1925,1921
1855,1873,1917
1829,1817,1841
1855,1833,1775
1851,1831,1761
1839,1856,1834
1844,1858,1872
1873,1847,1856
1883,1835,1798
1887,1877,1919
1872,1914,1968
1872,1891,1779
1827,1813,1714
1830,1838,1776
1868,1872,1879
1872,1859,1756
1873,1876,1769
1874,1920,1833
1859,1917,1845
1856,1854,1782
1833,1818,1695
1890,1883,1828
1862,1894,1798
1791,1841,1688
1827,1858,1744
1866,1895,1850
1821,1856,1809
1818,1840,1785
1869,1831,1756
1885,1872,1839
1850,1926,1785
1840,1872,1729
1881,1856,1744
1881,1903,1789
1873,1901,1802
1824,1825,1738
1834,1851,1733
1859,1904,1785
1843,1894,1762
1813,1817,1759
1851,1869,1747
1843,1937,1757
1819,1872,1743
1818,1808,1723
1854,1855,1713
1841,1857,1744
1824,1872,1767
1837,1872,1755
1879,1895,1741
1870,1930,1813
1858,1904,1808
1847,1827,1745
1839,1819,1712
1827,1889,1756
1817,1895,1764
1819,1840,1697
1857,1840,1721
1882,1919,1823
1879,1950,1842
1837,1877,1722
1810,1805,1698
1862,1845,1798
1833,1855,1794
1840,1859,1729
1939,1887,1745
1920,1875,1818
1798,1871,1858
1782,1877,1786
1846,1872,1780
1841,1858,1783
1795,1849,1776
1797,1867,1767
1856,1880,1805
1871,1877,1776
1857,1872,1807
1794,1869,1773
1824,1912,1807
1911,1883,1872
1887,1887,1857
1815,1854,1774
1781,1795,1749
1803,1890,1819
1819,1875,1818
1851,1841,1772
1874,1892,1808
1830,1918,1819
1818,1829,1818
1842,1835,1759
1843,1840,1776
1842,1910,1869
1889,1903,1856
1814,1910,1746
1799,1889,1776
1822,1823,1861
1840,1858,1871
1858,1840,1822
1858,1841,1746
1828,1854,1776
1835,1837,1805
1826,1823,1776
1854,1906,1795
1854,1834,1827
1851,1777,1888
1890,1856,1856
1824,1774,1706
1787,1808,1735
1805,1840,1808
1838,1802,1764
1874,1823,1792
1872,1840,1840
1856,1845,1799
1886,1859,1856
1914,1904,1927
1813,1826,1727
1755,1860,1662
1794,1815,1650
1859,1892,1763
1871,1858,1868
1850,1726,1840
1854,1754,1751
1891,1811,1756
1870,1873,1810
1834,1840,1814
1839,1803,1744
1875,1901,1770
1892,1911,1856
1866,1844,1839
1808,1767,1776
1833,1792,1699
1881,1999,1747
1870,2043,1730
1840,1707,1642
1840,1664,1733
1887,1872,1887
1904,1869,1820
1860,1826,1662
1822,1799,1679
1827,1858,1794
1841,1867,1812
1871,1792,1775
1886,1841,1747
1871,2087,1783
1883,1904,1790
1889,1791,1646
1861,1815,1662
1873,1774,1788
1878,1794,1812
1853,1863,1685
1854,1846,1622
1887,1916,1769
1826,1747,1838
1818,1733,1746
1903,1866,1713
1904,1983,1712
1834,1820,1697
1831,1738,1685
1904,1814,1766
1843,1835,1758
1822,1838,1725
1830,1863,1631
1847,1853,1680
1871,1828,1792
1840,1735,1772
1840,1779,1664
1864,1804,1675
1872,1857,1808
1874,1841,1793
1872,1791,1597
1917,1787,1664
1851,1885,1679
1751,1852,1663
1792,1825,1691
1883,1767,1791
1927,1877,1914
1872,1989,1762
1851,1824,1584
1843,1776,1671
1846,1854,1750
1900,2011,1786
1890,1791,1744
1823,1711,1683
1831,1776,1722
1872,1829,1698
1888,1782,1666
1917,1853,1693
2039,1936,1752
1951,1863,1796
1739,1722,1701
1761,1802,1637
1819,1795,1681
1834,1790,1690
1831,1878,1603
1870,1865,1674
1879,1854,1781
1904,1755,1889
1861,1840,1715
1970,1941,1680
2175,1955,1734
1908,1904,1808
1749,1895,1905
1744,1869,1523
1761,1722,1519
1808,1733,1648
1869,1766,1689
1895,1853,1840
1925,1936,1922
1953,1919,1754
1979,1888,1688
1776,1822,1573
1859,2095,1808
2116,2140,1954
1872,1638,1632
1778,1610,1554
1855,1824,1719
2053,2067,1776
2122,1934,1723
1807,1697,1648
1601,1661,1629
1839,1883,1785
2160,1990,1856
2192,1869,1690
1776,1725,1595
1808,1776,1723
1951,1878,1828
1841,1903,1777
1610,1773,1610
1629,1785,1510
1869,1745,1598
1917,1805,1679
1778,1844,1733
1877,1872,1825
1886,1858,1785
1723,1762,1674
1697,1774,1737
1792,1934,1733
1913,1859,1685
1936,1879,1747
1968,1931,1743
1774,1791,1681
1583,1772,1583
1681,1831,1666
1783,1854,1847
1904,1808,1813
1904,1866,1646
1806,1849,1630
1680,1797,1713
1735,1803,1739
1825,1839,1667
1899,1886,1735
1885,1871,1831
1880,1951,1963
1766,1788,1648
1860,1790,1521
1844,1823,1627
1775,1857,1753
1818,1887,1776
1824,1875,1763
1687,1799,1722
1687,1863,1801
1749,1840,1735
1856,1851,1766
1835,1887,1823
1776,1873,1757
1872,1865,1699
1890,1853,1767
1776,1937,1786
1773,1883,1744
1744,1771,1680
1776,1785,1726
1897,1869,1824
1950,1925,1745
1776,1840,1660
1874,1822,1647
1841,1857,1781
1712,1840,1804
1744,1859,1799
1738,1909,1775
1769,1794,1741
1822,1873,1802
1827,1838,1761
1757,1791,1730
1737,1757,1756
1786,1894,1749
1825,1939,1741
1819,1815,1772
1806,1782,1779
1834,1808,1833
1852,1823,1719
1920,1911,1719
1906,1949,1797
1905,1862,1841
1817,1770,1686
1711,1827,1767
1733,1965,1817
1757,1885,1822
1867,1847,1746
1968,1971,1795
1778,1850,1806
1735,1835,1729
1742,1819,1662
1767,1841,1715
1811,1878,1843
1869,2002,1866
1910,2013,1848
1840,1814,1770
1774,1766,1779
1834,1809,1775
1943,1873,1826
1918,1837,1677
1831,1840,1750
1791,1867,1824
1775,1909,1788
1839,1827,1738
1857,1859,1809
1846,1868,1894
1780,1871,1719
1835,1810,1779
1866,1830,1936
1822,1830,1767
1797,1808,1735
1797,1846,1761
1807,1830,1839
1847,1851,1804
1886,1841,1769
1907,1879,1872
1838,1864,1807
1781,1842,1750
1813,1867,1743
1856,1888,1787
1872,1927,1821
1840,1810,1792
1872,1934,1813
1892,1909,1835
1909,1899,1879
1856,1819,1821
1794,1759,1691
1776,1872,1695
1824,1904,1874
1889,1931,1988
2014,1984,1823
1886,1857,1740
1766,1818,1793
1775,1734,1808
1831,1833,1749
1923,1787,1856
1936,1806,1915
1859,1867,1817
1824,1840,1745
1849,1818,1779
1904,1920,1869
1891,1926,1833
1861,1841,1771
1917,1875,1904
1793,1846,1821
1808,1822,1760
1857,1819,1806
1823,1887,1799
1849,1917,1902
1896,2015,1955
1851,1889,1829
1829,1778,1746
1875,1808,1788
1851,1840,1765
1858,1829,1773
1879,1855,1958
1857,1872,1866
1879,1891,1835
1914,1845,1788
1904,1880,1809
1901,1834,1874
1863,1861,1823
1854,1808,1765
1856,1862,1742
1848,1858,1813
1855,1876,1869
1889,1869,1863
1905,1886,1851
1882,1843,1836
1813,1792,1794
1814,1808,1758
1865,1853,1830
1880,1895,1872
1877,1872,1902
1857,1919,1794
1855,1904,1773
1917,1939,1917
1893,1871,1878
1856,1808,1719
1898,1831,1788
1889,1895,1898
1872,1875,1873
1872,1874,1809
1889,1904,1823
1885,1950,1851
1854,1837,1867
1910,1743,1787
1959,1819,1723
1851,1874,1830
1770,1859,1799
1803,1872,1808
1917,1990,1909
1950,1907,1840
1877,1796,1901
1842,1847,1863
1893,1966,1882
1872,1884,1865
1866,1826,1813
1841,1855,1771
1884,1882,1810
1885,1900,1808
1817,1863,1777
1868,1827,1769
1924,1904,1853
1872,1949,1904
1851,1907,1875
1865,1835,1821
1888,1840,1920
1861,1909,1867
1887,1931,1835
1892,1953,1764
1919,1879,1861
1881,1883,1904
1872,1836,1872
1859,1803,1852
1863,1872,1783
1856,1863,1863
1868,1879,1887
1883,1926,1770
1846,1789,1735
1869,1844,1861
1898,1837,1831
1885,1821,1793
1910,1875,1872
1904,1907,1920
1875,1904,1824
1916,1888,1799
1843,1894,1823
1872,1934,1984
1887,1855,1959
1869,1823,1789
1867,1851,1741
1891,1831,1877
1862,1919,1883
1869,1888,1786
1888,1859,1843
1897,1910,1885
1847,1839,1799
1821,1851,1781
1885,1919,1840
1895,1958,1968
1918,1862,1969
1910,1809,1770
1904,1835,1731
1884,1826,1866
1899,1872,1931
1846,1881,1775
1903,1863,1797
1898,1875,1876
1838,1857,1872
1877,1869,1856
1893,1872,1843
1897,1899,1926
1875,1872,1941
1847,1856,1822
1862,1893,1795
1885,1904,1922
1917,1922,1927
1882,1840,1813
1919,1929,1851
1947,1919,1905
1852,1792,1781
1903,1712,1775
1935,1915,1952
1872,1870,1925
1803,1901,1849
1859,1919,1808
1898,1778,1762
1862,1900,1854
1852,1852,1889
1975,1859,1899
1923,1911,1842
1839,1942,1998
1858,1875,1859
1887,1849,1818
1879,1840,1861
1850,1914,1898
1871,1911,1889
1858,1769,1819
1855,1811,1749
1887,1881,1868
1889,1845,1936
1894,1839,1821
1931,1877,1791
1902,1856,1856
1867,1919,1904
1881,1856,1823
2004,1951,1885
1907,1901,1893
1777,1822,1841
1881,1836,1770
1905,1875,1815
1846,1899,1899
1841,1861,1918
1883,1870,1872
1923,1812,1862
1867,1921,1911
1831,1839,1869
1856,1873,1791
1897,1850,1883
1871,1865,1894
1894,1878,1883
1865,1881,1870
1886,1766,1808
1951,1808,1887
1920,1728,1875
1856,1840,1753
1845,1856,1773
1959,1938,1935
1911,1805,1901
1846,1821,1804
1813,1834,1815
1809,1866,1867
1827,1879,1921
1875,1906,1886
1885,1917,1818
1893,1897,1954
1925,1913,1953
1899,1819,1830
1834,1780,1726
1838,1858,1872
1866,1856,1955
1923,1847,1799
1912,1823,1766
1825,1859,1913
1824,1889,1920
1883,1859,1778
1882,1825,1743
1872,1875,1842
1827,1884,1888
1845,1856,1859
1857,1843,1826
1827,1872,1865
1853,1850,1906
1904,1891,1888
1907,1909,1891
1873,1920,1927
1846,1831,1822
1884,1818,1845
1925,1921,1899
1863,1903,1915
1822,1833,1851
1843,1793,1729
1926,1872,1793
1887,1906,1881
1799,1843,1872
1781,1808,1821
1847,1818,1845
1904,1911,1963
1846,1915,1821
1840,1838,1793
1866,1851,1846
1889,1915,1890
1889,1843,1854
1911,1839,1855
1935,1876,1892
1892,1915,1920
1867,1876,1888
1895,1823,1789
1840,1813,1787
1861,1921,1925
1840,1869,1878
1827,1801,1739
1936,1850,1808
1891,1933,1927
1782,1898,1872
1796,1803,1863
1874,1863,1910
1904,1942,1918
1873,1919,1849
1864,1869,1759
1888,1831,1808
1862,1858,1883
1854,1875,1873
1828,1846,1751
1822,1807,1787
1873,1840,1905
1942,1919,1986
1949,1890,1974
1872,1840,1826
1877,1853,1772
1851,1868,1830
1861,1872,1851
1902,1927,1882
1834,1859,1899
1811,1786,1801
1903,1853,1819
1926,1835,1854
1799,1813,1878
1783,1834,1933
1845,1853,1828
1970,1999,1872
1878,1847,1819
1786,1809,1840
1819,1785,1815
1908,1840,1889
1893,1890,1888
1827,1841,1840
1862,1820,1859
1942,1814,1810
1872,1824,1842
1803,1838,1885
1858,1904,1838
1857,1881,1817
1823,1827,1844
1842,1823,1867
1875,1819,1854
1898,1825,1887
1884,1899,1904
1821,1806,1821
1811,1775,1773
1857,1808,1797
1840,1813,1847
1851,1837,1883
1929,1883,1920
1973,1907,1887
1883,1885,1808
1826,1814,1840
1898,1825,1887
1937,1863,1817
1828,1875,1837
1840,1802,1819
1851,1792,1808
1888,1878,1835
1801,1815,1856
1793,1799,1846
1854,1843,1819
1899,1893,1875
1884,1904,1927
1877,1903,1923
1900,1818,1824
1869,1792,1855
1814,1805,1851
1846,1827,1856
1883,1833,1797
1901,1859,1807
1861,1884,1888
1859,1846,1895
1894,1827,1842
1903,1851,1898
1930,1885,1924
1925,1845,1883
1821,1793,1713
1831,1813,1823
1824,1845,1902
1869,1873,1934
1867,1817,1742
1842,1805,1779
1826,1808,1903
1826,1822,1856
1843,1810,1792
1903,1859,1869
1892,1917,1951
1871,1859,1904
1901,1789,1826
1922,1850,1845
1876,1901,1872
1817,1823,1831
1865,1778,1778
1847,1745,1740
1841,1812,1871
1872,1851,1940
1910,1898,1903
1941,1857,1821
1903,1815,1857
1850,1849,1895
1811,1835,1869
1844,1807,1766
1872,1791,1787
1858,1825,1831
1833,1835,1808
1870,1872,1862
1882,1944,1947
1864,1856,1913
1872,1775,1849
1927,1845,1921
1891,1889,1942
1828,1887,1836
1824,1830,1737
1840,1789,1799
1838,1811,1871
1857,1819,1839
1901,1827,1891
1919,1847,1836
1895,1903,1939
1895,1879,1951
1869,1815,1723
1869,1807,1765
1854,1874,1845
1856,1906,1842
1853,1865,1855
1857,1802,1799
1844,1815,1813
1851,1917,1927
1873,1867,1783
1861,1805,1824
1865,1879,1932
1841,1875,1909
1869,1827,1846
1932,1849,1910
1920,1859,1963
1843,1863,1898
1867,1837,1846
1859,1794,1779
1874,1837,1903
1930,1884,1846
1876,1847,1759
1871,1825,1843
1841,1831,1953
1798,1808,1825
1823,1808,1733
1847,1853,1825
1818,1875,1909
1839,1850,1915
1862,1786,1826
1866,1825,1872
1888,1889,1970
1936,1920,1947
1869,1840,1743
1846,1849,1777
1851,1869,1904
1872,1872,1904
1874,1879,1754
1902,1875,1875
1907,1837,1878
1885,1854,1931
1842,1783,1840
1857,1798,1738
1866,1851,1829
1874,1874,1906
1837,1838,1805
1869,1845,1837
1845,1882,1856
1834,1851,1764
1872,1825,1822
1891,1861,1885
1899,1891,1972
1872,1869,1845
1872,1865,1729
1873,1873,1885
1882,1858,1872
1867,1843,1805
1901,1895,1813
1896,1872,1847
1872,1851,1851
1893,1839,1772
1916,1847,1799
1904,1885,1835
1834,1913,1878
1862,1873,1904
1845,1847,1744
1872,1896,1823
1871,1906,1890
1842,1840,1925
1858,1781,1782
1892,1871,1795
1871,1890,1890
1855,1831,1895
1844,1823,1830
1890,1904,1838
1903,1915,1847
1844,1808,1840
1857,1814,1876
1886,1881,1858
1914,1883,1811
1915,1895,1825
1935,1891,1811
1972,1933,1986
1921,1936,1926
1745,1793,1744
1756,1786,1744
1863,1867,1828
1903,1902,1913
1843,1919,1885
1847,1893,1717
1907,1941,1850
1861,1855,1929
1861,1840,1859
1899,1866,1807
1911,1893,1846
1891,1842,1948
1873,1840,1865
1879,1866,1761
1863,1872,1821
1867,1920,1922
1907,1905,1916
1898,1858,1744
1843,1887,1795
1831,1876,1903
1841,1869,1828
1893,1869,1794
1893,1875,1859
1850,1878,1830
1841,1889,1825
1863,1862,1797
1856,1858,1790
1857,1860,1917
1907,1907,1990
1883,1836,1797
1901,1897,1789
1855,1898,1871
1806,1835,1792
1815,1871,1883
1881,1859,1856
1866,1840,1795
1851,1843,1809
1856,1840,1807
1877,1841,1806
1930,1915,1901
1925,1895,1878
1887,1879,1799
1887,1918,1801
1819,1927,1865
1831,1825,1850
1840,1793,1822
1883,1883,1978
1840,1897,1822
1855,1872,1802
1845,1815,1740
1877,1856,1826
1878,1920,1923
1840,1877,1879
1835,1833,1756
1927,1894,1840
1891,1892,1899
1821,1863,1843
1843,1856,1819
1851,1863,1790
1851,1903,1936
1813,1845,1826
1807,1773,1745
1847,1810,1904
1856,1874,1915
1872,1899,1855
1905,1905,1797
1921,1919,1840
1901,1876,1903
1829,1823,1856
1842,1813,1873
1925,1904,1920
1872,1895,1856
1798,1835,1791
1808,1781,1777
1877,1860,1817
1904,1984,1984
1847,1901,1845
1842,1782,1744
1828,1800,1767
1791,1850,1829
1839,1884,1841
1854,1871,1809
1909,1887,1826
1866,1872,1915
1842,1840,1937
1839,1808,1790
1869,1870,1829
1935,1936,1920
1879,1872,1863
1817,1802,1726
1842,1811,1773
1843,1869,1863
1883,1902,1894
1893,1867,1822
1887,1826,1850
1842,1807,1854
1819,1806,1793
1859,1883,1776
1895,1904,1837
1909,1868,1895
1875,1845,1879
1851,1825,1793
1850,1855,1839
1856,1855,1809
1883,1890,1885
1839,1850,1774
1827,1857,1806
1853,1879,1974
1869,1866,1853
1872,1890,1712
1889,1924,1808
1881,1867,1914
1864,1866,1887
1859,1822,1806
1840,1799,1822
1831,1855,1847
1865,1904,1818
1840,1855,1808
1871,1872,1888
1896,1907,1891
1859,1858,1794
1841,1806,1744
1909,1872,1831
1910,1879,1872
1842,1810,1830
1841,1817,1776
1910,1853,1883
1874,1867,1838
1821,1888,1788
1834,1824,1829
1867,1863,1840
1841,1872,1856
1840,1829,1789
1867,1827,1771
1918,1911,1831
1863,1871,1869
1841,1878,1870
1841,1837,1771
1877,1871,1825
1897,1871,1906
1877,1858,1909
1849,1834,1806
1846,1881,1813
1874,1933,1864
1904,1857,1901
1852,1808,1823
1837,1820,1744
1875,1887,1888
1859,1891,1872
1899,1917,1893
1911,1891,1858
1841,1872,1923
1797,1819,1799
1791,1809,1709
1883,1881,1811
1927,1884,1934
1870,1799,1876
1837,1840,1775
1857,1904,1770
1830,1858,1853
1805,1840,1839
1856,1846,1802
1899,1870,1844
1886,1887,1897
1872,1872,1955
1885,1835,1903
1886,1833,1808
1847,1909,1807
1836,1910,1771
1818,1839,1774
1876,1814,1897
1872,1841,1920
1847,1877,1906
1825,1814,1786
1891,1885,1814
1876,1926,1889
1831,1872,1830
1839,1805,1798
1870,1872,1843
1871,1882,1999
1842,1858,1840
1840,1805,1689
1902,1842,1820
