1936,1840,1747
1919,1899,1861
1900,1889,1866
1734,1823,1761
1765,1818,1747
1840,1874,1886
1841,1898,1896
1856,1854,1763
1905,1840,1722
1904,1925,1962
1846,1927,1974
1809,1824,1725
1831,1832,1722
1887,1904,1891
1849,1891,1873
1855,1839,1808
1899,1841,1901
1845,1907,1866
1793,1911,1808
1795,1818,1727
1891,1838,1740
1913,1911,1899
1889,1904,1913
1845,1839,1806
1813,1817,1746
1834,1881,1822
1813,1904,1904
1827,1853,1838
1945,1871,1835
1995,1921,1916
1872,1889,1842
1747,1822,1833
1810,1839,1742
1925,1885,1923
1873,1885,1949
1820,1819,1875
1895,1850,1923
1870,1910,1749
1824,1899,1744
1847,1823,1717
1867,1837,1796
1893,1926,1923
1867,1915,1904
1843,1867,1733
1866,1845,1712
1888,1889,1872
1846,1869,1918
1797,1824,1786
1839,1840,1802
1877,1897,1847
1929,1918,1855
1869,1830,1757
1821,1814,1809
1900,1904,1947
1840,1936,1920
1799,1855,1776
1857,1826,1753
1947,1890,1874
1933,1898,1977
1836,1838,1778
1835,1859,1774
1904,1904,1936
1841,1893,1931
1773,1829,1792
1840,1843,1747
1939,1901,1951
1897,1899,2065
1791,1839,1786
1825,1824,1687
1895,1915,1849
1887,1920,1935
1875,1838,1803
1855,1826,1741
1836,1885,1899
1827,1919,1952
1876,1826,1771
1906,1814,1776
1852,1901,1978
1823,1906,1973
1829,1843,1835
1856,1842,1783
1862,1916,1936
1851,1905,2039
1811,1801,1853
1834,1822,1680
1882,1888,1798
1895,1891,1923
1893,1838,1808
1881,1817,1738
1845,1894,1904
1860,1888,2007
1787,1808,1840
1834,1827,1831
1875,1902,1834
1854,1901,1911
1840,1840,1779
1854,1829,1719
1872,1874,1883
1851,1871,1917
1813,1808,1762
1879,1833,1766
1934,1918,1919
1871,1903,2021
1827,1790,1785
1856,1808,1680
1890,1906,1870
1851,1895,1903
1793,1815,1779
1847,1833,1808
1905,1907,1932
1840,1901,1901
1795,1840,1728
1872,1836,1695
1918,1898,1895
1850,1877,1934
1783,1819,1811
1855,1819,1840
1913,1867,1907
1855,1873,1904
1797,1786,1759
1807,1802,1726
1861,1882,1842
1872,1887,1872
1854,1807,1810
1843,1817,1790
1831,1875,1874
1833,1883,1900
1795,1814,1823
1829,1840,1782
1906,1884,1898
1904,1868,1873
1798,1783,1715
1797,1784,1729
1866,1856,1868
1857,1887,1943
1777,1799,1771
1823,1797,1743
1878,1874,1872
1865,1882,1889
1866,1825,1773
1854,1817,1737
1849,1872,1874
1799,1876,1936
1762,1808,1725
1777,1791,1657
1833,1856,1836
1838,1855,1906
1799,1785,1766
1830,1808,1759
1873,1855,1884
1859,1861,1902
1837,1775,1792
1823,1790,1728
1840,1859,1846
1824,1856,1915
1781,1807,1739
1862,1814,1738
1839,1867,1898
1821,1867,1869
1794,1792,1680
1834,1783,1729
1819,1876,1872
1776,1888,1909
1776,1793,1743
1760,1796,1766
1907,1854,1865
1855,1860,1894
1770,1799,1809
1902,1831,1782
1891,1904,1931
1887,1911,1923
1822,1827,1776
1851,1805,1730
1936,1872,1849
1840,1887,1910
1775,1808,1806
1877,1818,1787
1891,1911,1913
1935,1909,1949
1808,1822,1806
1861,1822,1779
1923,1890,1856
1838,1907,1926
1822,1834,1814
1862,1843,1802
1872,1909,1925
1806,1894,1959
1876,1822,1837
1889,1827,1734
1904,1913,1885
1883,1915,2013
1902,1853,1829
1903,1872,1776
1898,1936,1939
1857,1885,1909
1825,1798,1765
1890,1811,1853
1849,1904,1984
1874,1885,1941
1826,1837,1779
1863,1835,1781
1898,1904,1876
1858,1923,1971
1819,1840,1882
1867,1831,1842
1894,1909,1921
1878,1918,1961
1798,1809,1707
1861,1830,1731
1915,1904,1910
1917,1902,1985
1907,1840,1968
1846,1830,1771
1887,1894,1770
1791,1882,1873
1803,1827,1887
1936,1819,1831
1845,1870,1817
1823,1887,1894
1824,1822,1851
1818,1840,1829
1905,1910,1891
1853,1922,1899
1805,1838,1815
1842,1829,1831
1978,1920,1927
1904,1901,1872
1790,1805,1791
1803,1808,1741
1885,1904,1889
1921,1905,1990
1868,1840,1824
1827,1831,1786
1939,1904,1829
1887,1931,1874
1905,1855,1763
1870,1827,1774
1870,1891,1918
1866,1906,1949
1891,1825,1771
1866,1809,1788
1853,1899,1889
1836,1898,1884
1809,1824,1795
1835,1811,1735
1876,1891,1847
1864,1906,1920
1841,1842,1838
1895,1845,1809
1883,1887,1895
1808,1883,1935
1791,1826,1829
1803,1820,1734
1917,1909,1872
1905,1904,1952
1825,1811,1795
1809,1822,1782
1866,1924,1899
1902,1922,1936
1879,1810,1858
1856,1821,1772
1878,1881,1857
1840,1883,1891
1799,1827,1758
1823,1823,1718
1889,1907,1872
1862,1908,1939
1776,1846,1870
1856,1834,1770
1897,1899,1962
1862,1903,1920
1711,1812,1691
1873,1808,1699
1879,1890,1878
1802,1888,1989
1823,1823,1945
1908,1823,1781
1909,1882,1776
1824,1887,1872
1789,1838,1759
1886,1833,1751
1930,1899,1895
1840,1911,1947
1831,1826,1866
1931,1811,1759
1860,1872,1872
1826,1882,1917
1841,1839,1787
1831,1824,1721
1926,1898,1867
1920,1923,1941
1818,1838,1810
1845,1843,1767
1913,1904,1973
1859,1893,1938
1810,1802,1693
1810,1814,1690
1894,1894,1901
1871,1899,1977
1851,1831,1840
1883,1844,1758
1943,1923,1901
1909,1921,1967
1789,1807,1737
1802,1792,1711
1890,1894,1899
1855,1929,2047
1863,1829,1846
1857,1805,1722
1858,1872,1822
1854,1889,1903
1825,1830,1815
1851,1809,1719
1838,1876,1886
1806,1873,1977
1809,1808,1808
1871,1808,1738
1921,1879,1881
1891,1904,1905
1831,1835,1760
1770,1819,1773
1917,1899,1972
1953,1873,1926
1841,1776,1726
1829,1801,1677
1858,1890,1883
1843,1882,1957
1813,1800,1758
1879,1801,1741
1923,1893,1939
1866,1899,1952
1798,1813,1759
1810,1802,1693
1849,1869,1841
1851,1891,1930
1831,1817,1806
1868,1830,1775
1919,1896,1925
1904,1856,1909
1851,1783,1754
1814,1805,1742
1847,1889,1893
1840,1891,1987
1815,1825,1764
1867,1833,1735
1925,1901,1855
1893,1904,1967
1841,1853,1845
1856,1829,1743
1882,1869,1826
1867,1883,1875
1828,1825,1763
1857,1827,1749
1906,1904,1904
1963,1935,2007
1887,1840,1826
1847,1801,1781
1859,1885,1891
1876,1901,1921
1831,1806,1755
1872,1807,1776
1906,1872,1877
1869,1895,1875
1883,1819,1763
1841,1827,1747
1863,1902,1871
1855,1907,1922
1838,1837,1867
1876,1840,1839
1970,1937,1957
1910,1911,1891
1809,1777,1666
1837,1760,1648
1874,1871,1862
1863,1905,1963
1870,1865,1867
1899,1837,1823
1875,1852,1913
1845,1862,1870
1795,1790,1655
1832,1808,1689
1922,1919,1902
1875,1911,1959
1823,1822,1850
1840,1807,1695
1894,1859,1798
1855,1868,1893
1825,1803,1772
1855,1805,1744
1879,1891,1885
1872,1906,1921
1861,1829,1783
1861,1810,1761
1905,1892,1887
1868,1904,1920
1821,1853,1777
1826,1828,1769
1883,1865,1885
1872,1872,1939
1806,1799,1769
1830,1808,1697
1889,1891,1856
1878,1904,1958
1866,1838,1811
1869,1808,1738
1886,1872,1851
1877,1883,1968
1813,1822,1791
1832,1805,1680
1904,1887,1829
1865,1908,1906
1871,1817,1776
1924,1806,1750
1884,1857,1904
1809,1884,1936
1799,1823,1786
1843,1810,1735
1882,1893,1875
1872,1929,1935
1845,1856,1826
1870,1835,1774
1909,1878,1872
1879,1905,1949
1843,1856,1855
1871,1819,1776
1903,1858,1819
1873,1882,1859
1826,1815,1776
1856,1817,1759
1891,1906,1894
1879,1910,1942
1846,1826,1792
1872,1837,1746
1913,1911,1895
1890,1914,1942
1843,1829,1808
1869,1840,1771
1903,1911,1906
1879,1920,1948
1834,1833,1797
1872,1823,1751
1922,1909,1906
1904,1919,1967
1855,1840,1809
1872,1822,1744
1921,1904,1904
1903,1925,1985
1850,1840,1840
1867,1830,1778
1919,1899,1910
1901,1919,1971
1849,1833,1829
1872,1812,1773
1919,1880,1909
1911,1903,1967
1859,1821,1833
1901,1814,1790
1930,1881,1911
1907,1879,1959
1859,1799,1824
1881,1793,1787
1936,1895,1926
1893,1926,1959
1872,1854,1854
1901,1777,1783
1934,1813,1887
1921,1845,1974
1872,1815,1859
1889,1883,1786
1930,1939,1925
1911,1795,1963
1865,1712,1809
1896,1726,1789
1951,1897,1963
1921,1955,1979
1856,1792,1811
1911,1808,1802
1941,1774,1932
1904,1825,1981
1859,1745,1837
1927,2000,1842
1947,1945,1943
1904,1759,1991
1865,1781,1863
1872,1767,1791
1923,1942,1937
1917,1964,2011
1865,1825,1871
1887,1893,1812
1920,1749,1919
1890,1738,1968
1851,1718,1856
1883,1871,1815
1937,1889,1953
1917,1949,1999
1872,1898,1887
1883,1840,1818
1926,1890,1947
1901,1680,1991
1873,1617,1891
1872,1835,1795
1930,1894,1933
1909,1775,2000
1855,1733,1841
1872,1731,1789
1944,1851,1954
1939,1917,2030
1869,1813,1864
1861,1714,1765
1936,1829,1920
1963,1909,2053
1905,1801,1869
1857,1803,1680
1904,1805,1903
1922,1821,2055
1904,1830,1957
1877,1737,1776
1911,1767,1871
1918,1813,1970
1884,1761,1856
1914,1754,1823
1961,1796,1949
1935,1822,1989
1883,1769,1849
1919,1734,1840
1965,1859,1950
1922,1859,1946
1874,1757,1849
1917,1685,1814
1956,1782,1921
1926,1905,1959
1890,1803,1835
1932,1760,1783
1971,1774,1920
1961,1808,1984
1907,1687,1840
1934,1698,1774
1971,1773,1901
1971,1792,1977
1942,1766,1860
1964,1715,1814
2002,1782,1939
1993,1758,1985
1937,1701,1850
1958,1732,1763
2016,1822,1886
1997,1793,1973
1962,1701,1855
2000,1829,1815
2046,1805,1936
2011,1803,1964
1947,1716,1827
1991,1745,1808
2078,1859,1968
2073,1748,2060
1953,1797,1776
1919,1783,1683
2091,2423,2047
2071,2256,2096
1918,1871,1767
1923,2112,1708
2030,2691,1955
2012,2630,1997
1926,2625,1798
1934,2544,1725
1982,2677,1891
1999,2884,2000
1953,3087,1862
1949,3131,1744
1990,3271,1887
1995,3718,1956
1921,3568,1808
1938,3685,1744
2000,4095,1930
1998,4095,2006
1924,4095,1831
1911,4095,1721
1967,4095,1852
1968,4095,1963
1909,4095,1826
1921,4095,1762
1968,4095,1901
1952,4095,1967
1899,4095,1809
1924,4095,1764
1981,4095,1909
1959,4095,1953
1941,4095,1793
2017,4095,1698
1961,4095,1861
1888,4095,1953
1855,4095,1813
1927,4095,1762
2001,4095,1873
1951,4095,1945
1870,4095,1817
1903,4095,1726
1957,4095,1865
1936,4095,1976
1890,4095,1855
1909,4095,1771
1974,4095,1925
1966,4095,2033
1875,4095,1815
1898,4095,1728
1951,4095,1873
1969,4095,2042
1893,4095,1845
1898,4095,1791
1991,4095,2022
1968,4095,2005
1936,4095,1828
1937,4058,1730
1967,3449,1898
1904,3218,1936
1875,3197,1823
1941,3395,1815
2001,3617,1937
1955,3323,1968
1889,3152,1778
1913,3071,1780
1984,3023,1968
2019,3255,2086
1913,3276,1842
1855,2783,1641
1919,2815,1822
1931,2863,1953
1907,2834,1882
1911,2798,1805
1952,2899,1883
1946,2894,1937
1866,2723,1776
1872,2559,1749
1931,2684,1903
1923,2613,1935
1883,2608,1783
1901,2543,1776
1940,2673,1964
1925,2579,1969
1866,2475,1769
1903,2516,1737
1951,2493,1920
1926,2479,1985
1858,2398,1808
1954,2320,1738
2032,2399,1855
1978,2368,1958
1890,2259,1917
1954,2233,1769
1930,2271,1856
1840,2284,1954
1807,2160,1813
1862,2101,1730
1936,2181,1910
1919,2169,1995
1855,2053,1842
1882,1996,1772
1936,2046,1904
1920,2018,1983
1883,1993,1866
1899,2067,1808
1936,1925,1959
1963,1984,2014
1813,1808,1725
1850,1585,1783
1963,1807,2077
1968,1840,2141
1893,1829,1837
1853,1691,1578
1867,1603,1756
1893,1703,1986
1860,1589,1922
1859,1565,1891
1923,1733,1954
1936,1904,1967
1856,1674,1731
1834,1315,1645
1877,1478,1798
1910,1754,1986
1871,1680,1885
1892,1631,1771
1887,1520,1867
1872,1522,1935
1830,1330,1776
1855,1391,1776
1904,1535,1927
1900,1616,2007
1824,1502,1786
1836,1426,1714
1955,1520,1915
2119,1666,2111
2037,1580,1943
1765,1387,1712
1749,1426,1791
2027,1589,2002
2375,1740,2122
2106,1573,1938
1687,1372,1767
2032,1571,1983
2117,1532,1939
1616,1247,1646
1568,1343,1776
1703,1358,1902
1752,1264,1794
1853,1246,1909
1894,1374,1872
1856,1402,1799
1812,1397,1731
1808,1319,1680
1934,1421,1885
1969,1432,1983
1798,1249,1847
1779,1214,1808
1861,1344,1900
2000,1475,1994
2185,1516,2014
1964,1387,1856
1648,1232,1739
1646,1260,1819
1732,1246,1763
1810,1232,1747
1890,1341,1904
1900,1395,1949
1807,1283,1799
1797,1261,1739
1844,1346,1873
1851,1365,1943
1803,1286,1792
1815,1275,1742
1871,1356,1889
1854,1362,1955
1791,1285,1808
1819,1267,1744
1873,1344,1879
1855,1370,1953
1802,1292,1822
1819,1238,1759
1861,1327,1891
1840,1363,1951
1791,1264,1808
1808,1253,1738
1874,1334,1889
1859,1375,1969
1783,1281,1791
1819,1315,1744
1901,1438,1920
1901,1532,2016
1770,1145,1759
1774,1023,1670
1857,1296,1864
1878,1431,1984
1813,1261,1821
1800,1137,1697
1841,1267,1840
1867,1565,1974
1827,1338,1843
1803,1110,1701
1856,1231,1835
1889,1478,1984
1803,1278,1791
1792,1151,1679
1875,1295,1857
1905,1467,1991
1817,1324,1821
1795,1221,1690
1857,1296,1827
1860,1339,1926
1823,1296,1812
1841,1307,1743
1889,1391,1831
1894,1414,1897
1829,1326,1773
1860,1323,1743
2000,1492,1969
1970,1515,2021
1875,1392,1824
1872,1351,1722
2101,1579,1955
2063,1553,2005
1793,1328,1775
1767,1348,1732
1801,1409,1837
1807,1389,1879
1831,1369,1776
1856,1369,1703
1984,1502,1888
1815,1439,1897
1776,1398,1809
1903,1431,1738
2295,1658,1989
2099,1519,1894
1745,1393,1774
1765,1469,1858
1895,1520,1861
1777,1382,1660
1627,1325,1659
1690,1414,1696
1751,1511,1902
1728,1530,1894
1726,1457,1741
1834,1438,1683
1953,1600,1921
2012,1689,2090
1777,1487,1789
1626,1362,1533
1737,1454,1671
1779,1519,1824
1702,1505,1818
1783,1480,1744
1923,1582,1897
1857,1575,1955
1733,1471,1753
1738,1445,1603
1815,1535,1791
1866,1610,2006
1881,1520,1797
1969,1535,1664
1883,1577,1829
1584,1487,1872
1535,1450,1641
1689,1467,1623
1838,1577,1851
1808,1596,1899
1737,1509,1713
1773,1500,1698
1873,1607,1915
1865,1664,1995
1788,1566,1704
1725,1474,1599
1789,1557,1718
1795,1590,1923
1728,1523,1703
1751,1531,1531
1830,1628,1616
1831,1679,1719
1809,1563,1686
1759,1475,1599
1769,1573,1662
1734,1695,1659
1714,1593,1526
1874,1575,1486
1911,1717,1699
1802,1872,1813
1693,1620,1596
1746,1322,1350
1871,1584,1655
1824,2201,1729
1682,1604,1478
1731,1189,1451
1860,1347,1650
1748,1559,1763
1677,1659,1594
1754,1798,1511
1861,1857,1699
1831,1531,1663
1798,1399,1518
1792,1533,1467
1895,1744,1687
1805,1793,1724
1675,1681,1658
1698,1695,1616
1872,1843,1520
1910,1790,1681
1722,1596,1553
1691,1585,1468
1826,1787,1577
1983,1896,1636
1786,1899,1665
1764,1975,1588
1868,1769,1738
1727,1520,1776
1698,1605,1575
1767,1712,1446
1758,1867,1562
1728,1853,1648
1731,1703,1567
1892,1760,1509
1895,1859,1659
2037,1911,1793
1778,1815,1689
1652,1795,1572
1837,1897,1662
1846,1914,1808
1795,1830,1663
1742,1776,1511
2176,1981,1707
2145,1936,1727
1533,1769,1535
1478,1836,1718
1879,1995,1884
1894,1922,1824
1679,1790,1680
1840,1836,1535
1808,1910,1682
1646,1957,1698
1645,1894,1619
1828,1882,1564
1894,1940,1712
1776,1949,1829
1683,1873,1695
1732,1861,1563
1900,1970,1831
1902,2000,1859
1789,1867,1638
1806,1866,1617
1827,1927,1744
1789,1968,1873
1745,1902,1783
1790,1854,1663
1843,1959,1761
1776,1966,1911
1776,1874,1730
1840,1839,1654
1785,1872,1664
1744,1926,1795
1678,1799,1607
1747,1793,1653
1940,1931,1878
1846,1897,1904
1744,1797,1662
1745,1807,1615
1840,1873,1669
1843,1886,1774
1778,1807,1694
1866,1843,1815
1822,1834,1889
1713,1744,1840
1670,1654,1686
1744,1694,1627
1792,1840,1808
1776,1879,1882
1754,1762,1794
1790,1690,1716
1835,1730,1765
1866,1769,1823
1712,1724,1776
1803,1742,1763
1936,1779,1874
1779,1739,1843
1725,1663,1779
1794,1631,1691
1770,1658,1857
1680,1691,1849
1664,1640,1723
1755,1617,1742
1811,1699,1957
1778,1746,1889
1727,1698,1839
1789,1628,1792
1799,1648,1887
1761,1676,1923
1718,1562,1793
1770,1601,1777
1845,1681,1835
1821,1681,1794
1731,1535,1741
1797,1535,1812
1872,1635,1889
1780,1635,1931
1831,1597,1858
1788,1563,1749
1744,1620,1857
1719,1637,1914
1721,1559,1843
1771,1527,1808
1843,1627,1957
1840,1651,2043
1750,1535,1738
1729,1477,1702
1842,1584,1983
1813,1557,2000
1789,1499,1821
1734,1498,1723
1779,1591,1866
1824,1606,1959
1821,1530,1855
1807,1475,1745
1826,1577,1857
1888,1626,1995
1758,1526,1914
1753,1527,1787
1781,1600,1869
1795,1599,1898
1830,1504,1842
1883,1495,1854
1886,1584,1975
1810,1603,1982
1707,1494,1808
1729,1453,1731
1855,1584,1998
1939,1668,2096
1793,1535,1895
1809,1525,1717
1828,1605,1809
1853,1616,1920
1798,1505,1867
1863,1498,1829
1914,1639,1915
1858,1635,1975
1817,1584,1887
1857,1532,1847
1919,1627,1987
1830,1635,2000
1735,1532,1746
1774,1526,1699
1802,1667,1930
1872,1710,2067
1834,1520,1862
1853,1476,1799
1889,1597,1919
1840,1647,2025
1803,1618,1870
1827,1591,1777
1872,1616,1933
1881,1640,2078
1783,1535,1881
1814,1527,1839
1935,1612,1957
1904,1671,1927
1795,1602,1792
1810,1558,1783
1879,1632,1968
1812,1653,2001
1850,1602,1904
1879,1576,1797
1840,1629,1925
1831,1664,2006
1792,1613,1863
1837,1567,1819
1922,1667,1995
1846,1685,2085
1799,1593,1967
1808,1558,1825
1968,1648,1885
1887,1662,1989
1843,1591,1863
1887,1567,1794
1936,1666,1985
1897,1707,2043
1835,1588,1831
1808,1535,1723
1907,1635,1957
1853,1650,2071
1827,1573,1943
1888,1535,1798
1904,1630,1910
1872,1632,1991
1793,1504,1811
1791,1456,1791
1891,1482,1925
1954,1467,2065
1861,1332,1967
1872,1296,1840
1866,1361,1885
1861,1370,1961
1929,1328,1888
1909,1239,1777
1884,1265,1920
1883,1277,2000
1836,1184,1904
1859,1178,1823
1924,1246,1920
1914,1264,2010
1839,1139,1909
1876,1085,1850
1843,1197,1935
1867,1215,1983
1843,1125,1859
1898,1122,1837
1975,1200,1967
1935,1200,2080
1834,1098,1850
1814,1066,1742
1897,1157,1884
1952,1167,1997
1964,1077,1904
1828,1046,1789
1897,1153,1901
1835,1172,1975
1856,1071,1930
1854,1075,1891
1939,1157,1942
1906,1153,1991
1809,1062,1822
1866,1056,1808
1993,1170,2003
1923,1200,1941
1839,1115,1791
1855,1097,1737
1936,1213,1965
1973,1243,2055
1890,1131,1872
1854,1117,1775
1919,1200,1942
1897,1258,2030
1873,1193,1842
1845,1152,1764
1982,1232,1920
2047,1264,2137
1824,1168,1817
1759,1155,1691
1747,1277,1873
1840,1300,1985
1846,1232,1872
1949,1216,1808
1986,1309,1954
1943,1333,2061
1805,1252,1867
1814,1253,1770
1887,1324,1927
1953,1347,2018
1760,1269,1872
1855,1271,1789
1982,1393,1927
1984,1421,2013
1855,1306,1851
1808,1285,1754
1922,1349,1922
1909,1391,1972
1851,1349,1840
1833,1335,1790
1931,1421,1909
1946,1475,2033
1904,1396,1974
1894,1403,1802
1895,1455,1812
1937,1462,1890
1818,1393,1850
1870,1377,1816
1911,1511,1936
1901,1522,1968
1839,1404,1830
1868,1392,1831
1967,1498,1926
1903,1535,1974
1813,1471,1827
1857,1458,1762
1954,1552,1879
1963,1535,1969
1867,1442,1885
1874,1459,1749
1968,1605,1905
1962,1607,2000
1846,1503,1879
1883,1499,1794
1918,1607,1867
1934,1643,1951
1847,1530,1872
1743,1521,1805
1909,1609,1963
1958,1665,2071
1897,1597,1855
1833,1563,1719
1894,1647,1865
1890,1677,1971
1879,1614,1920
1904,1574,1771
1968,1647,1930
1879,1675,1963
1840,1647,1843
1871,1599,1754
1919,1645,1827
1887,1681,1954
1808,1620,1853
1825,1585,1751
1898,1706,1872
1904,1744,2002
1879,1621,1886
1872,1568,1767
1917,1662,1872
1887,1712,1935
1908,1664,1875
1904,1627,1794
1894,1712,1908
1910,1757,2010
1872,1658,1763
1823,1643,1680
1847,1712,1849
1872,1759,1997
1823,1663,1818
1845,1684,1757
1937,1792,1924
1919,1783,2003
1849,1709,1946
1868,1674,1779
1889,1743,1786
1905,1802,1914
1870,1729,1872
1866,1711,1798
1910,1759,1895
1855,1799,1861
1799,1744,1763
1887,1735,1782
1967,1815,1949
1918,1826,1965
1808,1765,1794
1849,1750,1765
1958,1822,1959
1881,1819,2000
1797,1760,1865
1840,1744,1712
1901,1808,1833
1913,1873,1931
1873,1839,1887
1868,1789,1751
1890,1842,1834
1879,1856,1938
1853,1793,1856
1893,1808,1766
1943,1873,1942
1951,1906,2069
1857,1838,1776
1835,1808,1679
1887,1873,1840
1888,1900,1938
1859,1840,1838
1879,1839,1753
1919,1936,1937
1904,1927,1937
1831,1830,1769
1840,1823,1716
1903,1902,1885
1920,1951,1970
1867,1876,1840
1934,1872,1872
1941,1939,1951
1859,1934,1866
1815,1810,1773
1856,1838,1712
1898,1934,1859
1904,1981,1967
1868,1883,1878
1859,1878,1776
1898,1950,1839
1904,1970,1958
1856,1906,1934
1901,1890,1786
1869,1898,1776
1868,1959,1891
1840,1872,1854
1826,1808,1674
1886,1904,1827
1895,1982,2040
1872,1904,1844
1891,1838,1711
1899,1933,1865
1891,1952,1995
1823,1901,1887
1825,1841,1663
1911,1918,1783
1904,1978,1975
1821,1899,1799
1826,1851,1745
1903,1899,1919
1934,1973,1990
1897,1895,1853
1869,1850,1734
1850,1905,1797
1849,1946,1909
1822,1903,1840
1839,1844,1751
1910,1937,1894
1919,1952,1973
1837,1843,1774
1861,1815,1705
1902,1899,1867
1904,1947,1931
1840,1831,1841
1851,1791,1770
1882,1865,1858
1869,1899,1904
1833,1835,1790
1863,1798,1715
1889,1874,1836
1882,1923,1973
1840,1834,1844
1877,1797,1742
1917,1856,1857
1858,1899,1924
1805,1822,1774
1843,1776,1739
1935,1857,1872
1934,1904,2013
1845,1808,1859
1807,1776,1673
1872,1855,1790
1904,1878,1959
1861,1783,1825
1890,1793,1653
1888,1855,1779
1871,1893,1942
1831,1822,1828
1892,1819,1789
1927,1890,1995
1887,1894,1920
1813,1801,1690
1826,1739,1627
1863,1827,1811
1863,1872,1917
1828,1809,1799
1863,1796,1758
1901,1846,1862
1882,1870,1922
1841,1827,1810
1833,1777,1735
1872,1836,1815
1873,1842,1927
1865,1810,1888
1902,1811,1783
1941,1887,1872
1875,1867,1883
1825,1872,1719
1795,1791,1631
1850,1824,1782
1877,1883,1916
1872,1798,1869
1863,1809,1773
1906,1838,1825
1905,1826,1906
1852,1806,1840
1856,1763,1731
1879,1870,1829
1885,1934,1857
1840,1773,1744
1866,1805,1706
1918,1866,1856
1904,1872,1904
1836,1811,1769
1859,1825,1769
1890,1849,1904
1883,1874,1883
1859,1829,1809
1871,1839,1776
1905,1934,1865
1895,1911,1888
1846,1872,1742
1869,1815,1714
1888,1834,1839
1850,1877,1859
1855,1845,1783
1891,1831,1757
1904,1842,1808
1838,1851,1874
1826,1808,1777
1899,1783,1679
1927,1872,1861
1871,1925,1988
1815,1824,1766
1872,1837,1680
1891,1873,1794
1856,1903,1923
1834,1855,1824
1872,1836,1712
1894,1899,1839
1867,1924,1918
1840,1843,1801
1872,1829,1724
1872,1898,1840
1829,1938,1913
1843,1856,1851
1877,1849,1825
1885,1886,1942
1854,1943,2084
1865,1897,1968
1902,1934,1881
1883,1921,1990
1840,2014,2110
1842,1934,2000
1877,1872,1904
1862,1920,1961
1808,1955,2057
1821,1920,2000
1877,1910,1966
1872,1958,2027
1842,1909,2128
1806,1917,1955
1853,1883,1927
1888,1998,2055
1843,1990,2137
1793,1843,1957
1865,1908,1871
1885,1968,2042
1821,2000,2192
1776,1915,1936
1821,1895,1771
1857,1984,1962
1839,1984,2096
1808,1894,1988
1838,1867,1904
1859,1973,2003
1824,1998,2083
1828,1947,1948
1858,1834,1878
1851,1980,2045
1810,1925,2035
1798,1949,1884
1846,1871,1824
1877,1976,1990
1865,1993,2149
1840,1899,1937
1851,1744,1793
1855,1931,1930
1824,1971,1984
1801,1921,1891
1835,1987,1840
1862,1965,1935
1843,1984,2039
1840,1907,1907
1840,1872,1777
1815,1980,1868
1804,2012,2012
1821,1943,1968
1845,1898,1769
1857,1954,1887
1870,2015,2080
1794,1989,1808
1819,1835,1747
1856,1872,1914
1849,2027,2018
1812,1915,1838
1826,1898,1749
1859,1968,1903
1840,1993,1991
1811,1945,1911
1833,1901,1758
1841,1927,1786
1811,1936,1921
1805,1904,1841
1856,1871,1813
1872,2038,1885
1811,1968,1898
1794,1879,1789
1824,1854,1724
1857,1945,1856
1839,2000,1953
1824,1899,1872
1835,1894,1744
1843,1920,1879
1809,1979,1933
1798,1923,1770
1840,1901,1702
1856,1929,1829
1813,1954,1922
1807,1902,1825
1853,1893,1722
1887,1967,1805
1835,1979,1899
1801,1964,1809
1839,1876,1711
1846,1937,1860
1810,1983,1918
1802,1907,1729
1859,1886,1680
1863,1971,1846
1826,2026,1951
1808,1930,1802
1835,1939,1719
1856,1925,1794
1826,1970,1852
1807,1905,1780
1840,1891,1725
1851,2006,1810
1825,2011,1909
1808,1955,1779
1833,1919,1686
1870,1971,1835
1839,2053,1943
1808,1931,1744
1840,1877,1631
1854,1951,1777
1837,2017,1917
1822,1947,1824
1873,1936,1703
1853,1968,1803
1791,2000,1866
1775,1900,1677
1855,1904,1696
1897,1955,1830
1829,1994,1925
1783,1936,1782
1814,1862,1650
1853,1947,1779
1840,1997,1905
1850,1923,1819
1862,1904,1706
1858,1987,1807
1827,2031,1873
1792,1895,1711
1840,1879,1651
1869,1966,1811
1853,2015,1933
1834,1955,1809
1866,1903,1758
1873,1959,1814
1869,2018,1904
1838,1968,1793
1839,1871,1645
1845,1927,1762
1868,1997,1904
1837,1917,1827
1831,1886,1680
1840,1953,1776
1821,1977,1824
1826,1934,1760
1876,1904,1739
1861,1941,1828
1840,1997,1922
1802,1922,1738
1840,1904,1655
1872,1943,1808
1837,1957,1872
1808,1895,1842
1847,1886,1765
1863,1948,1758
1839,2022,1838
1823,1966,1770
1855,1871,1701
1856,1916,1795
1823,1967,1851
1808,1904,1776
1869,1891,1693
1872,1926,1808
1827,1939,1855
1810,1897,1721
1853,1866,1663
1885,1935,1805
1851,1983,1911
1813,1910,1798
1837,1883,1711
1858,1920,1858
1847,1989,1949
1823,1903,1713
1862,1859,1643
1870,1936,1808
1851,1952,1937
1829,1891,1789
1855,1888,1699
1907,1968,1877
1868,1970,1923
1840,1895,1744
1840,1847,1719
1854,1902,1811
1826,1962,1872
1810,1899,1753
1872,1873,1683
1892,1951,1823
1852,1983,1907
1841,1920,1827
1882,1891,1785
1877,1941,1854
1837,1936,1896
1814,1900,1776
1858,1850,1735
1872,1915,1789
1841,1966,1904
1837,1896,1869
1886,1859,1714
1904,1924,1769
1874,1966,1887
1842,1885,1795
1872,1893,1760
1879,1952,1872
1825,1919,1869
1818,1840,1767
1886,1844,1803
1911,1916,1857
1856,1949,1872
1814,1919,1776
1871,1879,1719
1887,1921,1858
1838,1951,1923
1817,1886,1812
1882,1847,1734
1895,1906,1839
1839,1946,1909
1813,1909,1792
1892,1892,1729
1890,1917,1827
1843,1942,1920
1846,1904,1838
1911,1850,1802
1881,1905,1840
1837,1947,1905
1840,1895,1814
1872,1849,1726
1887,1902,1918
1854,1957,1961
1847,1901,1775
1891,1856,1696
1899,1934,1840
1860,1951,1931
1840,1879,1810
1883,1862,1750
1914,1936,1882
1872,1981,1943
1841,1907,1839
1873,1868,1747
1904,1936,1845
1871,1933,1941
1854,1853,1808
1886,1840,1795
