1872,1719,1845
1905,1879,1887
1858,1878,1831
1839,1850,1872
1901,1844,1917
1881,1808,1773
1827,1881,1769
1856,1808,1856
1835,1838,1757
1882,1773,1885
1939,1974,1945
1872,1838,1889
1814,1741,1762
1837,1763,1805
1902,1894,1902
1852,1904,1834
1840,1809,1776
1865,1811,1805
1874,1894,1889
1903,1888,1967
1887,1888,1829
1811,1808,1743
1870,1829,1883
1879,1850,1901
1845,1878,1760
1853,1875,1777
1888,1904,1898
1881,1841,1911
1835,1775,1758
1853,1872,1762
1872,1870,1902
1842,1892,1853
1857,1906,1833
1855,1842,1825
1855,1945,1873
1855,1909,1875
1877,1906,1795
1843,1790,1770
1827,1819,1815
1846,1889,1853
1873,1861,1846
1920,1890,1882
1869,1836,1875
1840,1818,1873
1854,1919,1821
1853,1871,1782
1855,1884,1830
1898,1980,1890
1876,1857,1827
1841,1803,1811
1889,1895,1891
1859,1936,1895
1831,1891,1794
1803,1776,1710
1814,1760,1777
1839,1868,1808
1858,1744,1851
1887,1859,1879
1902,1968,1894
1857,1894,1856
1862,1904,1783
1903,1846,1810
1847,1799,1843
1838,1891,1856
1898,1850,1871
1934,1920,1890
1840,1888,1839
1790,1835,1823
1838,1871,1791
1845,1697,1755
1823,1799,1818
1831,1857,1842
1856,1831,1875
1872,1906,1823
1873,1842,1869
1873,1845,1846
1862,1833,1776
1904,1886,1851
1873,1918,1887
1847,1853,1867
1847,1809,1791
1841,1827,1794
1856,1870,1875
1873,1948,1889
1895,1863,1847
1866,1823,1872
1835,1839,1891
1861,1913,1872
1862,1858,1737
1859,1853,1744
1841,1835,1821
1877,1872,1885
1902,1893,1860
1864,1910,1822
1851,1883,1876
1849,1840,1858
1877,1829,1835
1883,1855,1840
1851,1879,1877
1839,1872,1825
1877,1884,1829
1900,1883,1858
1919,1885,1907
1865,1869,1841
1835,1842,1746
1865,1906,1796
1840,1859,1874
1840,1825,1894
1871,1831,1819
1829,1826,1796
1807,1840,1839
1920,1902,1955
1906,1909,1836
1815,1882,1691
1781,1808,1723
1827,1808,1851
1882,1847,1889
1899,1883,1843
1900,1908,1866
1861,1853,1854
1851,1855,1858
1853,1888,1797
1856,1897,1847
1874,1914,1873
1814,1829,1786
1840,1837,1794
1856,1849,1842
1859,1841,1885
1827,1835,1792
1838,1817,1790
1840,1885,1829
1875,1918,1897
1863,1844,1824
1861,1885,1799
1842,1835,1847
1845,1781,1886
1871,1834,1840
1873,1886,1866
1868,1911,1817
1805,1829,1762
1809,1805,1747
1839,1858,1805
1917,1935,1951
1943,2005,1991
1849,1868,1870
1755,1713,1690
1775,1808,1786
1820,1866,1856
1851,1796,1808
1874,1837,1849
1886,1920,1908
1857,1900,1873
1838,1820,1761
1872,1894,1822
1855,1920,1865
1845,1869,1897
1869,1831,1829
1857,1831,1837
1873,1885,1876
1826,1863,1805
1836,1807,1814
1872,1845,1861
1851,1893,1882
1837,1874,1870
1792,1763,1742
1820,1778,1758
1847,1865,1890
1845,1904,1879
1856,1863,1813
1870,1865,1842
1872,1890,1885
1867,1886,1872
1866,1875,1852
1875,1887,1915
1893,1883,1889
1901,1866,1906
1867,1831,1856
1825,1807,1781
1843,1851,1826
1853,1885,1831
1844,1856,1779
1913,1899,1891
1901,1937,1920
1872,1920,1895
1829,1813,1745
1841,1811,1813
1856,1859,1947
1843,1843,1885
1851,1872,1795
1901,1894,1825
1855,1815,1910
1815,1811,1812
1856,1872,1804
1887,1858,1849
1868,1858,1910
1846,1905,1867
1835,1866,1775
1873,1847,1818
1875,1849,1932
1886,1852,1897
1865,1818,1823
1859,1882,1830
1859,1899,1865
1854,1853,1845
1817,1762,1803
1817,1872,1791
1858,1897,1890
1857,1849,1885
1873,1840,1809
1904,1902,1882
1883,1900,1951
1846,1854,1908
1842,1872,1777
1833,1786,1779
1839,1795,1847
1856,1847,1856
1904,1893,1842
1910,1901,1849
1860,1886,1844
1839,1834,1857
1832,1792,1771
1846,1850,1814
1872,1893,1921
1882,1878,1965
1888,1894,1859
1885,1901,1809
1861,1898,1842
1883,1909,1904
1857,1840,1830
1857,1808,1808
1872,1853,1856
1872,1887,1854
1851,1803,1875
1856,1837,1840
1882,1891,1882
1897,1915,1974
1855,1871,1781
1845,1840,1712
1843,1861,1857
1840,1861,1918
1831,1792,1788
1887,1860,1818
1846,1868,1839
1868,1835,1862
1855,1798,1838
1870,1845,1873
1879,1903,1881
1869,1911,1861
1885,1866,1804
1885,1853,1831
1906,1920,1933
1872,1872,1919
1831,1832,1778
1830,1823,1747
1859,1863,1839
1885,1870,1909
1885,1827,1891
1883,1855,1811
1822,1885,1759
1878,1879,1863
1902,1856,1898
1849,1835,1783
1825,1830,1843
1834,1837,1859
1859,1836,1801
1869,1867,1823
1874,1904,1833
1874,1883,1869
1872,1851,1808
1886,1850,1778
1857,1855,1861
1851,1878,1899
1878,1869,1799
1915,1867,1813
1883,1899,1898
1887,1899,1900
1872,1871,1840
1840,1825,1809
1824,1853,1840
1868,1868,1876
1872,1876,1790
1859,1827,1776
1869,1872,1874
1882,1917,1914
1863,1842,1847
1915,1827,1865
1871,1859,1858
1831,1897,1845
1841,1856,1811
1861,1843,1821
1900,1872,1875
1893,1918,1937
1878,1879,1895
1847,1834,1732
1859,1847,1808
1861,1856,1875
1855,1850,1782
1857,1893,1808
1857,1895,1866
1877,1839,1862
1907,1850,1856
1875,1840,1840
1872,1895,1846
1865,1893,1827
1853,1840,1817
1889,1870,1842
1886,1866,1942
1838,1860,1840
1855,1865,1792
1866,1872,1825
1858,1874,1906
1817,1829,1861
1808,1806,1765
1879,1818,1805
1900,1871,1869
1910,1907,1903
1884,1878,1886
1860,1841,1849
1857,1879,1857
1825,1858,1815
1840,1822,1902
1887,1845,1889
1907,1909,1867
1862,1855,1814
1878,1843,1808
1861,1824,1814
1818,1822,1828
1839,1807,1907
1856,1857,1840
1887,1925,1814
1893,1875,1903
1872,1850,1862
1877,1863,1889
1905,1919,1911
1870,1877,1825
1810,1826,1745
1811,1803,1719
1879,1863,1859
1904,1910,1925
1869,1881,1910
1899,1863,1802
1966,1971,1851
1873,1879,1855
1820,1791,1794
1824,1776,1778
1870,1854,1845
1899,1920,1953
1872,1874,1881
1888,1845,1787
1882,1869,1734
1889,1909,1887
1887,1923,1904
1882,1862,1843
1891,1854,1847
1887,1882,1893
1901,1911,1946
1898,1860,1787
1856,1856,1743
1857,1877,1905
1854,1872,1877
1863,1840,1858
1915,1913,1841
1957,2011,1899
1872,1855,1883
1771,1776,1722
1836,1773,1765
1889,1861,1935
1942,1947,2037
1891,1831,1777
1822,1791,1712
1850,1870,1841
1849,1869,1854
1863,1879,1829
1918,1872,1897
1910,1886,1954
1857,1867,1862
1869,1862,1859
1869,1857,1823
1873,1868,1888
1910,1905,1943
1904,1913,1887
1840,1830,1734
1847,1856,1927
1897,1879,1921
1820,1808,1677
1851,1842,1818
1853,1883,1882
1866,1869,1843
1921,1886,1817
1867,1840,1829
1839,1837,1866
1827,1840,1808
1867,1866,1817
1889,1914,1801
1893,1951,1885
1894,1915,1927
1872,1766,1830
1847,1778,1761
1829,1854,1837
1872,1890,1979
1893,1879,1826
1909,1898,1783
1898,1875,1905
1857,1881,1863
1856,1829,1765
1854,1808,1798
1839,1871,1866
1873,1891,1858
1845,1871,1760
1865,1856,1805
1893,1872,1922
1893,1857,1936
1857,1823,1808
1879,1839,1801
1870,1867,1903
1879,1915,1917
1863,1887,1765
1859,1822,1767
1929,1858,1936
1897,1865,1883
1831,1826,1737
1855,1823,1787
1906,1853,1884
1909,1879,1933
1913,1845,1808
1853,1838,1754
1862,1870,1866
1885,1861,1937
1890,1839,1802
1895,1853,1786
1890,1870,1865
1885,1869,1871
1876,1872,1856
1935,1937,1858
1851,1872,1889
1858,1838,1883
1901,1808,1893
1879,1877,1800
1911,1881,1871
1875,1817,1938
1882,1808,1777
1891,1835,1778
1883,1871,1846
1875,1883,1863
1887,1853,1840
1872,1840,1841
1882,1886,1941
1869,1854,1888
1829,1826,1744
1808,1860,1815
1945,1936,1951
1911,1908,1927
1850,1843,1855
1857,1808,1809
1902,1867,1917
1856,1863,1846
1827,1834,1739
1836,1806,1763
1881,1866,1905
1874,1876,1919
1895,1879,1850
1877,1840,1857
1861,1871,1872
1844,1915,1875
1867,1862,1815
1840,1810,1806
1875,1866,1876
1879,1872,1920
1845,1806,1855
1839,1837,1797
1817,1851,1797
1834,1825,1812
1814,1847,1825
1950,1877,1899
1904,1874,1924
1833,1850,1845
1867,1854,1809
1856,1801,1836
1818,1843,1910
1915,1891,1902
1873,1858,1803
1895,1911,1825
1867,1899,1905
1804,1857,1857
1837,1831,1904
1811,1841,1809
1861,1855,1798
1853,1861,1819
1854,1835,1815
1873,1873,1807
1859,1887,1832
1855,1883,1920
1840,1835,1837
1904,1859,1807
1822,1895,1856
1835,1830,1936
1819,1779,1797
1878,1846,1819
1915,1950,1888
1888,1915,1874
1878,1901,1820
1862,1886,1829
1824,1849,1875
1825,1801,1872
1870,1828,1814
1904,1919,1836
1887,1901,1887
1821,1807,1819
1806,1820,1778
1856,1838,1840
1860,1917,1937
1854,1884,1875
1774,1838,1799
1904,1879,1883
1879,1877,1951
1872,1874,1836
1905,1872,1813
1875,1936,1823
1841,1915,1872
1801,1791,1782
1828,1751,1786
1879,1818,1859
1946,1923,1973
1846,1843,1839
1808,1783,1713
1883,1865,1866
1858,1893,1927
1851,1871,1859
1863,1840,1766
1879,1882,1884
1901,1923,1938
1877,1915,1813
1810,1840,1761
1898,1809,1898
1927,1894,1968
1851,1873,1872
1811,1786,1717
1811,1836,1755
1831,1883,1869
1909,1881,1935
1850,1831,1829
1874,1875,1869
1879,1921,1919
1920,1872,1873
1886,1811,1776
1879,1872,1840
1891,1855,1912
1779,1829,1843
1862,1858,1766
1871,1872,1778
1879,1856,1873
1867,1861,1911
1794,1877,1830
1894,1874,1795
1845,1890,1876
1818,1855,1855
1871,1873,1857
1938,1869,1841
1863,1834,1824
1820,1822,1875
1873,1854,1840
1865,1850,1808
1833,1833,1826
1840,1850,1849
1884,1871,1831
1789,1818,1852
1923,1888,1936
1841,1886,1872
1843,1773,1773
1891,1807,1857
1873,1874,1904
1903,1915,1939
1872,1887,1776
1877,1840,1783
1808,1839,1811
1852,1847,1851
1845,1814,1855
1861,1846,1835
1879,1894,1910
1878,1904,1873
1882,1859,1812
1861,1827,1838
1786,1862,1872
1854,1840,1847
1823,1797,1794
1840,1838,1813
1883,1910,1875
1879,1885,1872
1840,1813,1754
1854,1819,1818
1835,1838,1877
1870,1851,1846
1904,1851,1819
1918,1910,1854
1886,1913,1867
1888,1873,1915
1876,1829,1853
1850,1824,1789
1874,1862,1839
1898,1907,1856
1878,1915,1847
1851,1841,1812
1840,1780,1859
1891,1847,1893
1882,1818,1792
1861,1846,1797
1877,1883,1961
1873,1862,1918
1876,1830,1780
1916,1875,1891
1866,1920,1826
1826,1892,1781
1900,1856,1797
1910,1838,1859
1840,1810,1904
1841,1855,1872
1845,1828,1845
1886,1872,1872
1887,1926,1878
1847,1863,1787
1871,1828,1797
1923,1869,1893
1851,1854,1834
1815,1829,1840
1840,1817,1799
1899,1872,1834
1852,1875,1905
1855,1885,1947
1920,1881,1815
1872,1811,1764
1829,1833,1865
1814,1849,1853
1804,1803,1738
1827,1820,1796
1873,1878,1888
1882,1895,1887
1888,1920,1879
1886,1878,1867
1865,1842,1856
1867,1840,1904
1872,1815,1815
1881,1856,1804
1861,1915,1851
1839,1840,1895
1845,1807,1856
1863,1883,1840
1845,1904,1801
1840,1820,1763
1808,1761,1742
1856,1836,1850
1886,1887,1893
1886,1861,1908
1845,1818,1807
1874,1834,1793
1911,1895,1895
1807,1849,1790
1786,1831,1749
1865,1816,1862
1947,1910,1975
1851,1811,1871
1776,1749,1747
1834,1845,1744
1862,1871,1836
1832,1833,1846
1849,1815,1817
1868,1884,1855
1873,1919,1877
1885,1893,1872
1830,1816,1773
1855,1791,1863
1891,1870,1907
1831,1808,1850
1798,1783,1750
1808,1813,1725
1845,1847,1841
1875,1830,1888
1895,1808,1901
1891,1857,1887
1871,1929,1818
1879,1892,1882
1887,1855,1869
1817,1856,1752
1826,1861,1795
1862,1861,1915
1881,1866,1851
1871,1840,1770
1843,1863,1883
1875,1852,1870
1897,1823,1886
1860,1883,1773
1809,1858,1782
1824,1855,1856
1823,1841,1785
1875,1873,1798
1926,1923,1929
1869,1838,1873
1844,1794,1840
1869,1888,1830
1881,1872,1859
1904,1856,1923
1875,1830,1789
1887,1900,1781
1859,1911,1935
1831,1871,1884
1851,1840,1803
1914,1919,1885
1869,1904,1853
1841,1870,1785
1840,1815,1761
1856,1811,1827
1847,1836,1862
1857,1873,1875
1893,1851,1834
1898,1862,1898
1857,1873,1918
1865,1878,1875
1875,1841,1827
1887,1861,1813
1886,1915,1862
1839,1845,1863
1872,1834,1779
1897,1868,1865
1882,1895,1974
1874,1943,1914
1901,1863,1831
1855,1799,1744
1826,1866,1808
1840,1835,1859
1855,1800,1808
1894,1870,1857
1877,1936,1939
1872,1910,1894
1867,1792,1808
1857,1805,1819
1859,1890,1897
1890,1914,1936
1906,1898,1824
1849,1838,1715
1831,1840,1858
1850,1846,1918
1886,1835,1809
1905,1887,1845
1894,1911,1933
1837,1860,1889
1806,1745,1718
1854,1838,1815
1883,1899,1892
1874,1925,1833
1843,1822,1809
1863,1904,1845
1877,1920,1905
1904,1903,1872
1893,1881,1821
1856,1840,1809
1824,1799,1857
1845,1920,1875
1862,1863,1852
1890,1855,1887
1874,1952,1849
1841,1851,1779
1887,1841,1809
1919,1876,1900
1866,1874,1905
1836,1845,1838
1893,1838,1840
1804,1791,1728
1841,1850,1824
1868,1841,1837
1871,1840,1846
1907,1895,1881
1872,1889,1893
1873,1899,1905
1910,1854,1840
1905,1841,1794
1855,1834,1839
1813,1811,1819
1867,1808,1840
1904,1885,1875
1851,1872,1857
1855,1885,1807
1907,1952,1898
1935,1931,1975
1908,1861,1905
1872,1833,1808
1799,1773,1725
1802,1773,1744
1870,1904,1907
1874,1888,1937
1886,1889,1801
1897,1886,1781
1887,1910,1887
1910,1983,1955
1829,1765,1799
1813,1755,1791
1843,1818,1875
1866,1839,1856
1893,1838,1777
1907,1868,1813
1860,1884,1872
1827,1904,1853
1840,1855,1823
1890,1841,1867
1883,1827,1907
1905,1839,1837
1891,1808,1777
1871,1899,1877
1866,1917,1891
1854,1870,1857
1793,1822,1728
1841,1816,1781
1908,1901,1946
1904,1965,1904
1863,1845,1758
1865,1835,1773
1904,1937,1948
1920,1888,1926
1840,1762,1776
1868,1821,1904
1889,1906,1857
1904,1943,1827
1872,1826,1809
1821,1809,1791
1867,1870,1853
1891,1894,1862
1898,1893,1838
1885,1881,1862
1875,1904,1877
1823,1837,1802
1847,1855,1779
1899,1878,1874
1862,1797,1887
1820,1761,1868
1807,1711,1716
1881,1920,1791
1877,1850,1887
1889,1904,1916
1879,1878,1794
1877,1938,1759
1872,1853,1838
1863,1838,1934
1839,1813,1841
1857,1851,1833
1883,1861,1885
1868,1882,1861
1884,1867,1786
1904,1854,1837
1888,1888,1927
1901,1878,1922
1862,1830,1782
1837,1870,1820
1904,1904,1939
1841,1748,1835
1839,1775,1711
1859,1777,1768
1846,1910,1831
1851,1921,1894
1904,1839,1875
1881,1814,1815
1854,1845,1824
1871,1840,1889
1920,1919,1851
1878,1862,1808
1900,1841,1856
1873,1851,1840
1913,1885,1877
1874,1837,1867
1877,1920,1862
1840,1806,1840
1830,1715,1809
1899,1878,1853
1867,1870,1827
1829,1860,1815
1899,1868,1827
1872,1777,1796
1867,1823,1861
1847,1849,1846
1881,1860,1877
1887,1857,1865
1856,1914,1842
1867,1893,1849
1840,1808,1738
1854,1815,1854
1894,1950,1930
1854,1833,1825
1884,1856,1807
1936,1919,1882
1809,1841,1801
1807,1762,1787
1829,1760,1766
1918,1901,1875
1887,1887,1969
1819,1820,1855
1843,1859,1757
1874,1830,1815
1871,1874,1891
1873,1834,1841
1868,1809,1767
1874,1910,1826
1873,1936,1913
1846,1851,1863
1831,1791,1781
1844,1840,1774
1858,1882,1879
1914,1933,1953
1865,1841,1835
1840,1810,1727
1808,1837,1808
1830,1843,1863
1872,1862,1907
1865,1815,1793
1861,1834,1811
1858,1855,1838
1847,1850,1804
1867,1879,1837
1904,1937,1942
1872,1872,1894
1835,1788,1826
1873,1845,1824
1843,1872,1837
1841,1878,1865
1857,1875,1818
1884,1856,1846
1819,1850,1816
1801,1819,1803
1857,1825,1815
1885,1902,1838
1840,1824,1848
1843,1829,1840
1904,1840,1835
1902,1846,1862
1876,1910,1943
1859,1904,1883
1882,1877,1776
1867,1833,1762
1818,1839,1853
1830,1882,1923
1853,1872,1772
1875,1841,1747
1851,1814,1833
1875,1872,1904
1894,1902,1898
1875,1837,1886
1838,1837,1887
1893,1925,1865
1857,1822,1779
1839,1843,1744
1818,1838,1796
1869,1886,1857
1886,1876,1841
1882,1840,1872
1854,1834,1903
1853,1803,1851
1890,1822,1786
1916,1906,1846
1865,1917,1905
1805,1823,1806
1828,1808,1733
1883,1870,1848
1906,1899,1904
1891,1872,1918
1869,1840,1790
1850,1839,1808
1847,1877,1930
1866,1904,1936
1882,1903,1834
1845,1860,1750
1824,1843,1808
1820,1785,1791
1840,1833,1797
1872,1875,1889
1909,1926,1985
1868,1886,1855
1839,1808,1744
1866,1806,1823
1851,1855,1915
1852,1876,1890
1855,1869,1774
1882,1872,1808
1877,1923,1889
1878,1918,1895
1908,1863,1899
1901,1839,1869
1762,1815,1776
1782,1808,1765
1836,1813,1789
1866,1875,1872
1808,1811,1831
1814,1798,1822
1867,1834,1790
1872,1876,1840
1900,1904,1937
1878,1863,1894
1838,1839,1787
1856,1821,1830
1871,1856,1905
1930,1949,1913
1845,1840,1807
1766,1795,1737
1791,1803,1829
1812,1821,1858
1835,1810,1761
1872,1871,1818
1902,1904,1968
1888,1888,1917
1831,1903,1782
1822,1813,1778
1872,1858,1888
1887,1872,1913
1827,1827,1775
1862,1871,1872
1843,1899,1868
1857,1895,1854
1874,1840,1863
1875,1878,1843
1825,1887,1868
1791,1835,1787
1767,1796,1791
1847,1835,1806
1849,1847,1843
1856,1841,1867
1869,1868,1859
1919,1894,1881
1883,1979,1939
1838,1869,1871
1843,1808,1833
1883,1861,1851
1828,1865,1831
1825,1861,1815
1856,1866,1797
1872,1866,1855
1840,1851,1906
1838,1843,1914
1825,1781,1746
1839,1801,1779
1850,1868,1894
1845,1872,1919
1842,1872,1834
1885,1874,1783
1879,1873,1865
1855,1862,1889
1808,1838,1770
1840,1854,1831
1861,1926,1916
1888,1895,1881
1874,1811,1830
1869,1840,1845
1875,1907,1949
1885,1901,1883
1808,1777,1770
1830,1862,1767
1851,1881,1858
1801,1811,1760
1845,1836,1782
1840,1815,1831
1835,1830,1919
1838,1843,1938
1856,1861,1798
1885,1855,1863
1897,1894,1844
1840,1885,1867
1857,1856,1783
1887,1920,1854
1864,1899,1940
1870,1853,1846
1925,1919,1889
1835,1855,1779
1770,1802,1791
1801,1830,1850
1813,1785,1799
1862,1821,1899
1866,1897,1840
1808,1850,1818
1848,1838,1789
1872,1877,1913
1911,1931,1984
1803,1814,1794
1826,1833,1797
1890,1888,1861
1830,1852,1930
1785,1856,1854
1808,1803,1783
1876,1875,1865
1844,1867,1925
1830,1827,1849
1840,1809,1738
1854,1855,1767
1861,1899,1907
1863,1879,1904
1831,1822,1727
1859,1873,1853
1891,1909,1955
1855,1886,1927
1847,1875,1785
1841,1859,1808
1810,1814,1898
1827,1821,1838
1853,1833,1773
1839,1846,1783
1821,1855,1873
1857,1872,1899
1878,1871,1867
1873,1845,1867
1863,1843,1881
1833,1852,1869
1833,1858,1766
1865,1871,1760
1876,1893,1868
1840,1845,1904
1806,1813,1825
1812,1818,1813
1814,1828,1847
1835,1821,1941
1863,1885,1851
1866,1858,1818
1863,1887,1875
1869,1914,1936
1883,1860,1830
1859,1846,1823
1892,1924,1939
1858,1838,1855
1793,1779,1703
1808,1783,1789
1844,1878,1938
1870,1891,1922
1818,1805,1750
1839,1834,1850
1868,1939,1842
1871,1915,1859
1852,1803,1823
1854,1837,1825
1863,1898,1847
1879,1886,1866
1845,1808,1835
1799,1777,1778
1811,1862,1873
1871,1900,1919
1834,1808,1777
1839,1861,1799
1851,1919,1879
1840,1905,1860
1840,1811,1808
1853,1823,1815
1840,1842,1894
1831,1841,1840
1869,1877,1856
1840,1850,1815
1858,1885,1874
1876,1919,1890
1871,1861,1791
1835,1837,1787
1831,1856,1917
1863,1879,1937
1856,1836,1872
1818,1792,1723
1847,1901,1822
1849,1889,1851
1866,1840,1846
1882,1874,1871
1850,1890,1875
1803,1809,1808
1840,1856,1807
1877,1862,1835
1831,1803,1829
1869,1866,1890
1825,1846,1853
1814,1845,1857
1875,1922,1957
1898,1909,1854
1839,1776,1906
1858,1829,1851
1835,1863,1797
1846,1856,1818
1819,1834,1763
1856,1872,1817
1849,1839,1936
1840,1810,1826
1847,1886,1840
1866,1903,1820
1872,1887,1904
1822,1831,1884
1815,1809,1835
1883,1825,1879
1865,1866,1931
1851,1917,1902
1840,1917,1779
1857,1906,1789
1896,1856,1931
1887,1885,1931
1853,1849,1774
1810,1810,1773
1840,1840,1879
1851,1871,1955
1861,1854,1839
1875,1869,1848
1865,1934,1895
1831,1841,1869
1785,1774,1837
1842,1825,1814
1852,1898,1861
1881,1902,1864
1889,1855,1857
1857,1855,1804
1851,1936,1890
1851,1878,1889
1808,1790,1744
1835,1815,1786
1879,1863,1984
1857,1883,1883
1840,1888,1757
1861,1870,1812
1840,1829,1895
1863,1838,1893
1887,1870,1846
1870,1890,1877
1839,1887,1734
1840,1841,1808
1884,1826,1785
1886,1895,1856
1818,1872,1909
1781,1792,1859
1838,1840,1815
1906,1918,1856
1840,1872,1862
1780,1789,1836
1843,1844,1791
1887,1911,1874
1839,1856,1886
1808,1821,1799
1843,1872,1833
1916,1930,1924
1850,1838,1879
1851,1858,1847
1872,1889,1810
1857,1877,1898
1805,1844,1852
1827,1807,1795
1872,1854,1872
1886,1898,1858
1840,1839,1840
1803,1815,1804
1825,1863,1821
1856,1863,1841
1874,1905,1904
1875,1886,1917
1879,1862,1805
1898,1862,1843
1820,1869,1855
1817,1817,1840
1863,1815,1891
1882,1906,1865
1843,1919,1843
1898,1872,1849
1725,1787,1778
1773,1821,1769
1858,1865,1845
1877,1893,1898
1875,1831,1849
1794,1833,1838
1839,1856,1890
1831,1919,1882
1921,1923,1804
1792,1761,1754
1808,1783,1874
1866,1872,1886
1826,1858,1748
1855,1845,1762
1846,1891,1877
1886,1946,1937
1857,1839,1793
1857,1795,1821
1830,1820,1871
1855,1892,1907
1866,1942,1826
1849,1805,1871
1838,1792,1873
1880,1861,1857
1840,1909,1823
1875,1934,1839
1867,1875,1872
1807,1810,1849
1840,1823,1860
1861,1837,1807
1791,1798,1767
1839,1840,1872
1920,1993,1968
1895,1998,1846
1806,1734,1719
1830,1763,1793
1866,1828,1895
1907,1892,1916
1890,1925,1878
1851,1893,1794
1730,1822,1673
1790,1830,1744
1829,1840,1878
1898,1885,1941
1897,1878,1837
1855,1906,1806
1887,1949,1906
1872,1810,1909
1840,1783,1833
1891,1886,1825
1916,1954,1825
1883,1904,1870
1854,1794,1769
1853,1828,1849
1808,1901,1858
1871,1911,1875
1841,1795,1862
1840,1823,1805
1894,1871,1843
1927,1847,1809
1873,1867,1831
1888,1973,1868
1859,1939,1870
1826,1765,1821
1789,1778,1795
1810,1856,1821
1841,1915,1951
1891,1883,1954
1899,1855,1773
1856,1879,1766
1857,1875,1847
1797,1863,1805
1803,1777,1750
1861,1805,1811
1856,1855,1918
1869,1853,1907
1857,1851,1769
1927,1904,1923
1865,1874,1869
1819,1846,1805
1850,1842,1785
1851,1872,1810
1840,1886,1865
1852,1840,1910
1909,1838,1823
1873,1933,1960
1977,1854,1874
1840,1820,1840
1875,1855,1757
1831,1820,1755
1759,1872,1856
1867,1911,1872
1819,1849,1790
1847,1806,1829
1856,1808,1814
1845,1808,1793
1871,1861,1819
1886,1904,1835
1916,1924,1982
1903,1898,1904
1872,1843,1767
1856,1840,1794
1856,1903,1893
1794,1861,1824
1857,1844,1763
1883,1838,1889
1921,1850,1887
1875,1879,1811
1834,1904,1767
1893,1813,1798
1936,1879,1937
1825,1807,1835
1823,1781,1720
1740,1854,1776
1879,1939,1947
1847,1856,1899
1906,1801,1790
1851,1839,1776
1853,1915,1893
1946,1943,1914
1891,1890,1909
1888,1860,1810
1858,1879,1790
1854,1849,1794
1807,1764,1771
1801,1757,1807
1838,1842,1906
1843,1895,1963
1915,1906,1824
1861,1897,1839
1867,1851,1859
1877,1877,1851
1838,1855,1856
1899,1879,1841
1855,1869,1853
1860,1970,1950
1842,1843,1762
1819,1687,1754
1904,1836,1890
1881,1904,1925
1819,1847,1824
1858,1854,1775
1838,1886,1889
1887,1835,1863
1873,1808,1823
1887,1914,1890
1884,1903,1904
1922,1811,1799
1840,1766,1750
1866,1840,1857
1919,1915,1919
1894,1911,1894
1913,1861,1795
1904,1817,1797
1918,1842,1878
1971,1915,1919
1905,1851,1803
1791,1804,1776
1808,1869,1868
1881,1835,1901
1908,1814,1806
1851,1818,1783
1841,1927,1865
1872,1859,1857
1870,1847,1787
1904,1884,1839
1887,1861,1904
1860,1835,1925
1887,1875,1874
1894,1925,1823
1858,1885,1815
1879,1879,1847
1840,1761,1797
1806,1808,1813
1830,1926,1873
1887,1849,1872
1871,1789,1770
1882,1825,1833
1901,1875,1936
1872,1866,1901
1862,1872,1803
1861,1818,1755
1867,1826,1858
1863,1904,1874
1885,1887,1844
1878,1887,1840
1872,1889,1883
1904,1835,1887
1862,1783,1823
1862,1861,1828
1826,1872,1830
1821,1843,1810
1845,1786,1813
1879,1866,1797
1905,1945,1883
1904,1889,1950
1857,1792,1818
1876,1839,1823
1882,1861,1870
1883,1887,1906
1917,1850,1824
1870,1835,1791
1850,1907,1840
1851,1853,1846
1864,1863,1779
1909,1951,1860
1851,1849,1887
1858,1805,1843
1891,1840,1855
1856,1830,1803
1826,1824,1781
1855,1793,1846
1894,1853,1851
1892,1903,1842
1895,1945,1929
1889,1927,1930
1890,1851,1852
1915,1909,1841
1853,1866,1918
1798,1785,1834
1789,1767,1646
1858,1842,1765
1873,1872,1872
1882,1840,1905
1875,1840,1872
1887,1870,1869
1841,1890,1805
1843,1871,1809
1884,1858,1791
1906,1903,1887
1891,1893,1922
1906,1903,1897
1883,1861,1827
1821,1795,1743
1853,1813,1862
1886,1890,1872
1836,1872,1769
1872,1904,1844
1898,1890,1863
1889,1830,1858
1837,1776,1783
1839,1817,1835
1869,1873,1886
1876,1877,1863
1883,1872,1819
1890,1881,1861
1840,1926,1881
1849,1936,1792
1837,1804,1739
1865,1757,1790
1857,1807,1882
1861,1854,1894
1874,1859,1840
1875,1872,1785
1846,1869,1845
1871,1872,1892
1859,1872,1886
1875,1919,1839
1884,1962,1861
1843,1885,1802
1879,1797,1813
1889,1827,1857
1805,1806,1781
1810,1840,1819
1876,1873,1840
1937,1898,1915
1901,1906,1888
1807,1825,1817
1851,1815,1818
1911,1921,1907
1837,1870,1817
1787,1817,1753
1865,1829,1828
1904,1850,1856
1861,1838,1903
1840,1856,1890
1885,1891,1818
1876,1892,1795
1844,1859,1845
1840,1820,1846
1864,1798,1790
1891,1895,1828
1840,1921,1866
1836,1853,1878
1846,1763,1728
1897,1838,1807
1902,1929,1925
1873,1910,1918
1820,1839,1755
1863,1840,1804
1903,1883,1891
1942,1876,1957
1893,1828,1811
1803,1809,1734
1838,1883,1846
1865,1885,1845
1844,1760,1804
1866,1811,1879
1912,1957,1936
1867,1834,1862
1859,1810,1792
1895,1898,1826
1865,1889,1878
1834,1819,1827
1835,1783,1723
1898,1884,1830
1883,1922,1900
1857,1840,1842
1877,1811,1802
1870,1894,1808
1886,1910,1899
1846,1845,1827
1808,1712,1747
1866,1845,1904
1850,1846,1893
1811,1867,1787
1863,1840,1792
1909,1898,1869
1871,1791,1898
1808,1717,1783
1872,1823,1735
1872,1855,1877
1869,1895,1929
1841,1850,1870
1870,1883,1786
1872,1953,1808
1853,1847,1826
1840,1856,1793
1856,1834,1789
1865,1776,1855
1873,1904,1915
1860,1859,1855
1877,1852,1822
1962,1962,1951
1896,1949,1886
1781,1810,1779
1804,1801,1715
1875,1828,1818
1859,1871,1846
1878,1856,1872
1891,1856,1835
1859,1789,1798
1847,1867,1967
1808,1847,1849
1853,1780,1780
1872,1840,1808
1853,1936,1898
1808,1882,1836
1808,1744,1695
