1472,1968,1566
1434,1863,1701
1405,1894,1744
1414,1957,1674
1440,1954,1578
1421,1875,1648
1407,1888,1714
1393,1933,1635
1421,1889,1573
1473,1887,1645
1479,2062,1745
1450,2084,1681
1472,1954,1648
1535,2033,1738
1614,2089,1819
1450,2045,1680
1424,1942,1678
1492,1959,1761
1554,2194,1862
1526,2109,1803
1535,2033,1730
1573,2090,1802
1581,2105,1894
1505,2064,1799
1502,1905,1723
1598,2047,1779
1564,2058,1879
1558,2188,1893
1535,2129,1776
1535,1933,1744
1581,1870,1862
1587,2015,1908
1563,1993,1806
1586,2064,1808
1607,2113,1946
1614,2220,1943
1535,2031,1769
1584,1986,1787
1630,1965,1918
1607,1943,1901
1583,1984,1807
1641,2203,1904
1649,2183,1947
1613,2039,1993
1634,2027,1895
1634,2002,1846
1621,1929,1938
1615,2016,2005
1631,2054,1936
1696,2131,1957
1664,2201,2007
1600,2144,1946
1622,2047,1946
1683,2033,1991
1665,2149,1991
1623,2043,1959
1632,2151,1940
1661,2087,1963
1667,2105,2000
1662,2123,1990
1689,2112,1911
1703,2206,1932
1735,2233,2019
1601,2097,1969
1604,1968,1903
1631,2017,1874
1605,1951,1964
1624,2019,2015
1643,2084,1942
1652,2289,1899
1653,2221,1962
1636,2082,1968
1629,1904,1892
1664,2031,1919
1636,2071,1970
1630,2073,1918
1700,2091,1888
1650,2066,1919
1594,2064,1999
1600,2096,1983
1619,2061,1844
1643,2033,1915
1689,2225,2080
1667,2058,1949
1635,1955,1840
1600,2043,1886
1610,1963,1987
1629,1939,1951
1627,1954,1893
1686,2112,1974
1683,2146,1983
1645,1977,1884
1625,1949,1863
1615,1938,1872
1616,1920,1990
1617,1911,1961
1649,1931,1897
1671,1969,1949
1664,2082,1981
1653,1967,1938
1649,1858,1892
1666,1858,1921
1657,1887,1904
1647,1904,1935
1674,1937,1936
1703,1927,1955
1698,1946,1984
1715,1909,1965
1682,1830,1875
1654,1839,1920
1642,1808,1971
1633,1837,1936
1673,1826,1845
1703,1872,1916
1705,1910,2078
1655,1831,1948
1648,1744,1829
1695,1765,1886
1723,1875,1990
1697,1857,1975
1681,1728,1905
1680,1725,1897
1699,1815,1978
1693,1840,1950
1712,1814,1923
1744,1747,1902
1711,1713,1959
1680,1805,1954
1686,1799,1909
1776,1755,1873
1712,1705,1914
1641,1650,1921
1676,1661,1889
1722,1770,1943
1724,1776,1981
1713,1767,1934
1714,1761,1872
1703,1670,1872
1722,1777,1963
1749,1827,1947
1698,1696,1826
1693,1661,1827
1723,1653,2032
1715,1669,1991
1707,1731,1875
1727,1694,1895
1744,1853,2041
1722,1805,1937
1684,1580,1813
1716,1594,1873
1771,1765,2000
1741,1747,1889
1664,1691,1878
1706,1647,1927
1767,1755,1998
1725,1679,1926
1699,1593,1889
1734,1700,1909
1753,1801,2003
1710,1648,1931
1711,1655,1859
1752,1681,1813
1761,1677,1955
1714,1651,2013
1715,1605,1936
1744,1793,1886
1745,1755,1950
1744,1622,1959
1722,1633,1862
1724,1574,1845
1753,1619,1975
1746,1623,1971
1759,1675,1871
1775,1755,1897
1755,1705,1939
1743,1616,1941
1743,1527,1822
1763,1594,1869
1750,1666,1964
1733,1693,1955
1722,1635,1818
1744,1626,1925
1791,1623,1953
1754,1718,1915
1700,1651,1825
1723,1506,1856
1755,1577,1937
1761,1722,1949
1744,1709,1875
1780,1594,1799
1776,1520,1895
1755,1627,1966
1730,1643,1829
1751,1535,1837
1775,1655,1968
1745,1793,1935
1712,1599,1793
1759,1649,1812
1772,1611,1927
1777,1654,1893
1725,1658,1819
1704,1535,1780
1745,1621,1939
1750,1643,1921
1718,1562,1790
1756,1649,1797
1824,1674,1846
1747,1643,1875
1702,1626,1840
1735,1630,1837
1787,1739,1951
1776,1790,1921
1766,1644,1823
1778,1575,1803
1775,1747,1935
1749,1756,1926
1739,1709,1802
1750,1674,1795
1789,1779,1851
1777,1770,1858
1738,1690,1814
1767,1712,1874
1814,1807,1929
1792,1824,1875
1757,1840,1822
1776,1918,1872
1801,1910,2000
1808,1947,1910
1764,1815,1706
1783,1833,1830
1842,1947,1942
1803,1989,1890
1797,2023,1890
1806,1977,1853
1793,1984,1897
1791,1806,1870
1759,1834,1847
1791,1969,1898
1837,2027,1937
1845,2035,1961
1776,1951,1795
1774,1783,1794
1824,1879,1897
1862,1919,1919
1806,2080,1899
1791,2002,1888
1801,1965,1927
1801,1983,1865
1809,2029,1813
1792,2000,1856
1838,2033,1964
1808,2011,1873
1778,1985,1825
1804,2000,1813
1837,1984,1914
1799,2026,1951
1815,2133,1872
1808,2203,1861
1812,1985,1924
1796,1957,1880
1787,1980,1818
1818,2017,1813
1834,2100,1955
1803,2110,1875
1799,2055,1861
1826,2027,1816
1823,2058,1875
1762,1971,1875
1753,1967,1841
1808,1974,1837
1824,2064,1925
1776,1959,1846
1743,2025,1779
1779,2059,1841
1817,1987,1865
1787,1970,1843
1769,1963,1791
1799,1980,1838
1839,2078,1901
1808,2036,1841
1774,1973,1806
1811,2009,1802
1829,2053,1926
1799,1913,1923
1748,1920,1762
1786,1965,1806
1819,2065,1903
1819,2128,1871
1771,1939,1755
1776,1811,1766
1808,1927,1821
1824,1939,1882
1830,1940,1830
1782,1987,1831
1791,1946,1886
1797,1983,1877
1749,1962,1718
1776,1886,1731
1793,1907,1757
1791,1925,1846
1784,1769,1776
1773,1949,1793
1779,1911,1867
1777,1886,1837
1786,2023,1827
1793,1866,1803
1810,1879,1862
1791,1919,1854
1779,1831,1808
1811,1926,1803
1796,1829,1840
1790,1791,1858
1776,1856,1763
1807,1914,1819
1820,1919,1935
1827,1993,1923
1795,1779,1786
1783,1723,1791
1835,1904,1915
1811,1872,1872
1808,1904,1821
1829,1855,1854
1858,1936,1916
1830,1867,1861
1849,1896,1861
1870,1927,1915
1837,1931,1919
1814,1799,1858
1838,1855,1843
1861,1842,1847
1872,1879,1907
1856,1899,1907
1817,1808,1862
1874,1881,1877
1891,1951,1951
1871,1858,1878
1789,1895,1820
1876,1877,1902
1867,1893,1979
1916,1919,1921
1872,1855,1840
1904,1987,1866
1856,1963,1934
1890,1910,1908
1845,1841,1843
1894,2162,1938
1919,2003,1936
1835,1819,1850
1855,1844,1803
1854,1937,1898
1966,2015,1995
1856,2026,1968
1868,2071,1869
1863,2045,1875
1870,1962,1931
1854,1958,1914
1887,2037,1840
1882,2112,1894
1936,2192,2000
1885,2175,1949
1882,1995,1822
1863,2111,1844
1881,2197,1936
1855,2167,1903
1852,2090,1835
1905,2242,1920
1904,2094,1939
1887,2075,1889
1839,2136,1818
1851,2174,1856
1885,2128,1943
1867,2211,1926
1838,2171,1808
1840,2117,1801
1863,2177,1862
1830,2128,1865
1809,2138,1820
1839,2257,1871
1861,2209,1904
1838,2164,1855
1835,2128,1794
1874,2101,1840
1869,2174,1872
1841,2163,1861
1790,2161,1796
1844,2272,1843
1884,2306,1933
1867,2243,1882
1841,2210,1771
1857,2243,1806
1885,2286,1914
1882,2192,1874
1828,2179,1807
1883,2230,1831
1872,2308,1915
1917,2291,1867
1872,2301,1808
1835,2337,1853
1889,2238,1925
1855,2219,1885
1824,2214,1792
1875,2250,1825
1974,2372,1935
1889,2288,1863
1881,2256,1806
1839,2318,1870
1889,2310,1929
1879,2321,1872
1861,2245,1808
1872,2218,1836
1888,2257,1963
1879,2309,1922
1861,2261,1818
1901,2319,1847
1911,2196,1920
1872,2215,1874
1859,2287,1819
1890,2323,1855
1913,2273,1944
1911,2177,1879
1877,2226,1823
1914,2306,1862
2007,2333,1947
1904,2243,1913
1871,2193,1830
1884,2174,1826
1906,2224,1904
1893,2288,1890
1893,2243,1822
1915,2192,1856
1923,2189,1938
1899,2286,1901
1868,2323,1819
1892,2289,1856
1884,2194,1911
1890,2207,1895
1889,2226,1807
1902,2314,1826
1914,2311,1920
1887,2261,1890
1835,2202,1808
1875,2250,1826
1873,2327,1922
1885,2314,1895
1863,2229,1777
1898,2223,1861
1904,2275,1943
1839,2294,1887
1910,2243,1758
1845,2211,1792
1920,2416,1931
1910,2324,1873
1829,2211,1791
1902,2275,1818
1881,2429,1885
1914,2431,1867
1875,2352,1803
1894,2339,1840
1879,2356,1897
1838,2407,1851
1836,2291,1762
1811,2256,1792
1929,2441,1907
1872,2496,1869
1779,2301,1754
1856,2265,1774
1906,2352,1874
1890,2360,1856
1818,2311,1754
1855,2272,1798
1891,2314,1887
1885,2351,1859
1869,2401,1767
1877,2258,1784
1879,2252,1865
1911,2270,1834
1840,2229,1745
1904,2323,1789
1890,2218,1866
1868,2160,1810
1862,2213,1744
1871,2152,1755
1830,2224,1839
1859,2240,1811
1842,2170,1731
1862,2181,1751
1877,2224,1862
1845,2060,1788
1779,1993,1711
1915,2103,1763
1915,2142,1846
1953,2209,1808
1895,2131,1707
1878,2043,1727
1931,2129,1842
1961,2193,1799
1908,2057,1712
1899,1982,1780
1920,2045,1841
1886,2084,1777
1881,2090,1694
1925,2086,1759
1952,2207,1819
1915,2029,1763
1901,1907,1695
1937,1983,1745
1975,2087,1799
1931,2066,1711
1905,2160,1655
1919,1978,1743
1966,1979,1836
1962,2015,1745
1936,1946,1659
1946,2215,1739
1963,2042,1840
1942,1929,1783
1920,1987,1689
1961,2161,1694
2000,2221,1766
1933,2070,1713
1921,2037,1677
1957,2159,1719
2001,2240,1763
2010,2243,1761
1931,2203,1676
1963,2358,1686
2017,2395,1744
1988,2426,1726
1967,2478,1683
1991,2601,1687
2065,2866,1824
2003,2788,1682
1985,2736,1588
2017,2951,1649
2032,3071,1805
2023,3143,1780
2060,3063,1630
2079,3265,1652
2040,3219,1715
2014,3042,1718
2019,3111,1627
2087,3306,1625
2118,3245,1754
2103,3294,1763
2091,3420,1677
2051,3157,1645
2070,3058,1722
2089,3101,1702
2094,3163,1599
2128,3174,1657
2160,3246,1744
2099,3117,1680
2094,3091,1614
2143,3018,1616
2181,3282,1734
2142,3133,1697
2167,3021,1647
2144,2923,1658
2150,2817,1709
2148,2880,1665
2146,2905,1557
2231,2979,1664
2226,3034,1769
2193,3069,1703
2157,2829,1585
2194,2781,1622
2222,2779,1712
2223,2799,1712
2171,2737,1600
2240,2864,1676
2298,2879,1774
2241,2795,1651
2224,2665,1535
2289,2626,1690
2291,2738,1757
2285,2625,1662
2298,2557,1561
2302,2653,1653
2321,2723,1809
2297,2666,1728
2256,2414,1574
2287,2448,1597
2354,2550,1726
2355,2559,1714
2347,2612,1634
2353,2352,1600
2377,2416,1714
2354,2482,1723
2334,2406,1616
2429,2399,1665
2419,2384,1744
2423,2387,1718
2354,2374,1602
2431,2379,1680
2494,2366,1769
2419,2293,1703
2375,2176,1602
2444,2203,1658
2480,2256,1740
2465,2237,1735
2496,2339,1658
2517,2211,1627
2513,2187,1735
2448,2046,1718
2453,2085,1619
2508,2071,1665
2548,2166,1745
2543,2129,1712
2513,2186,1659
2530,2001,1680
2559,1953,1746
2593,1969,1754
2592,2016,1651
2550,2066,1677
2607,2047,1828
2598,1818,1744
2589,1885,1647
2583,1935,1662
2625,1861,1760
2636,1795,1769
2623,1893,1706
2633,1871,1693
2661,1808,1773
2667,1919,1741
2676,1756,1678
2686,1605,1676
2678,1813,1779
2699,1807,1777
2688,1722,1653
2675,1739,1739
2701,1695,1804
2667,1618,1742
2698,1586,1709
2725,1670,1708
2762,1745,1770
2750,1705,1760
2730,1639,1674
2721,1569,1688
2749,1575,1780
2750,1535,1779
2736,1481,1678
2765,1616,1721
2796,1686,1842
2830,1582,1801
2759,1441,1635
2750,1359,1685
2795,1563,1800
2787,1513,1799
2783,1445,1694
2800,1482,1743
2864,1605,1870
2835,1421,1830
2767,1245,1627
2804,1357,1687
2882,1572,1871
2855,1392,1809
2835,1358,1695
2865,1446,1719
2910,1457,1826
2896,1503,1814
2871,1300,1664
2849,1248,1691
2908,1359,1843
2914,1414,1820
2918,1425,1744
2944,1251,1725
2995,1425,1825
2944,1345,1795
2929,1218,1722
2970,1313,1708
2981,1325,1808
2963,1312,1776
2995,1200,1711
3071,1279,1782
3101,1333,1870
3067,1281,1809
3088,1150,1665
3131,1154,1744
3134,1367,1833
3127,1371,1835
3123,1233,1757
3181,1352,1789
3188,1145,1842
3165,1175,1792
3127,1289,1712
3188,1253,1749
3201,1238,1835
3217,1232,1813
3175,1216,1751
3174,1159,1811
3216,1232,1843
3152,1243,1774
3111,1200,1721
3209,1279,1785
3264,1346,1876
3187,1315,1833
3155,1247,1744
3190,1012,1783
3242,1209,1844
3171,1371,1856
3136,1115,1727
3184,1119,1766
3195,1385,1889
3150,1193,1841
3131,1083,1744
3161,1165,1785
3191,1269,1875
3154,1298,1856
3114,1296,1744
3142,1232,1793
3203,1227,1878
3179,1125,1815
3142,1178,1773
3137,1142,1794
3140,1315,1935
3071,1249,1805
3050,1293,1723
3137,1324,1840
3157,1222,1902
3105,1175,1825
3063,1129,1750
3102,1162,1778
3152,1324,1895
3127,1285,1878
3118,1221,1798
3134,1360,1805
3089,1296,1887
3089,1205,1856
3117,1247,1793
3110,1253,1803
3095,1296,1894
3093,1319,1893
3082,1271,1782
3052,1328,1757
3078,1312,1893
3059,1226,1883
3071,1335,1837
3101,1286,1831
3088,1345,1895
3041,1268,1867
3104,1231,1804
3091,1351,1885
3069,1401,1905
2998,1362,1811
2992,1166,1766
3057,1187,1843
3088,1474,1973
3109,1583,1945
3027,1242,1746
2948,1184,1773
3008,1295,1925
3043,1381,1945
2997,1343,1872
2991,1360,1819
3017,1408,1890
3006,1459,1873
3005,1398,1839
3063,1402,1861
3044,1370,1906
2970,1419,1857
2993,1250,1834
3041,1429,1887
3008,1494,1922
2948,1328,1866
2969,1293,1787
3115,1457,1919
3102,1501,1972
2959,1438,1846
2941,1227,1757
3025,1357,1856
3116,1595,1984
3024,1427,1909
2971,1296,1775
2999,1424,1840
3043,1611,1942
3027,1458,1904
3022,1451,1840
3058,1460,1873
3069,1506,1931
3005,1450,1891
2981,1442,1806
3047,1553,1856
3015,1501,1923
2989,1385,1905
3005,1425,1847
3045,1525,1872
3055,1554,1950
3021,1447,1891
2975,1456,1793
2974,1473,1851
3023,1530,1993
3013,1584,1936
2958,1487,1795
2966,1455,1844
2998,1663,1968
2978,1616,1954
2951,1449,1821
2971,1605,1867
2977,1569,1939
2926,1529,1878
2896,1470,1843
2910,1520,1887
2947,1649,1991
2922,1711,1927
2867,1534,1802
2871,1595,1847
2897,1647,1968
2878,1616,1954
2849,1519,1855
2853,1623,1875
2887,1585,1951
2819,1509,1910
2782,1643,1841
2827,1638,1897
2841,1677,1986
2815,1693,1945
2784,1578,1843
2793,1535,1868
2787,1622,1968
2768,1708,1970
2747,1699,1875
2779,1654,1892
2867,1795,2023
2734,1631,1885
2645,1491,1808
2684,1570,1901
2736,1703,2000
2721,1672,1949
2695,1659,1840
2723,1809,1929
2719,1776,2015
2707,1682,1975
2672,1610,1815
2635,1611,1865
2662,1741,2032
2633,1705,1979
2608,1713,1863
2665,1778,1927
2658,1744,2024
2598,1796,1991
2544,1617,1839
2644,1728,1909
2595,1767,2010
2529,1713,1968
2543,1742,1878
2606,1783,1935
2557,1753,1985
2538,1739,1948
2537,1705,1840
2553,1763,1908
2540,1807,2000
2501,1805,1955
2512,1826,1942
2506,1677,1925
2538,1734,2000
2539,1790,1967
2485,1628,1885
2515,1865,1942
2546,1982,2009
2525,1767,1968
2475,1666,1854
2514,1821,1931
2521,1808,2045
2546,1745,2000
2487,1776,1917
2450,1814,1906
2492,1839,2027
2474,1786,1969
2445,1703,1883
2467,1813,1933
2486,1966,2047
2449,1779,1953
2436,1749,1872
2464,1795,1938
2470,1853,2011
2422,1840,1955
2427,1769,1875
2402,1793,1913
2421,1935,2054
2423,1808,1997
2427,1875,1908
2422,1877,1890
2422,1808,1967
2406,1793,1984
2409,1751,1921
2393,1889,1921
2354,1873,1991
2351,1872,1985
2338,1859,1903
2390,2000,2015
2390,1856,2007
2346,1717,1918
2283,1778,1858
2315,1922,1937
2352,1901,2077
2321,1905,1991
2279,1857,1886
2313,1866,1936
2345,1929,2013
2269,1807,1939
2250,1744,1867
2291,1849,1949
2310,2058,2063
2244,1885,1983
2231,1987,1906
2241,1817,1873
2257,1796,1971
2213,1824,1940
2203,1839,1891
2256,1980,1970
2235,1991,1998
2199,1865,1927
2166,1823,1862
2176,1862,1936
2213,1961,2028
2188,1906,1959
2159,1786,1890
2172,1872,1937
2198,1974,2021
2160,1950,1958
2141,1935,1849
2186,1934,1929
2157,1902,2000
2115,1865,1952
2123,1862,1877
2165,1936,1938
2196,1872,2034
2182,1934,1955
2093,1904,1839
2120,1909,1910
2163,2000,2045
2179,1911,1966
2123,1888,1840
2144,1843,1894
2159,1847,2032
2103,1876,1968
2114,2016,1883
2155,1968,1934
2188,1936,1973
2144,1915,1968
2118,1904,1871
2138,1888,1923
2161,1973,2020
2138,1862,1939
2139,1956,1878
2134,2032,1920
2166,2007,2022
2130,1765,1933
2126,1818,1871
2160,2009,1926
2169,2006,1994
2161,1894,1938
2128,1856,1853
2144,1953,1904
2177,2015,2007
2190,2019,1990
2143,1947,1890
2161,1919,1920
2211,1882,2021
2198,1942,1968
2129,1901,1850
2164,1952,1910
2203,1952,2000
2175,2003,1950
2190,2009,1814
2211,2019,1936
2207,1889,2064
2153,1907,2002
2142,1826,1882
2174,1915,1907
2222,2033,2000
2163,1966,1947
2135,1909,1809
2186,1904,1936
2197,2042,1975
2182,1968,1942
2157,1971,1842
2176,1973,1901
2139,1969,1975
2106,1859,1922
2118,1877,1856
2160,2032,1914
2171,2065,2039
2130,1926,1949
2079,1840,1840
2122,2026,1965
2146,2065,2071
2115,1967,1968
2039,1895,1838
2071,1986,1881
2123,2000,2064
2082,2035,1961
2053,1828,1838
2064,1900,1913
2069,2000,2032
2037,2000,1941
2017,2016,1862
2029,1920,1888
2032,1948,2006
2005,1983,1968
1971,1890,1838
1990,1936,1894
1997,1991,1991
1989,1997,2021
1980,1855,1886
1943,1961,1893
1950,2144,2058
1942,1984,1947
1923,1984,1854
1925,1889,1904
1916,1925,1985
1897,1919,1932
1867,1888,1831
1887,2000,1951
1939,2030,2032
1881,2053,1954
1810,1901,1828
1819,1959,1909
1861,2029,2047
1843,1968,1967
1798,1885,1838
1802,1956,1914
1824,2047,2032
1807,2020,1962
1762,1939,1827
1771,1907,1910
1799,2027,1968
1753,2019,1953
1725,1872,1834
1763,1965,1930
1755,1968,2002
1714,1988,1968
1697,1966,1873
1725,2000,1894
1769,1986,2000
1744,1935,1975
1664,1918,1886
1682,2004,1919
1678,2016,1968
1639,1954,1899
1638,1889,1880
1667,1968,1916
1680,2035,2033
1629,2063,1971
1605,1951,1854
1646,1963,1886
1633,2018,1973
1620,2035,1958
1615,1967,1895
1631,1925,1908
1611,2005,1981
1570,1958,1916
1535,1910,1869
1597,1995,1863
1607,2082,2012
1535,2000,1961
1515,1950,1829
1556,1973,1905
1578,2074,1956
1518,1983,1904
1500,1803,1856
1534,1904,1905
1535,2011,1961
1510,2055,1939
1500,2032,1862
1519,1941,1887
1475,2030,1998
1470,2037,1949
1452,1861,1838
1492,2023,1895
1509,1924,1995
1488,1997,1951
1456,2140,1841
1459,1915,1910
1450,1866,1906
1440,1875,1893
1437,1903,1883
1470,2001,1923
1494,2090,2052
1424,2028,1961
1410,2064,1808
1434,1969,1903
1446,1930,1927
1377,1902,1897
1358,1858,1759
1409,1936,1883
1447,2042,1993
1405,2009,1899
1387,2066,1804
1417,2014,1866
1442,1922,1959
1405,1936,1901
1338,1872,1835
1376,1950,1861
1409,2078,2011
1421,2097,1990
1359,2020,1855
1327,1854,1828
1362,1926,1985
1354,1917,1910
1348,1923,1843
1401,2014,1885
1360,2013,1947
1328,2007,1902
1335,1999,1857
1376,1915,1822
1357,1911,1927
1337,1909,1928
1312,1926,1851
1358,1952,1898
1396,2112,1978
1333,2093,1862
1310,1905,1764
1318,1895,1811
1312,1920,1918
1302,1895,1900
1298,1867,1792
1327,1839,1872
1372,2096,1955
1358,2072,1984
1354,1929,1775
1296,1837,1823
1301,1990,1931
1330,1971,1883
1273,1907,1782
1290,1899,1916
1335,1919,1986
1331,1990,1939
1311,1875,1795
1294,1853,1807
1328,2020,1939
1301,1872,1899
1295,1774,1771
1344,1946,1821
1306,2017,1984
1277,1995,1888
1245,1841,1762
1287,1933,1867
1327,2034,1981
1283,1808,1871
1276,1767,1749
1296,1879,1797
1309,2012,1941
1291,2094,1935
1314,1952,1805
1269,1747,1795
1311,1903,1949
1265,1855,1872
1268,1823,1819
1279,1919,1839
1306,1942,1903
1299,1936,1879
1268,1872,1771
1302,1910,1847
1327,1956,1958
1314,1879,1907
1289,1802,1776
1303,1890,1805
1360,1828,1906
1290,1899,1891
1306,1966,1806
1337,1905,1850
1394,2061,1981
1309,1875,1867
1268,1856,1764
1318,1879,1826
1343,1911,1910
1296,1886,1858
1285,1827,1781
1281,1835,1825
1295,1917,1926
1330,1963,1869
1292,1883,1770
1376,1869,1861
1341,1882,1969
1329,1904,1881
1239,1894,1751
1387,1861,1821
1324,1874,1949
1324,1978,1917
1309,1854,1814
1344,1870,1837
1367,1965,1933
1354,1955,1875
1287,1765,1771
1402,1814,1814
1364,1931,1935
1317,2030,1917
1291,1974,1805
1322,1776,1806
1351,1827,1917
1339,1863,1870
1297,1922,1814
1369,1855,1861
1347,1958,1919
1336,1902,1856
1360,1789,1792
1402,1881,1866
1409,1975,1969
1310,1877,1850
1309,1856,1777
1360,1897,1840
1379,1931,1930
1367,1954,1894
1345,1830,1797
1392,1865,1841
1407,1968,1945
1360,2105,1890
1317,1891,1779
1349,1847,1810
1379,1899,1925
1360,1821,1894
1394,1806,1810
1387,1837,1850
1347,1966,1881
1382,1966,1854
1341,2026,1839
1411,2022,1873
1349,1856,1886
1343,1790,1834
1347,1802,1750
1360,1826,1843
1441,1999,1947
1415,1945,1917
1374,1937,1796
1367,1925,1829
1408,1963,1911
1434,1904,1871
1405,1840,1790
1460,1932,1851
1490,1920,1929
1380,1870,1855
1378,1833,1765
1435,1988,1830
1469,1998,1935
1418,1852,1889
1408,1814,1771
1430,1915,1865
1463,1965,1952
1406,1878,1856
1381,1823,1759
1451,1968,1829
1474,2114,1941
1426,1845,1839
1344,1751,1742
1472,1935,1855
1488,2057,1954
1437,1904,1872
1488,1728,1808
1457,1860,1815
1514,1963,1891
1422,1968,1856
1425,1900,1805
1533,1877,1827
1503,1998,1911
1459,1949,1881
1439,1848,1778
1491,1853,1826
1508,1946,1920
1490,1869,1873
1466,1920,1777
1479,1872,1811
1510,1986,1927
1467,1895,1894
1471,1889,1807
1493,1919,1820
1535,2047,1951
1562,1947,1869
1474,1889,1773
1463,1872,1857
1511,1967,1955
1458,1787,1843
1447,1801,1740
1531,1958,1798
1499,2019,1935
1575,1920,1873
1554,1840,1793
1559,1904,1845
1557,1949,1921
1563,1978,1840
1488,1839,1744
1519,1841,1831
1488,1959,1948
1495,1941,1883
1472,1856,1744
1535,1856,1838
1568,1971,1943
1507,1936,1882
1491,1946,1791
1557,1936,1843
1602,1904,1945
1535,1854,1879
1502,1845,1776
1535,1875,1806
1575,1937,1919
1584,1942,1872
1559,1903,1779
1563,1926,1840
1591,1973,1935
1535,1792,1815
1515,1775,1725
1535,1877,1808
1597,1887,1917
1598,1905,1891
1535,1872,1760
1531,1879,1781
1589,1977,1922
1509,1954,1883
1600,1837,1778
1535,1815,1805
1611,1921,1894
1638,1937,1908
1527,1901,1803
1594,1903,1779
1600,1991,1913
1663,1882,1842
1581,1779,1747
1600,1857,1815
1677,2000,1936
1621,1877,1851
1587,1886,1743
1616,1910,1845
1639,1884,1930
1595,1856,1822
1553,1851,1761
1595,1854,1837
1642,1936,1924
1601,1915,1860
1642,1885,1797
1616,1902,1797
1635,1982,1887
1621,1948,1863
1599,1833,1763
1631,1842,1798
1659,1915,1923
1643,1903,1895
1623,1855,1765
1644,1893,1805
1684,1964,1923
1647,1921,1854
1671,1891,1786
1669,1983,1835
1665,2074,1929
1632,1872,1856
1646,1773,1777
1675,1914,1817
1682,1999,1883
1699,2031,1841
1646,1811,1725
1661,1858,1801
1680,2070,1943
1634,1887,1841
1646,1699,1755
1702,1878,1839
1706,2037,1904
1659,1965,1858
1652,1828,1779
1691,1959,1814
1711,1994,1915
1664,1862,1815
1645,1744,1746
1728,1911,1810
1732,2003,1933
1690,1959,1860
1655,1808,1759
1695,1950,1829
1713,1961,1893
1682,1854,1825
1723,1850,1817
1741,1987,1845
1725,1920,1889
1685,1907,1838
1690,1910,1776
1718,1892,1817
1719,1895,1872
1712,1814,1847
1681,1887,1795
1717,1904,1841
1727,1949,1902
1706,2013,1845
1711,1918,1767
1731,1837,1823
1760,1884,1910
1712,1969,1859
1708,1906,1785
1714,1856,1817
1746,1917,1916
1721,1973,1861
1697,1861,1731
1759,1905,1807
1781,1966,1939
1738,1919,1899
1701,1808,1772
1739,1918,1839
1747,1953,1903
1728,1809,1828
1733,1757,1768
1758,1920,1838
1752,1941,1906
1721,1925,1863
1712,1966,1791
1757,1919,1850
1792,1855,1907
1775,1876,1872
1737,1831,1792
1739,1944,1815
1770,1910,1921
1772,1946,1878
1755,1919,1776
1760,1934,1795
1741,1860,1893
1745,1855,1856
1750,1872,1808
1757,1807,1779
1787,1918,1876
1777,1957,1856
1781,2074,1857
1744,1811,1838
1779,1849,1904
1738,1884,1855
1735,1847,1781
1801,1893,1850
1821,1904,1918
1783,1840,1853
1748,1921,1802
1799,2010,1858
1810,1916,1920
1771,1871,1845
1791,1862,1775
1805,1881,1838
1801,1977,1920
1747,1931,1857
1768,1777,1789
1803,1887,1855
1823,2019,1917
1808,1841,1872
1769,1858,1776
1792,1904,1835
1827,1935,1923
1805,1923,1890
1795,1805,1777
1793,1824,1833
1804,1987,1935
1763,1862,1856
1777,1856,1768
1837,1904,1831
1869,2039,1959
1789,1903,1867
1771,1743,1746
1802,1824,1814
1840,1921,1942
1806,1947,1875
1757,1862,1776
1804,1863,1819
1838,1982,1938
1821,1903,1885
1789,1776,1742
1819,1831,1835
1841,1922,1939
1826,1950,1889
1801,1847,1791
1840,1935,1862
1847,1943,1938
1846,1938,1872
1822,1830,1755
1828,1904,1831
1833,1888,1951
1811,1872,1887
1802,1877,1762
1834,1889,1821
1877,1946,1951
1869,2017,1888
1805,1789,1744
1834,1782,1803
1840,1829,1903
1831,1849,1885
1828,1974,1808
1847,1872,1821
1874,1938,1890
1840,1961,1858
1803,1934,1802
1834,1809,1830
1848,1872,1944
1821,1917,1850
1813,1883,1751
1843,1858,1840
1867,1978,1938
1831,1909,1858
1818,1856,1761
1844,1882,1824
1872,1935,1935
1840,1950,1873
1822,1860,1768
1870,1882,1811
1884,2000,1881
1826,1913,1834
1809,1835,1777
1871,1874,1847
1870,1939,1952
1830,1838,1869
1813,1831,1787
1889,1814,1879
1882,1955,1903
1831,1872,1821
1839,1838,1754
1840,1851,1837
1874,1961,1966
1858,1863,1895
1840,1811,1752
1891,1850,1808
1904,1998,1904
1857,1953,1873
1837,1835,1779
1840,1777,1825
1893,1892,1949
1897,1959,1904
1862,1871,1766
1863,1782,1786
1887,1843,1895
1879,1909,1857
1856,1881,1791
1898,1906,1846
1914,2024,1913
1840,1783,1856
1823,1782,1771
1881,1910,1829
1927,1915,1926
1903,1883,1886
1883,1803,1787
1870,1911,1794
1872,1878,1904
1879,1936,1868
1904,1965,1798
1906,1847,1843
1921,1903,1935
1886,1903,1847
1889,1845,1773
1922,1890,1828
1947,2001,1918
1924,1986,1862
1862,1713,1745
1902,1831,1799
1968,2095,1923
1952,1958,1875
1898,1723,1760
1920,1885,1821
1951,1984,1917
1885,1951,1829
1887,1793,1776
1926,1869,1818
1983,2062,1951
1991,1904,1886
1901,1722,1726
1946,1823,1778
1983,1944,1918
1938,1899,1883
1938,1827,1790
1972,1891,1828
1977,1927,1893
1971,1881,1853
1982,2023,1811
1995,1918,1829
1994,1839,1882
1975,1819,1831
1983,1781,1765
2023,1883,1847
2027,1927,1910
2002,1904,1824
2021,1955,1744
2075,1859,1819
2030,1792,1902
1977,1823,1842
2015,1899,1795
2099,2012,1840
2112,1934,1871
1991,1745,1787
1970,1741,1726
2065,1846,1808
2077,1859,1880
2058,1878,1823
2102,1821,1747
2097,1869,1822
2085,1883,1895
2077,1872,1831
2079,1795,1734
2096,1787,1787
2112,1860,1870
2110,1853,1817
2095,1857,1730
2137,1969,1823
2157,2016,1886
2103,1859,1795
2107,1674,1722
2162,1789,1769
2174,1921,1874
2136,1844,1808
2115,1723,1721
2178,1815,1783
2208,1911,1882
2195,1930,1834
2177,1931,1758
