1275,1856,1837
1264,1851,1730
1297,1890,1787
1323,1951,1881
1281,1827,1829
1301,1701,1722
1307,1826,1814
1266,1938,1886
1247,1871,1807
1269,1774,1744
1315,1847,1841
1347,2015,1957
1301,1974,1834
1269,1774,1712
1305,1754,1788
1335,1872,1872
1290,1843,1835
1303,1813,1765
1367,1841,1821
1371,1947,1921
1286,1856,1847
1310,1786,1772
1322,1850,1808
1341,2100,1921
1330,1920,1885
1292,1669,1746
1323,1727,1791
1341,1876,1888
1323,1871,1840
1328,1809,1761
1358,1846,1837
1370,1962,1933
1356,1919,1904
1357,1913,1808
1360,1863,1815
1379,1819,1890
1358,1863,1858
1352,1841,1811
1365,1824,1840
1393,1886,1924
1387,2014,1862
1351,1799,1755
1360,1775,1794
1415,1857,1898
1386,1930,1872
1344,1850,1778
1362,1835,1815
1394,1923,1938
1395,1947,1894
1377,1927,1786
1377,1827,1803
1410,1791,1936
1403,1853,1876
1351,1831,1744
1401,1923,1852
1423,1901,1934
1392,1833,1861
1397,1869,1783
1431,1962,1873
1431,1974,1946
1398,1826,1846
1387,1824,1769
1428,1882,1844
1442,1863,1955
1388,1875,1858
1392,1861,1776
1433,1876,1838
1457,1906,1926
1434,1861,1867
1407,1834,1787
1455,1890,1843
1491,1981,1967
1468,1934,1887
1440,1865,1781
1427,1813,1850
1439,1919,1950
1405,1840,1840
1424,1818,1785
1472,1904,1879
1508,1936,1943
1447,1886,1872
1426,1841,1803
1472,1959,1872
1503,1985,1947
1476,1901,1850
1455,1770,1793
1463,1826,1857
1475,1881,1943
1463,1859,1887
1462,1875,1798
1531,2009,1899
1535,2070,1955
1475,1774,1859
1472,1735,1767
1510,1858,1857
1514,1954,1929
1475,1970,1881
1487,1808,1821
1535,1860,1889
1530,1964,1936
1509,1906,1850
1498,1885,1801
1535,2055,1936
1535,1984,1977
1485,1898,1867
1479,1787,1746
1530,1831,1846
1559,1983,1930
1556,1961,1899
1535,1867,1821
1535,1840,1840
1535,1822,1927
1501,1857,1894
1502,1856,1782
1572,1982,1856
1589,1951,1981
1562,2000,1899
1535,1824,1773
1584,1911,1846
1575,1993,1951
1517,1763,1853
1499,1781,1776
1535,1840,1856
1581,1950,1951
1581,1923,1904
1570,1835,1815
1565,1930,1833
1594,2032,1939
1565,2000,1900
1530,1691,1791
1568,1785,1830
1575,1854,1919
1557,1919,1877
1561,1865,1803
1603,1872,1808
1605,1918,1907
1578,1942,1858
1555,1897,1806
1603,1954,1878
1631,1894,1938
1535,1783,1865
1559,1755,1789
1585,1914,1848
1613,1994,1930
1598,1891,1867
1579,1876,1787
1620,1861,1849
1648,1949,1952
1589,1900,1845
1571,1795,1759
1605,1821,1814
1635,1920,1917
1598,1967,1891
1600,1899,1815
1631,1904,1853
1644,1865,1887
1613,1838,1843
1600,1838,1777
1599,1911,1845
1646,1915,1933
1625,1982,1872
1601,1954,1797
1607,1879,1827
1617,1795,1899
1610,1944,1878
1616,1887,1823
1634,1840,1831
1655,1904,1905
1630,1808,1857
1613,1748,1770
1651,1886,1823
1653,1985,1920
1617,1933,1843
1631,1879,1793
1682,1841,1823
1648,1895,1881
1645,1831,1842
1638,1854,1755
1619,1877,1841
1654,1927,1967
1628,1902,1880
1633,1853,1767
1646,1840,1819
1657,1924,1906
1631,1901,1872
1623,1808,1785
1623,1888,1778
1638,1842,1883
1632,1879,1862
1647,1939,1777
1663,1837,1799
1667,1898,1924
1646,1850,1845
1642,1915,1744
1680,1872,1821
1675,1922,1923
1613,1898,1859
1610,1837,1765
1653,1847,1814
1670,1889,1904
1653,1866,1846
1654,1920,1776
1668,1907,1822
1663,1795,1863
1638,1792,1838
1658,1861,1776
1669,1839,1803
1676,1967,1867
1645,1925,1839
1620,1808,1751
1687,1855,1813
1707,2044,1904
1653,1795,1840
1664,1749,1750
1670,1835,1824
1683,1915,1904
1644,1830,1827
1643,1839,1760
1680,1904,1818
1708,1979,1916
1684,1907,1849
1649,1711,1759
1675,1797,1814
1705,1904,1913
1689,1887,1869
1679,1827,1776
1683,1761,1776
1690,1872,1856
1669,1958,1821
1661,1917,1794
1708,1813,1842
1719,1841,1911
1665,1840,1843
1649,1797,1754
1695,1904,1820
1707,1904,1911
1680,1798,1843
1657,1766,1719
1679,1879,1803
1696,1905,1902
1687,1958,1858
1672,1761,1749
1698,1790,1805
1717,1863,1885
1712,1904,1828
1689,1821,1766
1677,1776,1786
1719,1791,1887
1702,1967,1846
1674,1833,1744
1684,1837,1790
1713,1889,1875
1699,1861,1841
1679,1776,1750
1715,1789,1802
1710,1881,1855
1681,1872,1811
1690,1841,1753
1719,1859,1797
1744,1855,1871
1722,1922,1849
1685,1791,1769
1712,1840,1810
1734,1974,1889
1693,1867,1808
1695,1829,1762
1744,1871,1840
1750,1887,1918
1700,1837,1822
1697,1730,1745
1725,1791,1795
1736,1906,1889
1708,1863,1815
1694,1815,1743
1726,1840,1807
1747,1902,1899
1720,1842,1831
1704,1783,1747
1750,1840,1808
1767,1971,1920
1739,2074,1852
1722,1698,1715
1727,1620,1787
1733,1818,1903
1743,1931,1882
1719,1877,1746
1731,1813,1755
1754,1830,1872
1745,1878,1835
1745,1895,1760
1745,1779,1809
1744,1853,1903
1712,1798,1835
1724,1749,1728
1767,1817,1806
1820,1926,1915
1739,1808,1859
1687,1808,1747
1737,1885,1808
1776,1904,1904
1758,1920,1861
1737,1830,1741
1763,1867,1782
1781,1892,1911
1744,1839,1829
1714,1747,1730
1744,1746,1795
1780,1821,1921
1749,1997,1842
1719,1849,1724
1770,1823,1813
1776,1850,1893
1744,1822,1827
1737,1829,1767
1780,1946,1834
1783,1901,1898
1741,1821,1820
1745,1789,1729
1767,1813,1818
1786,1836,1904
1744,1924,1842
1758,1867,1794
1782,1829,1820
1783,1867,1882
1758,1805,1815
1744,1806,1758
1776,1867,1818
1805,1894,1913
1770,1774,1823
1745,1742,1733
1783,1811,1825
1792,1951,1903
1770,1984,1846
1757,1818,1767
1781,1812,1803
1782,1834,1881
1744,1813,1834
1746,1787,1741
1776,1901,1823
1826,2103,1939
1794,1938,1863
1746,1689,1741
1773,1763,1792
1771,1811,1872
1753,1829,1829
1745,1811,1757
1808,1889,1844
1852,1888,1911
1771,1872,1831
1749,1789,1773
1776,1918,1795
1795,1877,1897
1759,1793,1843
1776,1902,1808
1802,1919,1842
1793,1786,1881
1757,1759,1827
1769,1826,1770
1785,1875,1811
1779,1859,1868
1775,1856,1855
1776,1847,1787
1804,1849,1825
1825,1890,1905
1792,1892,1834
1776,1889,1762
1787,1873,1840
1793,1787,1904
1766,1789,1841
1786,1820,1771
1823,1841,1831
1813,1951,1858
1774,1872,1817
1773,1808,1776
1808,1870,1846
1837,1911,1914
1824,1897,1859
1776,1885,1776
1794,1821,1827
1821,1830,1904
1793,1854,1834
1792,1799,1789
1834,1867,1842
1840,1983,1914
1783,1842,1846
1770,1803,1766
1818,1862,1807
1834,1885,1895
1807,1915,1849
1783,1879,1758
1815,1783,1830
1845,1936,1942
1793,1851,1839
1773,1745,1728
1812,1794,1824
1857,1898,1917
1837,1967,1857
1808,1840,1750
1814,1904,1847
1833,1920,1930
1813,1776,1813
1777,1760,1758
1822,1894,1845
1862,2015,1920
1792,1818,1847
1791,1732,1774
1830,1855,1827
1833,1926,1894
1811,1966,1869
1793,1802,1776
1833,1841,1805
1842,1947,1856
1807,1914,1826
1797,1854,1784
1855,1813,1865
1841,1871,1872
1771,1815,1842
1765,1759,1771
1803,1840,1877
1827,1919,1904
1791,1909,1856
1795,1857,1778
1865,1936,1902
1867,1968,2000
1791,1840,1813
1791,1776,1747
1852,1792,1790
1843,1863,1911
1808,1863,1900
1806,1870,1745
1854,1949,1882
1866,1903,1952
1824,1875,1828
1783,1762,1714
1805,1822,1806
1855,1921,1943
1829,1907,1863
1781,1837,1744
1836,1903,1798
1867,2043,1937
1807,1848,1843
1771,1715,1718
1825,1799,1826
1872,1911,1903
1867,1881,1828
1806,1843,1701
1801,1829,1844
1841,1925,1970
1835,1881,1861
1791,1807,1776
1808,1840,1790
1828,1841,1891
1816,1866,1827
1822,1843,1744
1849,1781,1798
1849,1851,1905
1809,1822,1859
1799,1847,1773
1871,1930,1863
1890,2030,1947
1763,1735,1808
1769,1715,1690
1870,1877,1809
1903,1908,1975
1803,1791,1881
1760,1777,1699
1842,1921,1814
1842,1970,1953
1824,1749,1931
1778,1745,1788
1815,1858,1805
1847,1838,1904
1815,1783,1854
1827,1751,1776
1863,1963,1849
1840,1975,1906
1808,1744,1842
1786,1707,1770
1839,1801,1861
1840,1837,1945
1810,1821,1872
1797,1787,1744
1840,1911,1834
1841,1958,1893
1818,1918,1905
1807,1863,1779
1843,1919,1824
1843,1833,1871
1811,1673,1843
1808,1808,1791
1831,1904,1843
1805,1839,1904
1797,1862,1845
1823,1857,1749
1863,1893,1809
1846,1998,1942
1805,1867,1867
1783,1762,1728
1812,1806,1821
1855,1917,1936
1815,1995,1846
1813,1980,1741
1845,1935,1851
1855,1925,1872
1808,1968,1885
1790,1789,1724
1808,1831,1778
1857,1913,1946
1813,1867,1966
1808,1949,1767
1848,2079,1888
1863,1925,1894
1766,1819,1815
1769,1840,1766
1845,1886,1841
1863,1975,1937
1808,1914,1757
1806,1915,1788
1840,1847,1835
1861,1900,1941
1835,1999,1903
1808,1967,1783
1803,1857,1783
1817,1865,1872
1809,1866,1862
1840,1903,1766
1845,1936,1840
1814,1957,1891
1789,1966,1806
1799,1949,1759
1831,1875,1859
1847,1909,1856
1851,1854,1904
1827,1868,1823
1814,1893,1895
1830,2000,1904
1808,2011,1890
1815,1872,1808
1856,1908,1840
1855,1922,1935
1830,1830,1829
1847,1872,1759
1877,1998,1835
1846,1999,1943
1777,1808,1875
1826,1887,1774
1857,1973,1834
1835,1875,1890
1826,1902,1887
1810,1779,1800
1863,1824,1888
1869,1975,1904
1840,2022,1886
1823,1905,1823
1840,1825,1851
1840,1964,1904
1827,1942,1840
1844,1923,1791
1907,1977,1817
1904,1931,1873
1803,1812,1873
1776,1827,1804
1835,1887,1921
1872,1929,1974
1862,1990,1907
1836,1919,1745
1840,1865,1837
1862,1965,2001
1825,1857,1922
1821,1814,1802
1873,1975,1873
1885,1921,1946
1838,1837,1875
1835,1807,1847
1855,2011,1844
1915,2089,1967
1857,1905,1882
1805,1776,1798
1821,1808,1852
1872,1919,1936
1838,1953,1856
1824,1902,1789
1855,1869,1877
1883,1967,1975
1861,1930,1900
1845,1917,1808
1847,1866,1831
1859,1883,1914
1843,1877,1866
1845,1797,1777
1870,1882,1887
1879,1968,1959
1847,1903,1877
1840,1853,1802
1898,1969,1886
1915,2081,1985
1842,1831,1850
1806,1766,1754
1869,1818,1840
1862,1899,1938
1834,1856,1894
1839,1911,1825
1865,1945,1850
1866,1904,1919
1851,1927,1852
1826,1849,1791
1864,1795,1873
1890,1962,1962
1847,1914,1889
1861,1840,1795
1885,1844,1884
1874,1918,1947
1885,1925,1902
1827,1872,1815
1849,1839,1856
1877,1930,1947
1871,1855,1873
1874,1828,1798
1936,1963,1889
1854,1978,1921
1830,1879,1871
1863,1807,1814
1876,1862,1893
1875,1904,1949
1872,1847,1873
1840,1895,1810
1856,1920,1872
1866,1844,1921
1873,1872,1889
1841,1872,1813
1867,1857,1881
1887,1941,1954
1853,1919,1893
1823,1842,1786
1907,1867,1826
1937,1920,1922
1853,1808,1872
1834,1789,1814
1843,1872,1895
1891,1927,1972
1909,1920,1904
1879,1891,1834
1853,1862,1851
1890,1895,1958
1843,1942,1904
1858,1917,1819
1885,1847,1866
1872,1841,1943
1840,1838,1873
1808,1818,1792
1904,1881,1870
1937,1938,1959
1851,1983,1899
1854,1862,1792
1874,1810,1843
1872,1805,1949
1845,1831,1881
1842,1854,1779
1904,1872,1850
1876,1936,1969
1866,1866,1891
1861,1791,1776
1865,1921,1845
1886,2031,1962
1843,1875,1884
1888,1837,1801
1894,1861,1869
1862,1921,1947
1815,1774,1868
1785,1776,1797
1843,1889,1872
1871,1913,1950
1867,1953,1898
1853,1863,1792
1859,1819,1825
1823,1796,1915
1840,1810,1886
1888,1921,1797
1874,1870,1835
1904,1891,1918
1814,1793,1850
1839,1790,1794
1922,1879,1872
1887,1921,1935
1858,1901,1870
1837,1818,1787
1866,1891,1851
1887,1871,1939
1847,1810,1882
1861,1919,1799
1881,1872,1823
1879,1817,1894
1844,1824,1852
1830,1838,1796
1865,1847,1851
1955,1870,1931
1874,1899,1875
1853,1837,1777
1879,1783,1843
1877,1840,1918
1726,1930,1886
1866,1851,1801
1923,1808,1854
1776,1904,1920
1844,1851,1855
1809,1867,1767
1850,1887,1850
1875,1885,1946
1855,1898,1886
1833,1806,1764
1866,1785,1813
1855,1840,1913
1845,1871,1873
1835,1829,1839
1857,1875,1876
1840,1888,1925
1833,1823,1866
1890,1875,1813
1864,1855,1855
1833,1856,1901
1840,1824,1847
1856,1822,1760
1870,1897,1827
1877,1902,1943
1840,1904,1865
1804,1801,1781
1873,1789,1840
1904,1861,1920
1839,1892,1870
1779,1791,1815
1794,1765,1847
1781,1891,1911
1792,1920,1866
1815,1936,1802
1836,1857,1840
1859,1776,1927
1873,1807,1882
1733,1827,1784
1803,1920,1872
1884,1803,1907
1833,1840,1866
1850,1884,1810
1872,1868,1819
1909,1872,1936
1817,1744,1863
1845,1872,1814
1895,1973,1852
1855,1834,1893
1807,1777,1838
1823,1776,1767
1844,1886,1881
1907,1966,1991
1872,1818,1911
1761,1712,1757
1827,1863,1813
1871,1957,1943
1840,1811,1889
1822,1711,1756
1839,1838,1817
1840,1927,1908
1799,1904,1904
1811,1872,1808
1877,1855,1878
1886,1936,1904
1818,1818,1808
1757,1729,1739
1853,1835,1855
1874,2018,1935
1796,1840,1854
1807,1762,1781
1874,1833,1886
1899,1899,1951
1827,1841,1839
1797,1817,1751
1829,1817,1803
1860,1922,1943
1845,1843,1877
1867,1965,1803
1835,1792,1825
1821,1793,1913
1808,1792,1871
1835,1823,1803
1885,1898,1832
1843,1888,1891
1797,1821,1843
1803,1840,1791
1863,1973,1842
1855,1813,1904
1826,1767,1855
1827,1824,1785
1846,1886,1829
1867,1926,1926
1809,1820,1856
1805,1745,1781
1846,1808,1839
1886,2117,1923
1821,1898,1879
1778,1703,1751
1808,1776,1819
1840,1872,1905
1838,1827,1867
1808,1803,1776
1847,1920,1824
1869,1937,1930
1822,1801,1870
1808,1862,1766
1887,1901,1849
1878,1889,1929
1855,1793,1814
1764,1780,1734
1823,1863,1856
1846,1953,1957
1846,1871,1909
1815,1780,1770
1808,1857,1771
1838,1843,1894
1822,1826,1869
1801,1801,1776
1838,1901,1845
1863,1936,1906
1863,1903,1891
1810,1776,1777
1856,1813,1827
1825,1917,1894
1791,1826,1818
1789,1811,1773
1849,1929,1859
1838,1904,1931
1786,1808,1849
1807,1904,1793
1847,1933,1900
1830,1870,1918
1786,1724,1804
1802,1801,1799
1845,2007,1871
1838,1949,1888
1802,1783,1842
1815,1782,1791
1857,1891,1854
1879,1934,1920
1844,1900,1851
1798,1851,1786
1810,1845,1846
1822,1835,1913
1803,1847,1861
1809,1930,1795
1835,1931,1837
1833,1821,1922
1818,1835,1894
1793,1821,1785
1818,1862,1836
1849,1967,1946
1824,1946,1881
1797,1778,1773
1834,1802,1830
1838,1939,1926
1838,2003,1893
1808,1796,1791
1826,1805,1834
1862,1782,1935
1825,1910,1877
1776,1930,1749
1786,1871,1797
1810,1818,1903
1813,1846,1878
1822,1877,1801
1840,1853,1858
1859,1868,1916
1822,1919,1861
1793,1891,1797
1813,1879,1826
1866,1878,1917
1824,1893,1871
1807,1809,1801
1860,1846,1850
1840,1879,1915
1797,1855,1861
1789,1890,1793
1825,1885,1822
1833,1938,1921
1815,1872,1911
1811,1778,1803
1834,1875,1841
1839,1952,1911
1804,1892,1840
1795,1793,1772
1824,1838,1859
1828,1911,1915
1820,1850,1854
1822,1847,1774
1808,1872,1850
1856,1984,1947
1796,1844,1857
1771,1838,1782
1838,1904,1885
1848,1943,1940
1802,1857,1846
1794,1809,1750
1821,1856,1818
1831,1856,1918
1806,1837,1866
1822,1868,1799
1843,2010,1850
1829,1975,1926
1800,1777,1815
1775,1753,1760
1838,1841,1861
1856,1978,1948
1776,1862,1831
1769,1818,1765
1808,1821,1840
1862,1927,1947
1829,1920,1886
1794,1925,1778
1831,1881,1843
1821,1857,1904
1794,1814,1846
1801,1803,1791
1838,1872,1843
1833,1986,1924
1802,1879,1863
1808,1805,1775
1820,1858,1824
1840,1984,1929
1840,1909,1871
1816,1898,1785
1850,1963,1856
1808,1785,1897
1776,1743,1844
1795,1773,1770
1835,1847,1839
1853,1937,1924
1819,1876,1878
1802,1886,1764
1832,1905,1840
1829,1943,1921
1809,1936,1871
1796,1763,1771
1830,1842,1830
1830,1840,1867
1793,1830,1837
1812,1814,1794
1840,1852,1851
1847,1955,1939
1839,1968,1865
1818,1875,1776
1829,1904,1815
1855,1985,1931
1826,1967,1884
1781,1706,1759
1802,1747,1813
1827,1827,1941
1808,1960,1866
1786,1853,1759
1820,1951,1834
1840,1857,1938
1815,1853,1863
1806,1794,1782
1842,1865,1849
1858,1936,1923
1838,2024,1867
1823,1895,1777
1873,1783,1817
1825,1855,1900
1778,1861,1872
1778,1807,1801
1823,1899,1841
1851,1893,1925
1812,1806,1861
1805,1846,1773
1855,1936,1824
1856,1985,1953
1808,1926,1895
1801,1799,1792
1835,1847,1830
1865,1773,1894
1810,1926,1864
1795,1855,1793
1829,1854,1837
1858,1849,1901
1826,1817,1856
1810,1834,1776
1811,1906,1851
1835,1943,1931
1825,1847,1863
1808,1788,1767
1817,1872,1814
1815,1897,1904
1805,1815,1878
1795,1767,1798
1835,1893,1838
1861,1959,1920
1834,1893,1874
1791,1730,1778
1806,1903,1837
1822,1965,1935
1804,1839,1847
1797,1825,1755
1837,1810,1802
1848,1910,1909
1809,1866,1862
1808,1827,1772
1846,1919,1840
1846,1910,1919
1833,1909,1887
1813,1872,1779
1808,1754,1825
1814,1809,1903
1807,1850,1855
1808,1822,1769
1841,1807,1839
1823,1901,1910
1791,1863,1840
1805,1726,1744
1851,1958,1857
1839,1919,1904
1778,1790,1808
1778,1639,1769
1831,1923,1831
1854,1894,1931
1806,1920,1867
1795,1786,1791
1827,1814,1835
1853,1903,1898
1799,1823,1814
1766,1797,1766
1804,1894,1824
1843,1957,1920
1823,1930,1879
1798,1862,1760
1814,1792,1802
1841,1878,1893
1823,1787,1859
1807,1819,1774
1831,1895,1826
1863,1871,1907
1805,1808,1836
1802,1906,1739
1827,1914,1846
1829,1943,1920
1800,1840,1845
1803,1823,1759
1793,1845,1792
1823,1980,1904
1799,1744,1863
1787,1836,1775
1820,1981,1817
1842,1872,1923
1793,1764,1837
1792,1779,1739
1826,1971,1823
1846,2075,1925
1807,1834,1846
1792,1686,1744
1819,1780,1806
1834,1873,1914
1805,1841,1835
1792,1762,1745
1825,1873,1822
1867,1901,1905
1788,1865,1822
1763,1810,1757
1810,1902,1830
1822,1870,1919
1785,1843,1836
1781,1840,1755
1841,2000,1831
1859,1842,1920
1788,1678,1840
1777,1774,1755
1815,1904,1817
1821,1881,1893
1803,1872,1835
1777,1856,1765
1831,1818,1829
1847,1891,1889
1792,1840,1839
1776,1841,1776
1809,1940,1856
1824,1759,1879
1794,1811,1811
1776,1819,1744
1815,1856,1808
1835,1963,1925
1795,1831,1855
1779,1808,1762
1811,1859,1818
1824,1936,1904
1786,1857,1815
1798,1819,1771
1827,1816,1810
1840,1792,1883
1783,1818,1822
1779,1821,1760
1808,1872,1840
1827,1940,1895
1797,1863,1840
1827,1820,1751
1827,1856,1858
1808,1931,1923
1763,1776,1814
1777,1789,1744
1821,1863,1826
1829,1891,1914
1808,1814,1829
1799,1776,1778
1817,1959,1827
1831,1994,1893
1789,1745,1840
1791,1744,1781
1829,1855,1840
1823,1891,1851
1791,1857,1810
1793,1845,1796
1831,1867,1852
1845,1878,1909
1830,1854,1827
1792,1746,1753
1823,1882,1840
1870,1993,1917
1805,1833,1798
1749,1774,1744
1792,1843,1855
1859,1957,1963
1806,1875,1849
1769,1820,1749
1795,1856,1797
1839,1927,1910
1817,1901,1869
1786,1836,1745
1806,1877,1817
1840,1808,1897
1838,1822,1840
1803,1834,1726
1807,1872,1805
1837,1887,1942
1795,1837,1891
1771,1858,1757
1819,1893,1805
1872,1909,1890
1777,1808,1813
1757,1730,1775
1808,1905,1852
1829,1911,1919
1805,1842,1834
1811,1839,1765
1851,1971,1867
1817,1862,1887
1789,1793,1808
1801,1825,1747
1829,1825,1835
1850,1886,1917
1840,1825,1852
1783,1857,1755
1808,1867,1821
1819,1857,1923
1801,1887,1861
1783,1838,1770
1830,1791,1840
1859,1920,1934
1814,1894,1851
1797,1808,1761
1837,1794,1844
1840,1866,1911
1808,1885,1852
1808,1907,1781
1841,1804,1840
1847,1830,1910
1833,1824,1830
1811,1878,1760
1856,1921,1842
1835,1901,1909
1786,1791,1863
1783,1744,1776
1822,1872,1846
1854,1955,1930
1818,1904,1856
1808,1838,1792
1818,1807,1846
1839,1901,1914
1798,1900,1840
1786,1808,1744
1825,1877,1818
1854,1984,1951
1806,1835,1851
1776,1765,1744
1814,1872,1825
1841,1936,1911
1799,1862,1877
1798,1895,1811
1827,1846,1831
1872,1872,1920
1808,1822,1855
1772,1808,1757
1814,1872,1827
1830,1939,1920
1802,1862,1850
1781,1847,1759
1808,1861,1808
1844,1894,1906
1851,1926,1872
1813,1887,1798
1795,1867,1797
1821,1843,1875
1809,1743,1856
1793,1779,1796
1814,1904,1822
1834,1961,1911
1807,1871,1876
1782,1821,1763
1809,1857,1822
1876,1966,1920
1838,1936,1874
1777,1797,1744
1778,1786,1780
1818,1856,1925
1807,1831,1869
1789,1806,1799
1818,1968,1826
1830,1920,1899
1809,1894,1840
1807,1885,1786
1829,1954,1840
1831,1889,1904
1808,1802,1830
1796,1775,1746
1824,1809,1807
1840,1904,1872
1806,1930,1855
1793,1840,1806
1823,1840,1839
1839,1915,1905
1808,1874,1845
1806,1846,1757
1818,1915,1836
1840,1941,1936
1822,1891,1856
1803,1850,1751
1822,1831,1808
1856,1922,1905
1831,1892,1863
1844,1744,1755
1799,1791,1741
1793,1909,1936
1819,1953,1903
1794,1821,1823
1823,1872,1797
1845,1900,1904
1810,1857,1828
1802,1861,1761
1856,1854,1878
1851,1975,1907
1794,1829,1809
1794,1764,1790
1815,1858,1814
1839,1914,1935
1820,1923,1869
1825,1872,1843
1841,1968,1840
1829,1846,1909
1810,1818,1815
1805,1808,1735
1823,1893,1855
1846,1935,1936
1835,1853,1859
1785,1829,1751
1808,1857,1815
1835,1904,1913
1818,1885,1898
1808,1879,1791
1836,1865,1822
1846,1855,1946
1829,1875,1840
1847,1855,1774
1843,1827,1840
1825,1904,1919
1797,1879,1834
1813,1837,1719
1837,1889,1828
1837,1887,1927
1815,1878,1883
1795,1840,1777
1826,1835,1827
1831,1933,1904
1821,1942,1872
1810,1840,1773
1842,1869,1826
1842,1861,1923
1819,1847,1857
1803,1873,1770
1824,1847,1840
1855,1856,1920
1858,1856,1840
1822,1924,1828
1807,1872,1781
1842,1839,1904
1830,1854,1808
1793,1861,1758
1808,1818,1863
1830,1874,1930
1802,1813,1807
1794,1778,1746
1808,1862,1805
1833,1899,1915
1827,1941,1904
1808,1778,1774
1845,1808,1827
1851,1931,1946
1827,1904,1900
1808,1806,1802
1814,1791,1814
1825,1867,1946
1813,1889,1840
1799,1792,1791
1823,1840,1803
1851,1908,1918
1815,1874,1862
1805,1841,1779
1833,1862,1856
1840,1962,1974
1833,1968,1892
1805,1733,1781
1838,1722,1824
1838,1863,1904
1794,1894,1885
1814,1885,1869
1803,1794,1767
1813,1861,1912
1818,1922,1863
1802,1911,1768
1813,1794,1783
1834,1795,1927
1813,1834,1769
1803,1793,1798
1845,1904,1860
1855,1883,1904
1815,1802,1854
1791,1791,1789
1825,1918,1774
1834,1917,1921
1811,1927,1841
1787,1838,1766
1818,1853,1854
1856,1808,1905
1797,1745,1788
1782,1789,1821
1808,1853,1825
1813,1901,1892
1782,1860,1872
1792,1817,1744
1835,1842,1839
1851,1956,1984
1801,1842,1821
1780,1711,1665
1828,1801,1808
1851,1993,1893
1793,1901,1853
1772,1755,1776
1804,1814,1785
1823,1903,1942
1801,1883,1886
1787,1911,1832
1814,1866,1830
1811,1835,1922
1808,1875,1849
1776,1790,1754
1808,1824,1794
1838,1920,1925
1794,1862,1859
1786,1734,1776
1808,1919,1839
1814,1968,1936
1795,1860,1805
1776,1766,1792
1818,1843,1859
1840,1895,1943
1827,1903,1841
1824,1829,1732
1809,1830,1813
1791,1835,1919
1766,1806,1840
1773,1785,1783
1829,1873,1855
1837,1974,1911
1785,1846,1773
1781,1831,1774
1837,1808,1846
1847,1982,1914
1824,1909,1826
1787,1744,1725
1796,1795,1872
1810,1856,1904
1819,1854,1857
1807,1856,1730
1808,1833,1818
1840,1843,1920
1794,1872,1894
1758,1808,1781
1804,1955,1874
1844,1973,1936
1810,1810,1829
1817,1712,1770
1817,1840,1826
1813,1901,1877
1781,1850,1834
1777,1791,1747
1815,1824,1814
1829,1887,1931
1809,1867,1881
1790,1876,1761
1827,1945,1854
1819,1915,1907
1786,1847,1827
1783,1776,1753
1831,1845,1824
1849,1993,1919
1791,1840,1822
1773,1715,1759
1813,1814,1819
1829,1928,1909
1798,1862,1847
1783,1869,1765
1836,1953,1840
1818,1887,1891
1808,1835,1872
1794,1802,1771
1813,1859,1809
1840,1883,1909
1801,1795,1818
1781,1810,1761
1799,1806,1801
1851,1947,1905
1859,1929,1840
1776,1853,1786
1779,1885,1824
1859,1936,1906
1751,1830,1866
1790,1861,1780
1840,1904,1817
1838,1851,1902
1783,1854,1869
1826,1843,1779
1805,1843,1818
1801,1910,1886
1792,1897,1811
1799,1797,1755
1806,1874,1881
1808,1974,1936
1811,1904,1843
1728,1824,1744
1767,1776,1804
1837,1894,1906
1780,1825,1855
1776,1777,1789
1856,1872,1815
1836,1982,1893
1798,1908,1840
1771,1744,1750
1808,1902,1840
1823,1968,1933
1851,1947,1847
1749,1802,1754
1798,1772,1796
1818,1872,1923
1808,1892,1855
1786,1821,1777
1811,1874,1831
1856,1854,1931
1839,1841,1875
1762,1920,1773
1819,1875,1803
1840,1904,1904
1809,1827,1826
1774,1760,1760
1822,1886,1834
1808,1917,1936
1792,1854,1858
1851,1793,1745
1858,1903,1807
1821,1959,1936
1806,1902,1867
1781,1765,1760
1840,1866,1850
1854,1955,1898
1804,1865,1848
1805,1763,1773
1834,1840,1815
1873,1939,1909
1802,1858,1837
1765,1815,1775
1893,1978,1856
1821,1890,1893
1808,1817,1847
1733,1772,1778
1776,1837,1837
1838,1941,1917
1773,1837,1837
1814,1791,1798
1899,1904,1856
1874,1938,1892
1777,1856,1839
1778,1795,1770
1811,1842,1842
1835,1905,1927
1753,1874,1851
1823,1851,1744
1783,1861,1829
1792,1859,1923
1799,1834,1862
1794,1859,1778
1837,1847,1829
1834,1996,1904
1797,1884,1854
1783,1758,1757
1794,1803,1817
1820,1923,1915
1804,1913,1859
1773,1824,1765
1802,1857,1826
1848,1869,1905
1764,1914,1869
1789,1823,1787
1950,1887,1855
1930,1923,1919
1798,1891,1853
1770,1786,1773
1826,1855,1829
1846,1874,1911
1797,1859,1847
1760,1811,1749
1749,1865,1841
1821,1905,1923
1808,1850,1868
1803,1846,1765
1836,1849,1791
1823,1952,1936
1774,1831,1861
1765,1759,1758
1807,1815,1822
1847,1905,1930
1793,1963,1882
1801,1829,1744
1799,1803,1783
1833,1897,1913
1797,1828,1846
1808,1758,1745
1799,1826,1850
1874,1896,1933
1837,1854,1850
1781,1936,1776
1791,1879,1828
1776,1837,1903
1840,1855,1872
1828,1851,1815
1826,1933,1856
1799,1951,1914
1783,1826,1847
1833,1759,1757
1849,1827,1838
1840,1913,1931
1808,1934,1872
1830,1838,1793
1830,1801,1839
1857,1910,1920
1872,1875,1845
1840,1855,1772
1867,1872,1791
1813,1893,1901
1754,1913,1920
1754,1845,1814
1808,1829,1850
1807,1903,1904
1815,1946,1869
1791,1791,1775
1815,1801,1831
1834,1861,1921
1825,1891,1867
1857,1933,1785
1840,1888,1841
1829,1931,1914
1766,1776,1827
1764,1719,1771
1819,1903,1846
1845,1987,1919
1798,1861,1840
1872,1730,1778
1858,1883,1872
1794,1936,1937
1766,1872,1856
1777,1810,1776
1835,1852,1810
1788,1909,1915
1863,1850,1870
1833,1851,1778
1813,1863,1814
1824,1871,1904
1808,1854,1837
1808,1830,1750
1830,1872,1840
1855,1936,1936
1818,1919,1879
