1822,1953,1904
1799,1806,1856
1790,1706,1791
1810,1862,1829
1823,1910,1894
1808,1871,1869
1790,1779,1773
1819,1829,1824
1840,1904,1911
1829,1869,1883
1819,1869,1741
1843,1991,1820
1834,1846,1898
1820,1837,1927
1791,1787,1750
1808,1799,1830
1831,1868,1962
1806,1871,1861
1780,1833,1763
1815,1874,1825
1839,1920,1856
1807,1860,1851
1797,1914,1810
1814,1873,1834
1830,1840,1872
1806,1859,1847
1811,1750,1791
1824,1825,1822
1831,1891,1903
1798,1830,1845
1796,1815,1750
1835,1897,1824
1835,1943,1909
1821,1908,1881
1793,1835,1777
1828,1834,1816
1842,1872,1893
1808,1807,1871
1795,1840,1782
1840,1871,1840
1829,1855,1905
1786,1842,1847
1779,1793,1777
1826,1808,1825
1829,1972,1927
1808,1968,1855
1778,1753,1739
1802,1744,1786
1833,1865,1904
1808,1885,1867
1790,1870,1795
1834,1858,1836
1843,1929,1935
1798,1867,1859
1785,1846,1767
1821,1840,1824
1845,1883,1920
1744,1769,1839
1797,1840,1773
1798,1898,1840
1808,1917,1909
1790,1815,1851
1827,1776,1785
1782,1881,1810
1825,1907,1906
1841,1858,1886
1762,1831,1776
1761,1902,1829
1858,1857,1922
1831,1931,1851
1820,1791,1777
1787,1806,1828
1808,1941,1904
1795,1840,1857
1801,1808,1765
1808,1903,1834
1848,1934,1905
1780,1815,1829
1791,1712,1749
1815,1864,1799
1817,1914,1904
1777,1826,1851
1779,1776,1764
1794,1929,1847
1836,2009,1936
1814,1841,1840
1819,1770,1763
1798,1776,1813
1870,2026,1940
1830,1904,1840
1763,1748,1742
1819,1757,1823
1825,1872,1914
1766,1872,1856
1792,1865,1779
1820,1857,1833
1838,1862,1921
1808,1873,1859
1780,1904,1745
1808,1852,1805
1866,1869,1935
1834,1879,1883
1771,1849,1794
1808,1857,1808
1833,1866,1895
1792,1814,1842
1829,1766,1757
1807,1808,1851
1806,1984,1927
1793,1936,1863
1738,1855,1761
1791,1808,1803
1806,1837,1933
1845,1861,1891
1798,1823,1771
1802,1826,1792
1811,1875,1911
1837,1837,1881
1773,1882,1791
1854,1903,1833
1866,1905,1905
1775,1862,1863
1804,1811,1776
1871,1840,1845
1856,1895,1933
1807,1873,1863
1774,1806,1749
1824,1895,1822
1862,1871,1916
1778,1827,1872
1761,1782,1737
1851,1854,1786
1825,1910,1925
1803,1862,1854
1788,1883,1774
1823,1855,1855
1839,1851,1914
1797,1858,1836
1803,1870,1767
1791,1783,1834
1821,1839,1917
1774,1863,1862
1776,1869,1776
1810,1854,1840
1833,1859,1893
1915,1884,1834
1803,1936,1802
1813,1879,1840
1840,1829,1919
1798,1776,1847
1774,1791,1761
1822,1872,1831
1840,1959,1939
1841,1867,1846
1840,1811,1766
1815,1838,1825
1840,1921,1931
1814,1905,1846
1775,1865,1763
1804,1806,1808
1845,1856,1934
1812,1868,1846
1761,1808,1728
1798,1840,1802
1883,1891,1910
1801,1886,1870
1783,1784,1773
1808,1824,1840
1822,1930,1922
1845,1947,1840
1830,1815,1744
1845,1840,1822
1808,1907,1927
1850,1828,1856
1766,1784,1742
1807,1852,1792
1811,1911,1904
1847,1861,1856
1789,1812,1780
1813,1808,1851
1884,1930,1923
1872,2032,1872
1749,1790,1746
1759,1747,1788
1863,1811,1876
1804,1801,1834
1791,1801,1765
1745,1901,1842
1818,1914,1904
1823,1969,1863
1766,1850,1745
1799,1841,1826
1845,1855,1920
1793,1875,1871
1790,1885,1767
1801,1863,1812
1809,1830,1910
1784,1863,1825
1793,1821,1773
1821,1776,1840
1878,1979,1893
1827,1875,1849
1811,1781,1762
1826,1865,1827
1849,1977,1903
1806,1915,1866
1744,1760,1756
1799,1807,1840
1840,1923,1935
1794,1918,1859
1824,1778,1771
1835,1893,1831
1826,1936,1927
1815,1904,1887
1764,1751,1746
1825,1808,1830
1730,1938,1929
1819,1900,1862
1776,1802,1769
1822,1861,1837
1840,1906,1911
1805,1861,1855
1802,1903,1776
1829,1888,1813
1842,1905,1926
1825,1872,1904
1799,1770,1763
1834,1899,1822
1845,1948,1904
1808,1867,1840
1793,1840,1798
1802,1877,1843
1831,1865,1923
1808,1794,1879
1809,1856,1792
1808,1888,1822
1819,1931,1922
1806,1895,1860
1798,1835,1787
1851,1789,1855
1857,1906,1934
1808,1943,1882
1792,1899,1779
1818,1897,1838
1828,1856,1915
1819,1886,1866
1792,1827,1750
1818,1854,1825
1844,1823,1916
1808,1866,1859
1804,1840,1773
1829,1888,1825
1842,1959,1933
1810,1890,1873
1817,1836,1813
1841,1929,1868
1851,1950,1920
1811,1919,1849
1792,1863,1765
1821,1802,1803
1855,1890,1929
1817,1791,1870
1794,1754,1773
1846,1869,1850
1845,1951,1923
1810,1933,1866
1792,1831,1801
1833,1892,1852
1865,1945,1933
1817,1878,1837
1799,1834,1763
1840,1807,1843
1863,1854,1953
1828,1899,1872
1776,1870,1745
1803,1869,1798
1845,1983,1938
1815,1889,1872
1801,1807,1771
1839,1859,1843
1869,1905,1936
1817,1871,1882
1799,1858,1790
1838,1942,1829
1851,1925,1920
1819,1840,1862
1795,1785,1779
1823,1848,1822
1851,1915,1932
1840,1888,1888
1809,1840,1775
1832,1874,1822
1857,1974,1925
1829,1840,1883
1808,1798,1777
1830,1841,1840
1855,1935,1911
1822,1866,1873
1795,1824,1755
1827,1837,1806
1874,1892,1914
1815,1885,1870
1783,1807,1769
1837,1863,1827
1869,1919,1922
1834,1889,1859
1809,1839,1786
1835,1859,1840
1841,1950,1907
1808,1856,1849
1798,1840,1761
1840,1842,1840
1846,1905,1915
1808,1851,1842
1808,1929,1783
1830,1820,1823
1838,1856,1909
1825,1875,1867
1821,1795,1760
1821,1878,1819
1836,1925,1938
1825,1892,1886
1785,1797,1762
1826,1813,1821
1856,1916,1929
1809,1931,1870
1798,1790,1782
1836,1807,1831
1849,1897,1932
1814,1907,1858
1794,1826,1770
1830,1805,1819
1853,1922,1903
1822,1915,1872
1789,1824,1781
1819,1769,1798
1842,1850,1922
1835,1965,1886
1791,1821,1751
1823,1882,1825
1840,1907,1925
1823,1872,1862
1789,1842,1777
1815,1828,1825
1843,1825,1921
1802,1924,1870
1778,1792,1776
1815,1791,1823
1837,1877,1921
1812,1862,1863
1795,1825,1774
1827,1888,1827
1843,1954,1917
1810,1803,1871
1790,1776,1779
1825,1927,1834
1846,1915,1936
1808,1815,1863
1782,1837,1728
1825,1910,1823
1831,1849,1920
1778,1790,1861
1758,1761,1764
1809,1889,1840
1847,1936,1944
1813,1856,1873
1786,1827,1783
1799,1811,1827
1827,1842,1910
1793,1866,1846
1778,1805,1748
1824,1911,1834
1850,1929,1939
1808,1873,1872
1775,1814,1765
1814,1783,1796
1846,1894,1880
1809,1949,1861
1782,1744,1797
1808,1795,1821
1840,1905,1900
1793,1800,1877
1785,1897,1815
1818,1929,1843
1822,1876,1905
1782,1809,1815
1761,1731,1731
1813,1824,1834
1844,1954,1942
1818,1936,1890
1791,1856,1771
1817,1783,1801
1844,1866,1920
1809,1898,1883
1785,1775,1757
1812,1840,1797
1839,1901,1898
1815,1906,1872
1786,1854,1791
1819,1933,1814
1831,1847,1904
1819,1851,1825
1793,1856,1770
1835,1857,1871
1851,1955,1951
1793,1822,1883
1775,1783,1775
1808,1877,1819
1839,1904,1894
1808,1809,1829
1773,1806,1762
1829,1868,1847
1845,1951,1941
1810,1892,1872
1792,1790,1796
1825,1791,1825
1853,1929,1917
1819,1951,1854
1797,1870,1750
1840,1946,1817
1863,1939,1936
1805,1746,1841
1782,1732,1759
1839,1883,1849
1856,2023,1947
1821,1919,1858
1808,1733,1776
1826,1936,1817
1839,1962,1899
1799,1735,1853
1759,1645,1734
1824,1797,1795
1870,1984,1951
1840,1984,1908
1796,1857,1778
1829,1641,1804
1831,1955,1902
1808,1787,1862
1809,1762,1803
1847,1909,1856
1826,1984,1909
1795,1802,1792
1755,1693,1742
1794,1818,1827
1842,1923,1904
1804,1902,1829
1791,1722,1775
1823,1872,1841
1840,1951,1919
1822,1843,1878
1798,1871,1790
1819,1841,1775
1837,1803,1875
1805,1771,1846
1776,1818,1739
1840,1943,1884
1851,1837,1938
1779,1741,1802
1739,1729,1713
1807,1825,1808
1885,1824,1968
1825,1856,1897
1729,1867,1735
1781,1965,1814
1844,2047,1940
1840,1920,1871
1791,1968,1790
1755,1672,1739
1791,1741,1850
1766,1762,1857
1744,1744,1743
1795,1900,1797
1808,2015,1871
1761,1889,1831
1744,1797,1774
1774,1797,1795
1818,1892,1877
1787,1775,1851
1754,1758,1746
1792,1825,1805
1834,1904,1889
1787,2000,1801
1754,1941,1728
1803,2054,1834
1812,2015,1882
1766,1707,1808
1741,1744,1763
1786,1898,1826
1800,1872,1888
1763,1893,1824
1750,1865,1744
1827,2141,1830
1812,1861,1887
1773,1683,1818
1764,1744,1758
1803,1798,1783
1835,2017,1862
1789,1909,1839
1744,1875,1759
1786,1920,1807
1823,1936,1859
1802,1951,1837
1778,1855,1781
1808,1843,1840
1814,1830,1872
1794,1852,1831
1778,1868,1743
1793,1903,1791
1815,1936,1881
1791,1967,1889
1772,1936,1805
1802,1743,1798
1808,1808,1846
1794,1874,1831
1776,1866,1757
1827,1936,1831
1835,1869,1903
1808,1795,1833
1797,1865,1725
1819,1826,1849
1808,2016,1904
1780,1895,1823
1783,1857,1776
1849,1809,1843
1904,1988,1975
1799,1936,1884
1725,1873,1702
1758,1837,1751
1829,1887,1907
1824,1895,1898
1792,1901,1770
1866,1895,1785
1817,1875,1874
1763,1849,1883
1775,1906,1798
1810,1922,1819
1838,1934,1904
1817,1937,1873
1770,1673,1731
1805,1847,1792
1840,1953,1901
1827,1873,1857
1774,1778,1761
1798,1856,1815
1830,1890,1933
1808,1968,1883
1745,1819,1709
1785,1790,1776
1862,1879,1970
1822,1973,1873
1759,1855,1735
1794,1828,1826
1808,1862,1905
1802,1850,1867
1805,1965,1814
1808,1904,1825
1808,1840,1889
1777,1834,1855
1757,1862,1771
1808,1815,1826
1856,2011,1937
1802,1857,1875
1771,1817,1785
1805,1826,1793
1825,1968,1893
1817,1799,1891
1783,1843,1761
1824,1984,1792
1847,1907,1896
1775,1741,1851
1757,1751,1766
1834,1906,1845
1898,1968,1949
1813,1923,1863
1777,1803,1776
1818,1830,1816
1808,1865,1889
1781,1923,1856
1785,1915,1792
1815,1826,1824
1840,1870,1921
1803,1877,1891
1790,1813,1775
1805,1794,1791
1822,1930,1885
1823,1958,1909
1804,1806,1785
1813,1904,1812
1846,2010,1919
1820,1840,1867
1777,1794,1757
1791,1825,1808
1831,1872,1915
1811,1840,1883
1765,1823,1773
1793,1829,1808
1823,1961,1916
1813,1917,1881
1781,1843,1792
1841,1927,1851
1839,1882,1885
1792,1796,1807
1776,1768,1771
1827,1870,1856
1852,1957,1949
1809,1861,1870
1776,1792,1755
1823,1891,1823
1866,1920,1936
1822,1870,1861
1792,1834,1770
1827,1893,1853
1835,1907,1899
1795,1822,1829
1793,1767,1771
1835,1856,1836
1857,1923,1935
1837,1906,1891
1811,1794,1787
1813,1829,1783
1853,1890,1901
1839,1957,1895
1796,1845,1763
1818,1762,1805
1854,1872,1918
1808,1852,1856
1812,1840,1790
1854,1835,1853
1845,1915,1893
1805,1871,1872
1776,1872,1786
1823,1855,1843
1855,1919,1919
1827,1878,1878
1798,1738,1776
1830,1792,1823
1845,1946,1904
1830,1939,1866
1799,1773,1763
1831,1797,1828
1863,1937,1936
1829,1858,1878
1801,1870,1761
1813,1881,1809
1831,1841,1907
1827,1876,1899
1821,1862,1801
1843,1952,1851
1854,1866,1902
1815,1795,1835
1819,1803,1797
1852,1905,1830
1868,1968,1923
1830,1927,1846
1808,1791,1757
1840,1846,1839
1871,1962,1920
1831,1936,1892
1790,1710,1776
1839,1791,1821
1883,1972,1950
1837,1899,1888
1819,1813,1807
1839,1835,1815
1857,1904,1917
1839,1893,1860
1809,1811,1755
1838,1815,1813
1866,1904,1926
1841,1973,1883
1825,1751,1799
1817,1712,1808
1833,2000,1914
1822,1954,1905
1801,1759,1807
1832,1903,1827
1853,1951,1911
1831,1866,1886
1808,1822,1770
1835,1822,1781
1866,1910,1927
1829,1872,1862
1801,1836,1771
1827,1866,1844
1847,1904,1941
1819,1969,1883
1822,1821,1744
1839,1801,1808
1839,1850,1875
1810,1909,1874
1776,1791,1774
1809,1783,1815
1868,1893,1968
1830,1931,1843
1795,1882,1761
1824,1889,1826
1855,1927,1917
1827,1840,1902
1808,1858,1782
1808,1810,1818
1833,1839,1919
1823,1894,1856
1811,1825,1821
1867,1935,1856
1903,1951,1953
1830,1783,1879
1775,1855,1787
1858,2094,1920
1853,1860,1931
1778,1791,1862
1751,1670,1729
1808,1686,1824
1875,1898,2016
1802,1837,1842
1748,1880,1704
1805,1889,1779
1845,1911,1908
1802,1841,1853
1778,1809,1787
1823,1808,1840
1874,1941,1929
1805,1898,1872
1751,1751,1746
1794,1788,1851
1843,1934,1920
1822,1905,1883
1776,1867,1741
1815,1819,1809
1842,1930,1963
1794,1891,1867
1766,1687,1719
1813,1790,1830
1824,1901,1926
1835,1839,1936
1806,1888,1781
1818,1900,1815
1813,1909,1905
1795,1873,1899
1792,1872,1779
1813,1808,1792
1828,1808,1875
1804,1855,1853
1779,1848,1761
1818,1852,1792
1836,1865,1904
1810,1943,1838
1765,1808,1743
1801,1820,1834
1846,1872,2018
1813,1908,1873
1778,1885,1776
1819,1899,1773
1827,1875,1838
1781,1791,1831
1780,1853,1832
1822,1859,1808
1852,1942,1959
1801,1849,1882
1785,1808,1728
1807,1850,1793
1822,1854,1886
1872,1905,1866
1807,1904,1813
1808,1893,1835
1807,1911,1917
1771,1827,1838
1773,1778,1781
1808,1843,1847
1835,1873,1915
1822,1841,1883
1791,1933,1776
1821,1941,1813
1850,1973,1936
1814,1831,1844
1787,1841,1751
1826,1889,1791
1833,1897,1961
1791,1939,1872
1776,1858,1737
1795,1860,1808
1826,1874,1909
1808,1885,1901
1792,1871,1776
1822,1891,1776
1839,1886,1873
1811,1856,1846
1799,1817,1747
1825,1905,1840
1846,1946,1956
1829,2033,1909
1808,1856,1756
1824,1831,1808
1820,1900,1888
1787,1904,1868
1802,1827,1795
1850,1829,1841
1846,1975,1937
1803,1885,1936
1778,1849,1751
1809,1872,1853
1861,1989,1912
1836,2015,1869
1784,1808,1764
1809,1819,1795
1851,1872,1884
1817,1991,1882
1762,1791,1742
1794,1786,1824
1832,1895,1936
1815,1872,1852
1789,1819,1777
1841,1995,1849
1853,2027,1951
1775,1858,1872
1757,1750,1726
1791,1807,1804
1861,1973,2003
1841,2055,1902
1775,1797,1767
1794,1763,1856
1833,1925,1910
1811,1904,1865
1806,1858,1773
1837,1967,1811
1840,1934,1916
1810,1859,1841
1783,1825,1779
1827,1874,1856
1876,2014,1952
1827,2000,1889
1775,1841,1753
1806,1808,1813
1856,1902,1921
1825,1904,1855
1799,1913,1802
1808,1776,1807
1840,1954,1884
1814,1934,1856
1829,1941,1827
1808,1808,1760
1831,1798,1891
1808,1855,1872
1793,1872,1776
1840,1871,1859
1858,1975,1920
1796,1855,1766
1762,1776,1760
1827,1845,1735
1873,2020,1842
1829,1905,1894
1799,1791,1717
1826,1947,1841
1829,1916,1872
1795,1818,1842
1791,1905,1788
1840,1872,1814
1873,1904,1891
1805,1946,1872
1770,1787,1792
1822,1837,1808
1862,1903,1909
1841,1915,1872
1801,1854,1758
1808,1830,1793
1849,1947,1936
1790,1900,1861
1775,1779,1765
1841,1921,1840
1856,1916,1925
1821,1843,1872
1804,1829,1776
1827,1907,1827
1856,1921,1925
1825,1887,1873
1813,1834,1794
1851,1765,1814
1862,1903,1925
1825,1921,1903
1782,1878,1763
1827,1911,1840
1856,1945,1921
1851,1923,1874
1791,1835,1776
1813,1882,1819
1811,1915,1920
1778,1936,1874
1782,1806,1787
1834,1923,1862
1825,1892,1905
1789,1809,1839
1782,1877,1785
1870,1873,1860
1886,1967,1920
1791,1903,1851
1759,1819,1757
1859,1855,1817
1840,1904,1918
1768,1863,1873
1798,1799,1799
1811,1872,1811
1819,1921,1909
1802,1938,1871
1795,1863,1782
1814,1982,1841
1864,1983,1933
1808,1843,1849
1778,1743,1744
1814,1840,1793
1856,1914,1904
1803,1828,1903
1819,1895,1795
1858,1923,1840
1869,1935,1931
1779,1890,1819
1762,1794,1744
1822,1888,1856
1869,1919,1929
1819,1925,1891
1819,1727,1769
1852,1766,1808
1849,1920,1930
1809,1927,1871
1797,1865,1774
1834,1746,1840
1843,1957,1935
1795,1985,1883
1798,1805,1739
1845,1805,1798
1875,2002,1918
1832,1901,1871
1781,1801,1744
1810,1840,1833
1856,1878,1955
1840,1979,1905
1823,1827,1769
1819,1761,1758
1831,1808,1903
1855,1866,1883
1814,1838,1803
1893,1936,1867
1853,1924,1920
1829,1792,1855
1802,1794,1771
1815,1918,1824
1875,1927,1985
1824,1850,1854
1747,1717,1749
1883,1917,1839
1856,1968,1931
1823,1863,1856
1793,1777,1777
1830,1904,1825
1871,1869,1919
1824,1860,1872
1828,1808,1770
1850,1748,1810
1850,2111,1953
1834,1899,1883
1790,1706,1749
1819,1707,1781
1866,1821,1943
1849,1936,1871
1791,1895,1749
1802,1887,1789
1860,1910,1937
1840,1788,1881
1773,1791,1763
1852,1887,1810
1863,1945,1923
1850,1813,1870
1818,1797,1776
1876,1904,1834
1825,1911,1913
1822,1791,1872
1780,1723,1806
1820,1794,1789
1907,1974,1903
1922,1885,1874
1808,1761,1792
1873,1838,1841
1883,2058,1925
1843,1904,1843
1763,1651,1770
1793,1735,1823
1866,1919,1932
1840,1935,1887
1814,1842,1783
1822,1810,1783
1853,2014,1904
1840,1840,1881
1802,1735,1781
1871,2006,1813
1940,1888,1935
1830,1664,1835
1813,1618,1713
1787,1761,1776
1883,1886,1914
1807,1889,1905
1810,1833,1794
1909,1826,1807
1936,1851,1956
1862,1915,1893
1744,1888,1761
1795,1910,1801
1845,1874,1918
1836,1927,1889
1797,1825,1781
1841,1809,1795
1879,1837,1887
1835,1816,1845
1823,1783,1774
1841,1889,1808
1847,2011,1926
1791,1801,1867
1741,1739,1761
1803,1872,1834
1904,1974,1919
1790,1862,1840
1759,1707,1700
1840,1795,1807
1877,1920,1945
1844,1905,1904
1808,1840,1792
1854,1971,1869
1855,1885,1919
1831,1867,1840
1776,1737,1728
1872,1794,1812
1862,1921,1961
1856,1970,1914
1795,1929,1779
1779,1838,1810
1821,1863,1904
1840,1887,1868
1783,1776,1744
1813,1781,1803
1917,1866,1907
1845,1866,1894
1779,1846,1793
1825,1915,1847
1853,1979,1917
1861,1858,1833
1823,1857,1744
1814,1983,1827
1904,2034,1942
1861,1879,1889
1775,1690,1750
1814,1801,1793
1855,1942,1893
1838,1931,1892
1794,1847,1758
1815,1890,1805
1839,1899,1897
1833,1930,1915
1859,1973,1830
1827,1838,1798
1835,1860,1841
1792,1843,1834
1779,1858,1775
1828,1882,1831
1842,1870,1904
1831,1872,1876
1808,1901,1799
1819,1923,1826
1839,1893,1905
1827,1952,1859
1809,1962,1776
1827,1872,1808
1846,1925,1904
1820,1875,1847
1801,1803,1761
1843,1923,1834
1866,1941,1929
1829,1898,1873
1811,1867,1779
1870,2015,1828
1847,1919,1893
1794,1775,1865
1802,1863,1818
1822,1904,1829
1835,1915,1900
1818,1893,1866
1811,1861,1794
1837,1891,1828
1849,1873,1902
1837,1928,1861
1803,1859,1786
1817,1818,1812
1847,1943,1907
1823,1939,1872
1808,1886,1776
1823,1884,1803
1850,1872,1907
1856,1867,1856
1826,1852,1776
1818,1968,1865
1822,1981,1943
1820,1985,1887
1785,1779,1757
1823,1783,1808
1858,1945,1918
1837,2003,1887
1810,1888,1778
1825,1846,1817
1842,1851,1913
1822,1957,1872
1805,1885,1776
1830,1942,1826
1855,1774,1904
1820,1867,1863
1811,1879,1791
1837,1837,1794
1883,1953,1936
1854,1999,1908
1813,1879,1803
1792,1767,1795
1824,1878,1923
1815,1926,1869
1811,1891,1782
1856,1826,1839
1879,2021,1962
1840,1967,1897
1786,1808,1753
1799,1760,1779
1837,1901,1890
1827,1983,1891
1831,1939,1834
1839,1759,1825
1861,1856,1909
1828,1877,1851
1799,1840,1749
1824,1847,1799
1858,1898,1919
1828,1843,1872
1803,1822,1774
1853,1899,1827
1857,1935,1916
1840,1951,1889
1813,1961,1798
1837,1867,1801
1840,1795,1872
1815,1812,1843
1808,1808,1758
1850,1901,1818
1872,1982,1929
1839,1853,1872
1808,1776,1744
1839,1923,1800
1862,1918,1914
1824,1858,1872
1811,1884,1795
1825,1791,1776
1840,1805,1866
1828,1831,1872
1806,1772,1771
1840,1872,1807
1881,1930,1907
1835,1905,1871
1808,1847,1786
1840,1867,1809
1856,1909,1919
1824,1863,1885
1813,1945,1799
1831,1815,1824
1849,1808,1922
1817,1758,1859
1804,1776,1765
1824,1805,1803
1840,1919,1904
1814,1939,1851
1824,2047,1807
1845,1872,1833
1839,1728,1886
1807,1772,1858
1782,1793,1749
1831,1802,1796
1858,1838,1922
1840,1888,1854
1795,1789,1738
1850,1893,1807
1862,1955,1917
1757,1853,1858
1749,1759,1776
1798,1840,1807
1840,1913,1904
1846,1984,1935
1814,1889,1808
1818,1808,1783
1842,1799,1887
1826,1840,1879
1797,1855,1773
1830,1776,1806
1853,1845,1895
1815,1872,1900
1807,1927,1793
1815,1860,1806
1835,1890,1901
1815,1834,1858
1801,1673,1790
1840,1884,1840
1838,1911,1893
1824,1895,1846
1792,1831,1755
1830,1889,1845
1855,1906,1938
1816,1889,1870
1791,1897,1774
1841,1984,1855
1855,1872,1945
1821,1839,1890
1785,1783,1728
1803,1763,1770
1843,1850,1920
1824,2035,1879
1795,1822,1771
1813,1759,1791
1834,1862,1919
1869,1924,1865
1837,1810,1783
1805,1853,1841
1829,1923,1951
1823,1911,1879
1777,1738,1739
1808,1808,1799
1850,1859,1919
1827,1917,1895
1817,1968,1794
1826,1872,1805
1840,1797,1872
1815,1873,1872
1805,1858,1789
1808,1814,1806
1840,1872,1915
1827,1765,1883
1797,1830,1754
1826,1989,1807
1863,1877,1891
1808,1834,1875
1777,1827,1803
1831,1824,1801
1859,1856,1909
1793,1885,1872
1776,1815,1785
1824,1965,1850
1846,1968,1934
1819,1888,1853
1776,1783,1744
1802,1702,1774
1831,1778,1872
1817,1872,1865
1805,1963,1798
1831,1858,1820
1840,1871,1893
1817,1872,1856
1813,1844,1806
1845,1803,1844
1834,1803,1882
1803,1808,1815
1791,1764,1769
1855,1770,1853
1902,1901,1925
1821,1933,1904
1751,1819,1746
1791,1791,1776
1853,1904,1920
1841,1918,1899
1803,1826,1779
1842,1903,1846
1855,1855,1952
1797,1770,1835
1776,1712,1734
1825,1855,1813
1861,2021,1945
1815,1865,1868
1772,1727,1730
1820,1786,1790
1867,1942,1923
1855,1889,1909
1813,1769,1768
1827,1814,1793
1863,1918,1936
1838,1865,1867
1794,1787,1743
1828,1840,1817
1871,1968,1943
1831,1855,1856
1818,1786,1799
1838,1945,1822
1841,1881,1878
1808,1710,1865
1792,1769,1788
1821,1783,1808
1852,1910,1905
1829,1840,1888
1822,1902,1802
1861,1889,1841
1872,1999,1910
1827,1852,1871
1776,1681,1733
1810,1763,1808
1855,1909,1911
1851,1882,1890
1819,1855,1781
1855,1872,1812
1882,2083,1954
1809,1875,1869
1773,1685,1728
1826,1775,1809
1857,1918,1911
1839,1966,1879
1809,1763,1788
1827,1791,1810
1857,1928,1898
1839,1943,1901
1835,1866,1791
1828,1856,1789
1848,1877,1905
1837,1856,1899
1815,1818,1757
1822,1793,1786
1833,1859,1904
1826,1847,1895
1809,1886,1787
1850,1968,1827
1866,1973,1935
1840,1898,1851
1809,1737,1776
1817,1758,1791
1846,1871,1902
1851,1878,1897
1823,1791,1797
1849,1891,1842
1887,2039,1940
1830,1875,1854
1791,1714,1712
1827,1796,1797
1870,1904,1935
1839,1867,1890
1813,1840,1767
1842,1872,1807
1869,1877,1921
1840,1890,1876
1826,1808,1792
1856,1902,1833
1872,1857,1917
1843,1927,1883
1813,1817,1776
1845,1776,1819
1871,1843,1915
1841,1867,1875
1829,1798,1779
1863,1866,1841
1904,1971,1967
1854,2015,1894
1808,1818,1758
1831,1708,1788
1861,1856,1904
1845,1896,1876
1825,1815,1792
1868,1881,1839
1902,1917,1935
1863,1876,1882
1840,1842,1794
1860,1865,1824
1887,1904,1931
1878,1882,1883
1844,1826,1791
1869,1858,1843
1897,1917,1934
1858,1872,1882
1836,1819,1782
1871,1855,1833
1907,1929,1942
1878,1889,1904
1847,1826,1797
1870,1856,1839
1890,1906,1947
1872,1883,1905
1849,1826,1802
1877,1855,1837
1910,1922,1936
1874,1910,1910
1851,1859,1818
1886,1890,1856
1914,1950,1945
1883,1910,1904
1855,1856,1802
1882,1904,1852
1914,1987,1958
1883,1923,1909
1855,1843,1801
1889,1878,1840
1904,1949,1947
1871,1943,1917
1849,1874,1819
1885,1899,1853
1913,1967,1949
1885,1943,1904
1850,1887,1807
1884,1911,1841
1914,1982,1959
1885,1947,1914
1845,1883,1810
1875,1911,1837
1906,1977,1936
1867,1945,1918
1834,1893,1807
1873,1917,1841
1919,1956,1973
1878,1914,1923
1839,1878,1794
1871,1931,1840
1911,2013,1961
1881,1963,1920
1846,1842,1798
1875,1875,1826
1905,1963,1946
1867,1932,1904
1840,1871,1794
1867,1891,1840
1901,1950,1949
1870,1913,1904
1847,1843,1799
1879,1867,1845
1904,1927,1953
1883,1915,1921
1872,1873,1839
1941,1923,1903
1997,1999,2034
1894,1904,1919
1776,1781,1734
1811,1819,1791
1919,1935,1967
1962,1957,1983
1862,1826,1815
1789,1770,1753
1830,1840,1883
1833,1813,1887
1812,1766,1792
1840,1790,1825
1872,1845,1930
1844,1823,1887
1813,1747,1776
1846,1760,1814
1872,1815,1927
1844,1794,1881
1831,1733,1791
1862,1740,1839
1879,1806,1936
1842,1751,1888
1814,1696,1798
1891,1771,1878
1909,1807,1966
1833,1721,1862
1783,1657,1745
1835,1701,1814
1869,1755,1910
1834,1730,1869
1811,1653,1791
1855,1694,1853
1870,1775,1953
1835,1730,1887
1807,1661,1793
1843,1693,1849
1869,1730,1945
1825,1693,1893
1808,1644,1785
1845,1694,1844
1870,1762,1953
1830,1727,1909
1785,1608,1799
1824,1642,1830
1845,1711,1923
1827,1693,1890
1814,1637,1803
1835,1666,1846
1849,1718,1930
1839,1731,1904
1808,1641,1795
1840,1633,1829
1855,1693,1921
1817,1674,1886
1793,1627,1783
1827,1672,1828
1852,1728,1925
1821,1687,1872
1809,1630,1777
1843,1673,1825
1843,1723,1908
1809,1692,1865
1797,1646,1778
1829,1677,1823
1843,1726,1919
1808,1686,1871
1789,1639,1775
1826,1680,1828
1843,1740,1919
1813,1709,1870
1795,1637,1765
1827,1678,1808
1847,1744,1914
1823,1721,1883
1801,1659,1779
1826,1680,1810
1840,1734,1907
1808,1699,1856
1783,1647,1756
1832,1703,1814
1858,1749,1936
1811,1721,1898
1781,1663,1774
1808,1707,1802
1841,1795,1894
1808,1715,1858
1802,1630,1780
1833,1643,1833
1858,1751,1917
1824,1842,1872
1875,2047,1805
1805,1513,1767
1856,1415,1945
1782,1728,1911
1887,1946,1839
1999,1744,1630
1712,1517,1832
1637,1680,1924
1735,1712,1938
1805,1859,1839
1803,1615,1841
1765,1477,1815
1775,1489,1741
1805,1696,1812
1872,1929,1994
1927,2253,2023
1872,1682,1721
1691,1280,1725
1712,1418,1889
1744,1634,1822
1822,1824,1809
1885,1748,1842
1819,1620,1905
1793,1507,1799
1840,1460,1695
2103,2288,1917
2279,1839,1885
1738,1411,1805
1657,1584,1876
1923,1607,1967
1966,1588,1871
2180,1721,1644
1745,1619,1783
1603,1758,1973
1651,1936,1909
1701,1731,1744
1684,1329,1612
1714,1343,1675
1761,1557,1798
1744,1649,1751
1702,1650,1701
1722,1730,1776
1722,1723,1794
1712,1527,1675
1671,1533,1631
1707,1652,1722
1693,1535,1806
1655,1506,1745
1683,1552,1616
1697,1632,1693
1742,1712,1793
1650,1579,1664
1556,1554,1679
1601,1698,1776
1584,1630,1680
1595,1593,1721
1601,1589,1745
1597,1657,1753
1571,1714,1808
1498,1515,1680
1490,1472,1630
1582,1764,1770
1581,1744,1835
1519,1616,1743
1532,1613,1624
1570,1521,1704
1568,1630,1715
1498,1620,1691
1517,1588,1622
1535,1664,1680
1630,1874,1851
1602,1795,1774
1477,1457,1682
1481,1502,1694
1566,1703,1794
1553,1671,1774
1535,1603,1669
1554,1685,1636
1535,1682,1789
1535,1808,1818
1520,1817,1623
1589,1686,1745
1633,1558,1851
