1815,1936,1819
1811,1987,1890
1799,1956,1855
1794,1909,1783
1809,1936,1821
1810,1971,1903
1791,1940,1855
1787,1903,1770
1808,1927,1807
1808,1968,1889
1797,1942,1855
1797,1902,1779
1812,1930,1821
1818,1971,1899
1797,1952,1849
1782,1904,1759
1811,1945,1818
1826,1994,1905
1804,1936,1850
1803,1899,1777
1825,1942,1829
1834,1968,1904
1792,1920,1843
1778,1903,1744
1806,1916,1815
1827,1949,1920
1803,1932,1863
1790,1901,1772
1812,1934,1808
1834,1969,1898
1808,1925,1859
1801,1913,1782
1814,1937,1823
1824,1965,1902
1794,1937,1853
1791,1915,1776
1813,1929,1811
1823,1965,1892
1799,1962,1841
1792,1929,1776
1813,1897,1821
1827,1936,1901
1808,1921,1859
1792,1903,1776
1815,1931,1808
1834,1967,1901
1817,1956,1861
1807,1906,1787
1820,1927,1824
1822,1952,1898
1790,1933,1839
1793,1894,1759
1825,1922,1822
1834,1967,1906
1802,1942,1863
1803,1904,1779
1825,1936,1818
1827,1974,1890
1808,1930,1853
1807,1898,1774
1825,1938,1814
1821,1978,1895
1805,1954,1855
1802,1910,1776
1825,1935,1818
1838,1967,1888
1808,1945,1851
1800,1907,1767
1822,1931,1815
1834,1967,1899
1802,1904,1862
1799,1879,1785
1818,1938,1822
1830,1966,1904
1799,1919,1859
1789,1899,1763
1812,1923,1808
1825,1978,1902
1797,1939,1863
1792,1886,1771
1808,1909,1793
1826,1959,1893
1811,1931,1865
1803,1918,1773
1822,1921,1815
1824,1933,1901
1806,1902,1845
1789,1887,1761
1815,1954,1815
1827,1957,1894
1811,1907,1853
1806,1867,1767
1823,1904,1806
1811,1947,1878
1805,1914,1850
1805,1872,1776
1823,1899,1823
1833,1947,1897
1796,1925,1854
1795,1878,1766
1821,1903,1815
1830,1945,1893
1804,1931,1840
1790,1853,1751
1811,1882,1795
1837,1934,1903
1815,1910,1856
1797,1883,1775
1822,1891,1817
1830,1926,1902
1807,1888,1850
1798,1851,1774
1831,1904,1811
1825,1929,1889
1803,1904,1855
1789,1868,1776
1808,1898,1819
1815,1904,1889
1794,1868,1843
1803,1846,1783
1840,1882,1822
1828,1910,1894
1792,1883,1843
1800,1855,1787
1829,1877,1831
1837,1919,1898
1806,1888,1845
1800,1840,1767
1815,1867,1815
1819,1930,1891
1796,1913,1852
1795,1841,1765
1826,1838,1807
1824,1883,1892
1795,1857,1843
1799,1827,1770
1840,1866,1817
1836,1910,1866
1809,1863,1848
1799,1815,1760
1818,1855,1808
1815,1890,1863
1799,1869,1797
1803,1835,1802
1826,1849,1778
1830,1875,1901
1797,1857,1821
1789,1830,1789
1821,1845,1841
1834,1885,1909
1819,1861,1858
1808,1828,1793
1831,1859,1815
1829,1887,1908
1805,1854,1829
1798,1834,1757
1830,1860,1803
1836,1901,1889
1797,1838,1827
1797,1796,1766
1823,1840,1806
1825,1899,1885
1809,1854,1840
1810,1823,1779
1834,1839,1807
1839,1869,1930
1809,1842,1841
1801,1811,1747
1828,1839,1776
1838,1870,1883
1807,1850,1843
1803,1813,1793
1835,1840,1788
1840,1857,1893
1805,1838,1887
1802,1814,1771
1839,1847,1816
1842,1886,1904
1811,1830,1861
1808,1793,1759
1830,1825,1791
1843,1871,1897
1822,1818,1857
1808,1766,1795
1829,1821,1840
1837,1873,1872
1823,1840,1887
1824,1808,1776
1852,1847,1823
1837,1857,1899
1809,1824,1856
1805,1792,1746
1839,1824,1789
1849,1865,1934
1821,1840,1855
1811,1796,1775
1840,1814,1808
1851,1853,1904
1821,1821,1870
1811,1808,1769
1840,1818,1836
1839,1840,1883
1823,1834,1847
1827,1794,1799
1835,1819,1808
1845,1861,1907
1819,1812,1872
1818,1778,1807
1841,1825,1834
1828,1863,1902
1808,1827,1846
1813,1779,1781
1839,1802,1836
1840,1845,1904
1810,1825,1859
1810,1789,1787
1839,1805,1823
1840,1840,1892
1811,1814,1859
1807,1776,1777
1833,1804,1792
1844,1852,1914
1813,1807,1815
1815,1776,1743
1837,1807,1816
1845,1851,1872
1822,1835,1856
1819,1801,1864
1842,1819,1822
1840,1838,1926
1814,1823,1907
1808,1807,1776
1847,1803,1833
1851,1834,1906
1819,1808,1857
1813,1777,1787
1842,1814,1871
1847,1867,1929
1823,1813,1861
1815,1779,1785
1840,1818,1827
1850,1858,1905
1823,1830,1852
1819,1802,1794
1856,1835,1783
1858,1879,1923
1830,1850,1846
1825,1789,1806
1849,1813,1825
1851,1866,1935
1826,1840,1881
1823,1799,1807
1856,1829,1853
1859,1860,1902
1826,1841,1847
1819,1810,1807
1847,1835,1866
1856,1877,1900
1831,1847,1840
1822,1808,1779
1844,1834,1791
1854,1873,1899
1825,1844,1910
1813,1805,1776
1839,1817,1827
1849,1840,1904
1821,1823,1853
1808,1795,1776
1845,1841,1850
1857,1877,1904
1835,1842,1865
1813,1783,1750
1833,1805,1822
1839,1851,1888
1820,1833,1861
1819,1823,1780
1840,1846,1854
1842,1871,1915
1810,1841,1853
1818,1804,1785
1849,1842,1843
1845,1879,1905
1811,1847,1921
1808,1809,1758
1839,1841,1828
1840,1887,1903
1807,1850,1846
1811,1808,1831
1840,1852,1871
1840,1884,1986
1821,1856,1855
1815,1820,1783
1843,1846,1729
1847,1885,1904
1821,1852,1905
1809,1818,1825
1842,1872,1854
1859,1899,1904
1835,1839,1868
1824,1799,1782
1852,1838,1822
1855,1887,1934
1827,1856,1863
1815,1819,1777
1847,1850,1825
1860,1889,1913
1840,1858,1872
1815,1823,1787
1846,1856,1830
1856,1894,1919
1835,1845,1817
1834,1815,1795
1859,1856,1840
1861,1899,1904
1825,1854,1859
1822,1801,1778
1850,1840,1839
1866,1876,1925
1840,1846,1881
1829,1829,1797
1841,1854,1838
1849,1892,1914
1832,1863,1859
1827,1817,1786
1854,1821,1826
1857,1881,1895
1832,1863,1863
1825,1826,1800
1854,1851,1842
1866,1890,1911
1846,1867,1863
1845,1830,1789
1797,1846,1840
1872,1870,1905
1813,1858,1858
1839,1826,1776
1884,1857,1823
1896,1899,1913
1808,1869,1863
1831,1831,1786
1850,1872,1830
1845,1903,1909
1805,1855,1856
1796,1821,1783
1883,1861,1834
1840,1899,1911
1827,1868,1859
1863,1829,1790
1885,1855,1841
1847,1879,1913
1857,1847,1855
1818,1815,1771
1857,1855,1833
1850,1885,1911
1831,1859,1849
1827,1841,1782
1841,1867,1831
1904,1891,1905
1855,1855,1854
1840,1812,1763
1861,1831,1821
1846,1877,1917
1842,1840,1870
1824,1806,1776
1883,1841,1823
1861,1889,1904
1849,1861,1859
1840,1808,1773
1861,1832,1819
1857,1877,1906
1840,1845,1867
1773,1808,1783
1850,1862,1825
1862,1898,1904
1839,1854,1845
1813,1808,1774
1862,1843,1829
1859,1886,1911
1822,1863,1847
1827,1822,1779
1862,1838,1838
1873,1882,1910
1833,1863,1863
1826,1810,1781
1840,1839,1830
1878,1870,1904
1915,1827,1854
1893,1807,1776
1920,1850,1830
1943,1872,1904
1904,1840,1859
1953,1802,1788
1972,1839,1824
2038,1871,1904
2007,1841,1855
1986,1813,1773
2005,1856,1826
1987,1899,1909
1988,1840,1866
1989,1792,1780
2053,1835,1823
2019,1873,1903
2034,1850,1857
2000,1810,1778
1991,1819,1826
2055,1863,1917
2055,1834,1863
2029,1793,1782
2065,1843,1833
2070,1871,1903
2047,1828,1855
2035,1789,1766
2069,1823,1813
2077,1862,1907
2071,1837,1868
2064,1797,1784
2096,1840,1806
2126,1874,1920
2107,1808,1879
2082,1782,1782
2045,1821,1813
2085,1841,1903
2077,1833,1858
2081,1789,1776
2087,1823,1826
2192,1869,1898
2047,1825,1842
2047,1804,1771
2108,1851,1827
2109,1892,1910
2078,1852,1851
2061,1808,1773
2081,1806,1811
2082,1835,1882
2054,1811,1846
2045,1793,1766
2079,1840,1830
2094,1872,1904
2047,1839,1852
2032,1777,1765
2085,1840,1802
2042,1872,1891
2003,1823,1850
1984,1770,1779
2035,1793,1822
2094,1879,1893
2026,1823,1841
2054,1770,1777
2069,1818,1831
2064,1861,1904
2081,1828,1861
2000,1792,1778
2100,1827,1822
2071,1872,1893
2001,1823,1840
2003,1802,1776
2085,1835,1835
2033,1840,1904
2036,1807,1843
1907,1778,1781
2020,1808,1823
2064,1887,1915
2015,1854,1856
1999,1796,1771
1993,1840,1826
2084,1895,1910
2062,1845,1846
1968,1759,1761
2018,1823,1825
2026,1859,1917
1968,1807,1857
1963,1761,1782
1999,1822,1835
2002,1891,1899
1904,1824,1838
2009,1780,1769
2000,1841,1824
1990,1901,1900
2000,1835,1848
1946,1806,1767
1969,1840,1835
2000,1851,1906
1968,1819,1843
1968,1788,1756
1989,1830,1821
1986,1869,1901
1939,1817,1847
1823,1824,1776
1883,1865,1823
2032,1879,1910
1909,1843,1849
1900,1790,1759
1979,1831,1805
1981,1893,1897
1941,1826,1854
1934,1765,1781
1959,1843,1835
1950,1886,1913
1919,1865,1860
1917,1822,1779
1936,1847,1830
1939,1876,1904
1907,1833,1845
1902,1813,1770
1933,1855,1819
1945,1904,1905
1917,1840,1866
1902,1796,1767
1931,1855,1810
1931,1893,1904
1906,1847,1850
1899,1801,1770
1919,1854,1810
1924,1893,1913
1901,1879,1866
1888,1810,1776
1906,1835,1821
1918,1901,1905
1885,1861,1856
1878,1831,1779
1915,1865,1831
1909,1872,1904
1872,1865,1857
1872,1825,1779
1901,1841,1819
1904,1895,1890
1873,1889,1841
1857,1830,1777
1882,1849,1831
1890,1885,1904
1853,1865,1842
1848,1826,1773
1887,1856,1839
1893,1925,1913
1859,1856,1855
1854,1817,1766
1882,1857,1825
1885,1883,1906
1849,1872,1861
1845,1847,1781
1869,1889,1834
1871,1888,1904
1840,1801,1851
1840,1808,1774
1869,1876,1838
1875,1902,1917
1843,1850,1845
1838,1823,1781
1861,1855,1846
1863,1891,1920
1838,1866,1859
1836,1811,1776
1847,1867,1836
1852,1933,1910
1839,1897,1866
1829,1791,1777
1858,1867,1829
1859,1888,1909
1831,1855,1856
1818,1839,1787
1843,1871,1838
1847,1898,1907
1808,1863,1851
1805,1821,1773
1834,1839,1825
1856,1917,1909
1825,1899,1861
1808,1828,1778
1835,1846,1825
1833,1880,1897
1808,1872,1850
1805,1840,1776
1839,1847,1826
1840,1871,1897
1808,1853,1850
1807,1831,1777
1834,1863,1826
1840,1903,1911
1802,1877,1852
1791,1807,1771
1821,1825,1804
1839,1868,1894
1817,1851,1863
1807,1815,1779
1833,1840,1830
1834,1895,1907
1794,1858,1846
1790,1811,1757
1818,1874,1818
1821,1918,1902
1789,1810,1834
1781,1763,1755
1811,1854,1826
1818,1898,1903
1787,1849,1840
1790,1814,1757
1813,1855,1813
1818,1879,1900
1787,1851,1856
1788,1828,1773
1810,1873,1819
1811,1904,1903
1791,1903,1854
1783,1817,1776
1811,1797,1813
1822,1855,1889
1783,1840,1840
1775,1818,1762
1812,1856,1822
1823,1883,1905
1787,1825,1843
1776,1805,1773
1811,1858,1808
1826,1902,1898
1785,1849,1845
1777,1808,1751
1802,1849,1798
1815,1907,1895
1783,1855,1862
1789,1856,1776
1806,1840,1819
1808,1857,1888
1774,1850,1837
1759,1826,1760
1808,1879,1824
1817,1902,1904
1779,1845,1841
1756,1811,1754
1791,1856,1794
1808,1883,1901
1775,1824,1851
1762,1798,1782
1809,1917,1845
1818,1920,1905
1776,1806,1839
1770,1760,1748
1802,1839,1810
1822,1910,1891
1789,1835,1865
1776,1791,1789
1791,1862,1825
1821,1931,1923
1808,1900,1865
1805,1802,1781
1806,1883,1795
1807,1963,1891
1792,1825,1847
1789,1767,1776
1803,1795,1821
1810,1821,1885
1814,1923,1867
1805,1936,1792
1792,1735,1783
1783,1765,1856
1776,1835,1824
1805,1830,1787
1839,1753,1834
1858,1872,1969
1806,1875,1874
1776,1794,1740
1808,1849,1781
1845,1888,1914
1808,1821,1873
1770,1623,1759
1811,1831,1810
1845,1999,1911
1779,1775,1821
1764,1730,1751
1827,1763,1856
1841,1815,1917
1791,1826,1836
1822,1840,1806
1855,1962,1828
1823,1883,1837
1779,1797,1824
1799,1662,1727
1841,1781,1817
1836,1779,1895
1798,1840,1872
1855,2085,1808
1851,1810,1805
1779,1749,1905
1855,1806,1815
1196,1766,1734
1997,1773,1840
2091,1903,1932
1909,1933,1929
1808,1728,1792
1809,1715,1793
1827,1835,1905
1831,1682,1840
1840,1808,1729
1837,1884,1789
1829,1833,1840
1835,1861,1818
1831,1680,1750
1834,1603,1747
1833,1739,1859
1834,1797,1841
1831,1812,1683
1835,1799,1728
1828,1771,1799
1830,1755,1753
1839,1779,1663
1836,1732,1664
1834,1712,1728
1833,1709,1809
1836,1697,1715
1834,1855,1714
1831,1870,1789
1833,1904,1730
1825,1760,1627
1842,1777,1732
1886,1836,1802
1840,1729,1671
1850,1630,1664
1887,1872,1726
1926,2015,1765
1791,1790,1688
1754,1744,1619
1807,1943,1724
1826,1837,1783
1805,1688,1714
1794,1755,1616
1836,1927,1709
1842,1995,1783
1767,1844,1676
1738,1771,1598
1791,1872,1669
1819,2023,1759
1801,1931,1683
1732,1783,1566
1718,1895,1693
1806,2099,1851
1741,1999,1717
1695,1678,1581
1723,1739,1648
1748,2019,1761
1734,1981,1712
1723,1968,1618
1726,1813,1648
1738,2014,1744
1701,1946,1666
1696,1965,1641
1759,1963,1655
1756,1999,1735
1634,1916,1680
1621,1833,1662
1698,1987,1712
1749,2046,1782
1711,2096,1745
1631,1910,1632
1648,2040,1681
1637,2016,1712
1600,1923,1691
1535,1939,1614
1553,1970,1639
1559,2005,1779
1494,1925,1731
1471,2013,1661
1466,2022,1702
1482,2274,1795
1427,2122,1744
1392,1854,1616
1424,1850,1696
1443,2012,1793
1408,1998,1770
1391,1941,1678
1397,1972,1685
1404,2047,1744
1364,2027,1742
1346,1934,1670
1403,1938,1729
1419,1936,1815
1376,2059,1773
1346,2022,1662
1392,2002,1708
1426,2124,1808
1402,1944,1778
1376,1921,1763
1389,1920,1725
1408,2009,1802
1397,2043,1777
1389,1918,1691
1405,1936,1717
1434,2056,1840
1395,1989,1813
1381,1927,1727
1406,2055,1764
1431,2110,1808
1408,2029,1757
1434,1937,1733
1468,1936,1813
1450,2007,1840
1392,1988,1761
1409,1975,1744
1471,1979,1819
1495,2099,1866
1473,1995,1826
1456,1971,1775
1498,2032,1798
1497,2031,1878
1472,1968,1795
1449,1866,1675
1488,2013,1765
1520,2064,1878
1488,1934,1847
1454,2005,1735
1504,1951,1808
1535,2060,1897
1517,1939,1819
1515,1895,1776
1518,1957,1788
1534,1958,1861
1522,1922,1832
1518,1924,1755
1531,1919,1807
1571,1999,1928
1565,2034,1923
1532,1904,1759
1563,1947,1779
1569,1959,1861
1535,1895,1858
1584,1958,1817
1613,1973,1853
1623,1930,1934
1587,2029,1885
1535,1919,1752
1575,1883,1782
1625,2038,1936
1631,2053,1933
1594,1949,1776
1584,1923,1750
1616,1962,1895
1617,1949,1913
1601,1953,1826
1618,1987,1849
1649,2100,1937
1646,2084,1903
1620,2001,1797
1617,1927,1819
1648,1968,1945
1648,2001,1893
1616,1987,1786
1648,2071,1830
1665,2053,1904
1662,1987,1906
1663,1977,1851
1691,2033,1904
1702,2103,2000
1646,1974,1823
1621,1904,1734
1670,1981,1850
1705,2031,1943
1707,2000,1918
1678,1945,1807
1692,1889,1829
1743,2080,1959
1727,2007,1893
1759,1936,1823
1755,1936,1881
1676,2029,1936
1649,1974,1923
1648,1850,1824
1746,2011,1909
1759,2104,2006
1711,1888,1940
1677,1884,1808
1699,1856,1835
1715,2002,1939
1730,1932,1907
1729,1823,1847
1765,1915,1904
1763,1967,1986
1723,1936,1865
1702,1921,1815
1762,1906,1885
1782,1942,1984
1744,1917,1928
1719,1901,1827
1766,1975,1915
1776,1920,1984
1754,1904,1919
1737,1923,1808
1750,1969,1845
1792,2037,1965
1766,2003,1895
1766,1884,1834
1776,1826,1847
1792,1886,1950
1749,1883,1862
1731,1796,1797
1785,1837,1903
1827,1995,2016
1789,2007,1936
1757,1909,1837
1789,1838,1859
1797,1908,1946
1773,1907,1898
1790,1815,1851
1841,1998,1872
1818,2002,1934
1758,1865,1936
1757,1805,1840
1811,1870,1904
1840,2128,1990
1793,1959,1893
1773,1751,1815
1816,1886,1892
1857,2026,2014
1794,1968,1895
1769,1797,1747
1840,1885,1888
1862,1889,2014
1831,1926,1928
1791,1890,1797
1842,1934,1875
1855,1887,1965
1866,2055,1959
1792,1904,1792
1805,1765,1840
1839,1837,1953
1821,1873,1915
1829,1877,1860
1875,1897,1902
1882,1940,1959
1834,1904,1905
1795,1886,1841
1829,1961,1875
1872,2030,1971
1841,1889,1923
1838,1859,1840
1867,1895,1880
1869,1930,1938
1845,1873,1888
1888,1866,1840
1888,1838,1875
1857,1993,1955
1839,1845,1924
1840,1776,1815
1856,1933,1865
1875,1973,2003
1853,1899,1923
1826,1808,1792
1863,1836,1861
1892,1919,1994
1859,1871,1906
1853,1841,1811
1878,1934,1869
1890,1909,1982
1865,1934,1938
1853,1915,1838
1890,1840,1874
1914,1925,1972
1873,1885,1918
1862,1813,1835
1877,1808,1855
1889,1936,1940
1867,1897,1913
1872,1808,1840
1905,1887,1850
1914,2062,1935
1872,1920,1919
1828,1700,1802
1875,1808,1842
1927,1942,1969
1889,1873,1963
1850,1837,1776
1902,1920,1895
1921,2013,1983
1874,1887,1879
1869,1795,1857
1882,1924,1804
1894,1901,1966
1882,1847,1924
1879,1943,1820
1905,1838,1861
1911,1899,1968
1877,1922,1877
1876,1893,1829
1921,1971,1872
1920,2031,1950
1886,1833,1875
1855,1771,1771
1898,1879,1839
1926,2054,1972
1923,2070,1952
1872,1810,1776
1909,1889,1838
1936,1906,2001
1903,2015,1888
1888,1877,1777
1927,1878,1855
1954,2023,1946
1893,1969,1879
1899,1877,1766
1935,2032,1842
1946,2003,2012
1919,2024,1936
1898,1856,1818
1905,1822,1835
1917,1929,1907
1918,1953,1910
1930,1968,1841
1937,2064,1866
1942,2044,1907
1901,1932,1847
1859,1872,1790
1915,1911,1861
1978,1994,1994
1933,1941,1903
1887,1889,1806
1901,1989,1840
1920,2031,1959
1906,1925,1885
1917,1793,1822
1959,2038,1917
1970,2128,1984
1906,1952,1872
1873,1856,1755
1926,1905,1843
1968,2027,1967
1897,1927,1860
1857,1852,1770
1923,1984,1824
1957,1941,1941
1920,1899,1860
1915,1884,1815
1935,1999,1882
1921,1936,1875
1895,1896,1866
1907,1865,1795
1918,1959,1778
1986,2112,1920
1889,1841,1879
1868,1777,1808
1915,1996,1889
1948,2005,1984
1883,1873,1875
1874,1872,1778
1909,1915,1834
1947,2070,1968
1919,1891,1904
1888,1839,1777
1923,1856,1837
1941,2047,1954
1893,1906,1861
1889,1787,1763
1923,1856,1822
1918,1937,1926
1877,1936,1839
1899,1931,1841
1937,1963,1904
1947,1811,1840
1904,1923,1785
1855,1851,1799
1872,1768,1797
1922,1927,1950
1921,1996,1970
1898,1809,1777
1925,1875,1816
1929,1887,1934
1890,1910,1930
1904,1817,1776
1925,1771,1802
1897,1889,1946
1879,1850,1902
1909,1877,1830
1913,1895,1842
1906,1895,1913
1903,1924,1858
1874,1813,1759
1872,1776,1792
1918,1862,1941
1893,1840,1856
1875,1791,1759
1909,1872,1729
1914,1894,1974
1893,1897,1920
1886,1712,1751
1915,1863,1879
1889,1842,1897
1857,1795,1860
1849,1835,1792
1910,1776,1856
1959,1972,1957
1886,1865,1853
1852,1817,1773
1881,1909,1792
1904,1963,1885
1902,1857,1887
1865,1731,1762
1878,1810,1782
1895,1867,1920
1883,1840,1873
1899,1767,1799
1902,1822,1881
1931,1996,1983
1873,1884,1840
1846,1708,1774
1916,1791,1840
1968,1856,1931
1877,1878,1850
1843,1855,1722
1898,1822,1834
1922,1794,1943
1879,1815,1893
1870,1874,1834
1901,1874,1808
1924,1815,1989
1876,1824,1887
1840,1805,1742
1881,1759,1773
1905,1782,1872
1883,1751,1831
1871,1819,1770
1915,1978,1811
1961,1911,1894
1899,1729,1851
1808,1679,1778
1844,1886,1808
1885,1904,1920
1856,1766,1840
1859,1730,1766
1877,1744,1831
1894,1904,1936
1885,1957,1894
1870,1855,1798
1882,1762,1798
1918,1882,1933
1874,1797,1856
1841,1682,1709
1883,1735,1773
1904,1840,1883
1893,1807,1874
1906,1911,1778
1904,1917,1819
1862,1766,1901
1835,1778,1863
1843,1766,1792
1888,1850,1833
1891,1853,1891
1859,1763,1845
1861,1712,1763
1889,1863,1821
1903,1939,1904
1877,1853,1869
1874,1805,1767
1883,1810,1775
1877,1728,1862
1850,1729,1823
1842,1776,1791
1874,1794,1856
1904,1849,1883
1852,1837,1814
1830,1770,1754
1906,1859,1859
1905,1882,1909
1856,1868,1852
1883,1741,1773
1833,1700,1840
1867,1879,1911
1850,1818,1855
1872,1739,1762
1821,1793,1791
1856,1799,1909
1902,1948,1883
1777,1735,1747
1865,1727,1795
1893,1795,1926
1855,1882,1897
1892,1803,1777
1895,1838,1793
1885,1887,1905
1873,1814,1854
1840,1712,1777
1892,1771,1840
1878,1894,1926
1851,1840,1862
1837,1728,1777
1891,1824,1822
1914,1919,1934
1842,1872,1872
1831,1769,1723
1872,1760,1776
1910,1871,1923
1867,1737,1872
1869,1798,1757
1857,1874,1828
1890,1878,1930
1904,1857,1871
1854,1805,1765
1854,1808,1792
1882,1930,1904
1868,1814,1867
1826,1705,1759
1877,1878,1825
1864,1920,1894
1833,1747,1839
1829,1751,1757
1853,1794,1795
1935,1909,1872
1851,1809,1848
1846,1814,1780
1872,1762,1809
1873,1842,1876
1827,1879,1839
1812,1785,1776
1888,1829,1818
1887,1867,1949
1843,1814,1872
1875,1797,1760
1856,1881,1835
1952,1946,1920
1904,1796,1875
1819,1782,1757
1898,1857,1792
1860,1886,1923
1862,1859,1843
1808,1807,1740
1842,1859,1788
1861,1895,1882
1896,1803,1855
1860,1808,1785
1901,1923,1841
1901,1943,1905
1813,1793,1838
1879,1819,1763
1840,1840,1805
1883,1904,1909
1846,1914,1863
1857,1993,1797
1870,1847,1807
1875,1858,1907
1856,1860,1877
1844,1926,1807
1872,1969,1823
1895,1861,1916
1860,1903,1867
1827,1869,1728
1892,1901,1795
1887,2018,1917
1872,1950,1899
1872,1936,1783
1809,1903,1811
1883,2047,1911
1860,1954,1850
1828,1911,1778
1861,1964,1807
1889,1984,1892
1890,2047,1874
1863,1914,1776
1856,1958,1803
1865,2058,1872
1835,2047,1871
1847,1985,1795
1875,1977,1828
1892,2070,1929
1857,2096,1875
1869,2064,1807
1877,1958,1798
1884,2043,1902
1875,2109,1893
1852,1970,1759
1832,1923,1799
1957,2064,1915
1840,2061,1872
1886,2007,1790
1914,1995,1835
1978,2192,1937
1831,2107,1863
1810,1869,1748
1873,1891,1822
1956,2070,1916
1858,2131,1894
1871,2075,1785
1872,1970,1829
1866,1969,1924
1907,1953,1874
1874,1984,1787
1963,2074,1835
1857,2090,1922
1936,1990,1887
1819,1982,1782
1882,1962,1815
1918,2002,1943
1911,1995,1902
1819,2023,1792
1878,1986,1819
1914,1977,1920
1883,2000,1883
1866,2026,1771
1882,1980,1813
1905,1979,1922
1892,2034,1897
1872,1984,1799
1879,1962,1835
1882,2055,1894
1881,2014,1873
1873,1904,1792
1872,2003,1862
1824,2043,1937
1869,1876,1859
1840,1874,1766
1872,1941,1819
1911,2003,1920
1885,2033,1883
1850,2037,1804
1910,2020,1839
1930,2010,1908
1903,1954,1889
1867,1843,1795
1882,1905,1830
1913,1977,1918
1905,1940,1856
1812,1861,1776
1849,2016,1839
1923,2061,1939
1863,2011,1903
1853,1906,1776
1894,1853,1812
1924,1999,1943
1895,1984,1906
1863,1875,1786
1883,1951,1808
1904,1941,1894
1875,1915,1872
1861,1911,1808
1894,1879,1854
1918,2014,1953
1890,2064,1893
1872,1887,1773
1917,1968,1842
1908,1959,1916
1851,1831,1838
1836,1807,1759
1895,1888,1834
1920,1936,1925
1889,1921,1889
1877,1947,1811
1904,1968,1849
1907,1955,1911
1889,1886,1893
1872,1825,1795
1899,1843,1819
1931,2037,1936
1895,1878,1872
1869,1871,1750
1872,1913,1810
1893,1906,1936
1863,1851,1902
1859,1807,1806
1903,1908,1853
1923,2011,1938
1887,1910,1907
1850,1874,1789
1895,1871,1829
1919,1887,1923
1864,1811,1853
1856,1815,1774
1899,1930,1842
1910,1919,1930
1870,1836,1856
1857,1813,1783
1888,1907,1837
1904,1904,1926
1887,1885,1901
1852,1807,1763
1879,1877,1807
1904,1926,1936
1874,1840,1881
1855,1845,1776
1893,1887,1840
1909,1873,1933
1871,1806,1863
1847,1808,1766
1883,1888,1834
1891,1889,1892
1870,1793,1870
1857,1851,1792
1876,1882,1831
1893,1884,1919
1871,1909,1871
1840,1809,1776
1863,1811,1827
1892,1866,1921
1863,1869,1853
1839,1839,1759
1875,1854,1829
1904,1901,1922
1853,1823,1878
1827,1766,1769
1877,1873,1843
1892,1937,1927
1843,1839,1867
1826,1751,1771
1872,1827,1824
1900,1901,1924
1861,1840,1874
1830,1759,1763
1863,1792,1794
1893,1941,1936
1867,1936,1909
1851,1744,1788
1881,1837,1829
1895,1861,1925
1846,1807,1866
1835,1888,1770
1872,1882,1819
1878,1825,1898
1854,1785,1868
1830,1785,1789
1883,1846,1859
1904,1875,1941
1859,1856,1885
1838,1808,1783
1872,1838,1853
1883,1868,1936
1856,1861,1887
1839,1807,1792
1872,1824,1813
1886,1866,1915
1871,1904,1881
1862,1907,1831
1865,1757,1829
1866,1792,1889
1857,1814,1872
1847,1745,1782
1875,1902,1834
1904,1926,1941
1859,1842,1875
1830,1762,1771
1879,1770,1836
1903,1875,1924
1867,1861,1858
1846,1821,1771
1875,1807,1838
1905,1827,1963
1879,1883,1909
1845,1837,1769
1872,1828,1807
1897,1847,1923
1867,1772,1875
1840,1787,1776
1872,1823,1831
1897,1916,1945
1856,1785,1872
1837,1749,1775
1870,1823,1833
1903,1882,1946
1861,1839,1874
1840,1807,1776
1888,1890,1839
1893,1843,1915
1857,1770,1877
1835,1774,1771
1870,1840,1808
1901,1836,1923
1875,1785,1899
1841,1744,1787
1872,1824,1828
1901,1918,1943
1856,1833,1894
1845,1755,1810
1869,1778,1822
1891,1804,1920
1855,1764,1887
1836,1757,1778
1885,1815,1840
1902,1904,1935
1870,1841,1904
1840,1679,1790
1858,1699,1809
1887,1904,1916
1859,1847,1879
1838,1795,1799
1860,1783,1808
1891,1809,1918
1868,1808,1874
1835,1776,1766
1865,1818,1830
1882,1899,1929
1854,1852,1875
1830,1739,1770
1856,1735,1794
1893,1801,1930
1868,1840,1890
1831,1759,1777
1857,1778,1838
1878,1786,1909
1843,1743,1872
1825,1770,1775
1867,1766,1826
1883,1827,1940
1851,1837,1879
1818,1758,1787
1841,1748,1808
1872,1811,1907
1853,1867,1886
1823,1744,1769
1856,1773,1815
1877,1847,1943
1836,1839,1879
1801,1673,1762
1841,1739,1809
1897,1865,1936
1874,1915,1936
1826,1781,1808
1835,1659,1807
1866,1808,1897
1850,1841,1859
1822,1707,1769
1857,1700,1841
1875,1862,1939
1840,1780,1871
1811,1786,1767
1849,1712,1805
1878,1786,1920
1841,1927,1881
1818,1753,1774
1847,1767,1830
1877,1792,1932
1836,1727,1857
1815,1723,1776
1847,1734,1799
1874,1794,1915
1842,1838,1883
1812,1744,1751
1856,1790,1834
1886,1835,1967
1849,1793,1904
1840,1921,1792
1854,1767,1840
1853,1718,1899
1823,1732,1849
1806,1694,1776
1846,1852,1839
1872,1787,1925
1840,1740,1866
1819,1754,1761
1845,1807,1831
1866,1846,1923
1841,1835,1905
1817,1713,1776
1846,1734,1809
1860,1827,1902
1846,1869,1878
1807,1669,1767
1846,1661,1807
1872,1857,1922
1841,1820,1902
1819,1754,1786
1853,1858,1824
1872,1895,1913
1839,1719,1851
1831,1723,1781
1861,1867,1840
1877,1894,1926
1833,1808,1872
1826,1724,1787
1850,1693,1797
1869,1832,1905
1840,1833,1881
1825,1808,1782
1854,1787,1822
1866,1722,1893
1831,1758,1859
1825,1884,1786
1855,1846,1839
1879,1849,1930
1828,1802,1818
1791,1729,1722
1837,1712,1791
1877,1923,1936
1856,1883,1876
1814,1722,1749
1834,1763,1794
1870,1867,1918
1841,1877,1873
1810,1771,1760
1834,1814,1802
1872,1872,1913
1840,1858,1872
1812,1895,1792
1866,1867,1824
1886,1934,1906
1819,1818,1815
1803,1744,1741
1847,1871,1803
1890,2009,1925
1840,1803,1867
1808,1616,1765
1849,1876,1789
1867,1909,1872
1821,1873,1849
1793,1695,1747
1839,1823,1817
1872,1917,1910
1837,1810,1861
1799,1831,1767
1833,1785,1801
1869,1863,1917
