1911,1883,1834
1920,1909,1878
1894,1928,1866
1865,1774,1765
1894,1808,1805
1952,1996,1948
1902,1905,1904
1854,1808,1760
1879,1793,1783
1915,1923,1883
1895,1953,1899
1872,1824,1791
1897,1856,1786
1936,1975,1919
1898,1918,1903
1844,1810,1776
1874,1833,1791
1919,1926,1905
1891,1878,1893
1859,1853,1793
1883,1859,1793
1920,1904,1901
1886,1886,1872
1855,1811,1783
1893,1907,1828
1914,1982,1919
1875,1842,1890
1852,1744,1774
1891,1877,1794
1925,1947,1913
1876,1869,1875
1854,1853,1780
1885,1867,1799
1920,1904,1917
1901,1916,1916
1855,1843,1793
1855,1806,1779
1898,1865,1887
1882,1889,1899
1838,1840,1763
1872,1825,1790
1915,1893,1902
1872,1893,1885
1830,1799,1775
1877,1906,1811
1897,1943,1887
1878,1874,1887
1842,1847,1778
1858,1849,1778
1886,1891,1894
1872,1893,1879
1839,1829,1778
1855,1801,1774
1907,1907,1904
1886,1872,1904
1842,1809,1776
1861,1931,1796
1902,1941,1913
1872,1856,1901
1822,1777,1749
1855,1871,1794
1885,1913,1895
1856,1915,1883
1829,1890,1783
1861,1871,1807
1883,1891,1904
1856,1874,1875
1818,1811,1761
1864,1822,1798
1888,1879,1906
1859,1908,1895
1821,1847,1783
1856,1898,1808
1894,1845,1904
1869,1839,1893
1821,1873,1765
1847,1979,1804
1882,1932,1899
1856,1872,1873
1822,1782,1769
1847,1796,1794
1894,1923,1922
1857,1899,1892
1814,1844,1759
1834,1865,1786
1885,1829,1918
1857,1895,1888
1817,1819,1781
1840,1878,1809
1877,1967,1914
1842,1938,1872
1811,1799,1778
1825,1822,1792
1872,1872,1915
1854,1904,1899
1813,1838,1777
1842,1842,1818
1888,2015,1931
1857,1949,1919
1794,1789,1757
1833,1798,1791
1876,1942,1905
1850,1873,1879
1807,1805,1758
1839,1873,1804
1877,1913,1909
1846,1894,1884
1821,1803,1782
1847,1792,1805
1872,1935,1907
1857,1975,1898
1812,1792,1777
1843,1851,1813
1887,1954,1949
1851,1871,1889
1805,1765,1750
1847,1872,1787
1902,1933,1917
1878,1946,1904
1840,1843,1786
1866,1893,1814
1902,1985,1906
1872,1872,1885
1837,1830,1779
1863,1791,1797
1904,1905,1918
1882,1922,1906
1831,1842,1776
1846,1848,1765
1882,1867,1885
1867,1903,1879
1812,1846,1760
1847,1827,1799
1904,1964,1937
1877,1939,1920
1823,1876,1771
1849,1808,1791
1879,1905,1904
1866,1883,1902
1840,1826,1803
1849,1826,1796
1879,1877,1898
1859,1885,1884
1831,1777,1788
1859,1825,1805
1890,1910,1914
1861,1872,1886
1837,1843,1787
1865,1840,1809
1895,2032,1936
1857,1872,1877
1822,1728,1771
1863,1783,1801
1890,1910,1904
1856,1848,1883
1823,1811,1792
1861,1808,1802
1904,1968,1918
1869,1970,1904
1825,1857,1795
1854,1841,1803
1887,1878,1904
1855,1897,1866
1824,1776,1762
1856,1867,1813
1894,1925,1914
1872,1826,1904
1820,1803,1782
1851,1840,1807
1889,1945,1915
1872,1904,1911
1838,1840,1801
1855,1806,1808
1886,1940,1911
1866,1926,1904
1813,1808,1776
1845,1861,1795
1877,1905,1904
1857,1920,1883
1821,1770,1776
1856,1827,1808
1884,1888,1903
1850,1858,1888
1810,1825,1779
1830,1815,1791
1883,1899,1904
1872,1953,1891
1829,1851,1790
1850,1862,1815
1873,1913,1903
1849,1819,1875
1815,1917,1787
1847,1850,1803
1881,1931,1904
1867,1909,1918
1810,1799,1785
1836,1789,1787
1873,1904,1911
1850,1895,1911
1812,1818,1810
1835,1857,1791
1888,1953,1901
1853,1947,1895
1808,1831,1779
1844,1797,1791
1874,1862,1904
1859,1978,1909
1827,1872,1803
1845,1826,1818
1877,1874,1904
1851,1969,1895
1822,1836,1802
1839,1805,1790
1883,2083,1920
1861,2011,1918
1795,1837,1767
1815,1760,1777
1878,1851,1911
1858,1926,1904
1820,1900,1792
1834,1842,1793
1865,1888,1902
1855,1922,1915
1835,1842,1822
1839,1911,1808
1858,1872,1897
1840,1867,1906
1808,1833,1791
1833,1858,1798
1872,1867,1904
1856,1965,1911
1811,1837,1792
1830,1893,1795
1863,1855,1891
1857,1851,1889
1827,1865,1793
1855,1910,1809
1882,1904,1904
1855,1926,1877
1823,1835,1789
1837,1923,1803
1894,1919,1919
1852,1962,1902
1797,1743,1757
1826,1776,1765
1876,1835,1893
1856,1893,1907
1830,1861,1794
1855,1885,1795
1879,1954,1925
1847,1871,1909
1820,1873,1778
1843,1845,1794
1872,1909,1910
1853,1919,1911
1811,1790,1783
1830,1782,1787
1871,1886,1888
1854,1911,1883
1819,1889,1805
1837,1899,1798
1887,1937,1915
1856,1894,1904
1825,1851,1779
1842,1841,1809
1886,1939,1927
1871,1915,1911
1818,1744,1763
1843,1859,1786
1888,1923,1919
1872,1859,1905
1822,1756,1797
1840,1899,1771
1887,1958,1901
1862,1956,1917
1818,1831,1783
1837,1837,1792
1870,1900,1904
1863,1947,1911
1837,1899,1809
1855,1904,1791
1878,1808,1868
1840,1811,1881
1803,1823,1782
1850,1858,1791
1893,1945,1905
1858,1894,1906
1809,1859,1776
1843,1839,1805
1889,1919,1903
1855,1936,1887
1808,1827,1785
1833,1829,1786
1872,1902,1878
1852,1911,1879
1817,1790,1783
1839,1818,1801
1885,1939,1923
1856,1931,1907
1821,1861,1791
1839,1827,1799
1859,1865,1882
1856,1882,1883
1823,1905,1808
1856,1895,1825
1877,1943,1920
1841,1852,1869
1803,1766,1766
1829,1843,1791
1873,1926,1892
1854,1999,1917
1811,1849,1794
1819,1711,1774
1872,1838,1913
1865,1933,1904
1830,1888,1808
1834,1879,1792
1871,1894,1909
1840,1865,1870
1805,1839,1762
1839,1843,1808
1872,1887,1914
1849,1913,1900
1806,1872,1762
1829,1861,1792
1875,1863,1913
1840,1844,1878
1815,1802,1786
1840,1857,1808
1879,1954,1927
1854,1936,1919
1801,1840,1776
1831,1862,1786
1881,1958,1919
1861,1843,1919
1818,1815,1795
1826,1840,1780
1870,1981,1898
1845,1923,1904
1825,1758,1787
1837,1761,1790
1869,1915,1917
1845,1893,1913
1808,1847,1792
1829,1847,1809
1866,1995,1916
1840,1893,1889
1794,1801,1771
1823,1808,1798
1872,1933,1920
1835,1952,1889
1796,1840,1764
1814,1810,1789
1846,1858,1899
1830,1856,1906
1792,1811,1780
1827,1875,1787
1869,1953,1905
1841,1872,1907
1806,1809,1798
1836,1891,1821
1840,1913,1885
1822,1887,1881
1808,1827,1779
1834,1842,1789
1856,1882,1886
1837,1894,1890
1794,1767,1775
1823,1811,1781
1861,1936,1904
1851,1935,1916
1794,1835,1770
1811,1861,1785
1856,1918,1902
1840,1850,1909
1799,1804,1794
1817,1856,1798
1843,1943,1873
1840,1942,1900
1794,1760,1791
1819,1781,1787
1868,1931,1903
1841,1911,1894
1806,1869,1803
1836,1861,1799
1860,1855,1889
1835,1879,1889
1808,1866,1805
1841,1947,1817
1855,1840,1895
1819,1761,1875
1783,1744,1776
1812,1830,1776
1858,2009,1891
1847,1983,1904
1801,1764,1765
1815,1744,1765
1872,1923,1904
1859,1908,1910
1809,1842,1785
1824,1864,1771
1869,1904,1903
1858,1878,1924
1813,1857,1803
1821,1818,1777
1847,1872,1859
1840,1825,1878
1815,1839,1808
1838,1855,1740
1872,1922,1887
1850,1926,1888
1808,1823,1779
1822,1766,1763
1862,1835,1887
1854,1920,1894
1810,1805,1786
1834,1820,1811
1875,1933,1918
1839,1906,1902
1795,1759,1744
1821,1807,1790
1886,2012,1934
1844,1863,1859
1795,1728,1731
1820,1759,1758
1862,1908,1879
1855,1988,1907
1808,1809,1763
1835,1776,1773
1863,1904,1885
1853,1891,1883
1808,1812,1781
1823,1857,1791
1883,1989,1928
1866,1878,1900
1804,1735,1803
1809,1818,1762
1853,1926,1861
1851,1951,1897
1824,1824,1831
1840,1843,1778
1866,1872,1879
1855,1931,1898
1821,1821,1774
1824,1808,1785
1865,1910,1881
1855,1867,1904
1808,1747,1782
1831,1845,1798
1867,1911,1870
1846,1930,1878
1802,1872,1762
1828,1831,1769
1874,1919,1905
1857,1907,1882
1815,1835,1774
1839,1901,1799
1843,1885,1861
1837,1831,1893
1803,1741,1772
1827,1814,1819
1881,1917,1904
1841,1936,1870
1798,1801,1750
1821,1803,1793
1863,1938,1871
1856,1875,1906
1814,1914,1759
1815,1834,1739
1855,1897,1875
1840,1904,1946
1804,1763,1781
1821,1764,1773
1859,1857,1863
1842,1975,1842
1792,1843,1751
1812,1808,1757
1856,1908,1918
1856,1975,1906
1793,1773,1798
1799,1767,1788
1840,1868,1882
1840,1872,1923
1807,1828,1777
1818,1840,1780
1862,1851,1882
1835,1904,1885
1805,1808,1776
1817,1790,1739
1856,1872,1857
1859,2001,1904
1803,1793,1776
1811,1755,1763
1855,1857,1857
1845,1842,1871
1813,1866,1775
1841,1893,1808
1866,1898,1893
1838,1808,1856
1802,1753,1732
1836,1875,1759
1869,1993,1914
1835,1792,1859
1788,1670,1744
1823,1786,1785
1873,1922,1843
1849,1913,1936
1807,1829,1782
1822,1815,1786
1866,1943,1883
1854,1916,1879
1808,1744,1746
1825,1747,1767
1872,1897,1909
1867,1942,1932
1818,1840,1797
1838,1745,1800
1855,1868,1872
1827,1870,1878
1788,1781,1715
1817,1785,1777
1872,1923,1904
1851,1931,1921
1791,1777,1759
1797,1759,1776
1859,1873,1869
1869,1904,1963
1823,1886,1776
1808,1831,1817
1862,1859,1873
1838,1809,1786
1804,1755,1744
1836,1872,1739
1874,2029,1930
1847,1899,1921
1798,1709,1793
1821,1807,1771
1875,1834,1904
1876,2011,1933
1819,1778,1778
1849,1766,1801
1870,1941,1867
1843,1850,1803
1807,1821,1782
1819,1808,1746
1867,1921,1879
1868,1884,1887
1835,1808,1819
1856,1882,1808
1870,1861,1895
1850,1872,1891
1819,1830,1783
1842,1849,1781
1872,1840,1877
1854,1862,1877
1808,1809,1790
1863,1798,1834
1909,1952,1939
1839,1957,1886
1819,1956,1808
1840,1744,1755
1863,1719,1840
1845,1787,1889
1803,1791,1759
1824,1855,1776
1878,1995,1905
1873,1918,1944
1823,1723,1799
1818,1786,1793
1888,2009,1924
1872,1991,1941
1808,1680,1761
1802,1695,1755
1841,1875,1840
1875,1999,1903
1834,1834,1791
1855,1829,1819
1872,1889,1887
1823,1769,1854
1794,1785,1783
1847,1785,1792
1889,1941,1886
1847,1922,1877
1792,1819,1770
1808,1777,1750
1876,1835,1881
1869,1875,1905
1815,1871,1792
1823,1827,1791
1858,1871,1893
1851,1837,1879
1808,1728,1772
1840,1808,1767
1885,1972,1887
1872,1966,1917
1808,1871,1790
1808,1722,1749
1865,1793,1875
1872,1867,1893
1818,1831,1774
1840,1780,1770
1866,1872,1879
1904,1870,1887
1839,1889,1796
1819,1834,1765
1839,1872,1878
1858,1936,1904
1858,1879,1791
1895,1845,1776
1828,1847,1881
1850,1837,1888
1829,1826,1767
1862,1919,1772
1847,1841,1878
1878,1809,1881
1808,1749,1775
1882,1925,1817
1874,1963,1913
1823,1846,1855
1796,1723,1779
1872,1870,1838
1934,1938,1950
1853,1842,1872
1798,1726,1743
1837,1813,1758
1885,1935,1904
1871,1904,1920
1813,1809,1782
1840,1882,1791
1909,1984,1926
1885,1906,1910
1813,1771,1791
1813,1781,1787
1907,1879,1879
1855,1876,1889
1854,1771,1783
1843,1860,1800
1886,1911,1915
1899,1904,1886
1819,1803,1786
1840,1842,1807
1904,2000,1934
1872,1938,1920
1834,1837,1809
1869,1788,1786
1872,1847,1899
1899,1906,1935
1808,1811,1794
1838,1776,1789
1888,1936,1904
1861,1884,1904
1822,1919,1808
1826,1829,1803
1891,1890,1919
1879,1943,1942
1815,1950,1831
1883,1792,1801
1927,1871,1920
1802,1911,1918
1833,1808,1792
1799,1798,1794
1856,1861,1918
1902,1911,1934
1830,1902,1799
1872,1921,1808
1901,1938,1911
1853,1827,1904
1799,1774,1794
1865,1825,1808
1887,1878,1954
1883,2085,1950
1825,1863,1785
1859,1702,1765
1858,1840,1905
1855,1974,1921
1826,1856,1802
1843,1808,1818
1901,1905,1917
1890,1898,1925
1836,1853,1814
1861,1823,1835
1902,1948,1938
1869,1926,1914
1812,1759,1762
1846,1776,1775
1886,1840,1904
1867,1922,1911
1841,1879,1802
1855,1809,1811
1891,1919,1926
1908,1966,1930
1849,1807,1794
1838,1782,1774
1809,1858,1903
1857,1901,1925
1856,1866,1821
1843,1847,1795
1978,1847,1894
1862,1861,1905
1895,1842,1802
1844,1851,1792
1898,1918,1916
1874,1863,1926
1828,1787,1792
1847,1838,1786
1888,1946,1911
1874,1932,1904
1829,1807,1786
1845,1799,1794
1894,1936,1907
1878,1924,1922
1810,1867,1808
1825,1801,1790
1850,1824,1895
1922,1883,1935
1776,1833,1806
1813,1837,1798
1907,1887,1922
1888,1926,1951
1856,1886,1808
1819,1834,1790
1916,1919,1888
1927,1936,1904
1854,1815,1790
1850,1862,1803
1855,1932,1919
1807,1792,1911
1824,1763,1775
1820,1815,1773
1903,1959,1930
1909,1943,1964
1830,1851,1795
1839,1792,1753
1872,1917,1902
1783,1891,1923
1830,1867,1801
1863,1887,1791
1876,1863,1901
1856,1874,1901
1795,1810,1805
1839,1826,1803
1883,1948,1907
1879,1971,1923
1849,1911,1809
1852,1813,1780
1861,1826,1905
1885,1904,1917
1854,1841,1789
1883,1825,1771
1870,1894,1906
1885,1869,1923
1845,1882,1805
1853,1921,1808
1840,1863,1901
1914,1857,1906
1861,1840,1801
1805,1847,1787
1891,1957,1910
1875,1905,1921
1725,1862,1809
1855,1927,1779
1781,1952,1895
1872,1856,1930
1806,1765,1795
1866,1858,1775
1875,1908,1888
1879,1901,1921
1837,1833,1811
1859,1901,1808
1881,1885,1899
1859,1936,1914
1818,1790,1777
1838,1831,1778
1875,1937,1902
1871,1921,1923
1835,1808,1813
1846,1907,1792
1872,1950,1899
1861,1835,1904
1813,1795,1795
1840,1856,1805
1893,1937,1919
1869,1973,1908
1808,1855,1815
1826,1872,1772
1877,1901,1899
1856,1983,1921
1819,1907,1835
1831,1853,1792
1861,1803,1868
1841,1798,1888
1810,1854,1787
1826,1863,1788
1860,1915,1901
1862,1872,1936
1837,1809,1826
1840,1950,1817
1873,1997,1904
1845,1851,1899
1818,1837,1808
1842,1891,1808
1877,1936,1925
1849,1835,1910
1808,1802,1778
1823,1934,1786
1885,1983,1931
1859,1853,1952
1808,1769,1807
1820,1789,1792
1872,1896,1906
1873,1928,1934
1826,1895,1797
1831,1882,1772
1879,1973,1904
1863,1902,1921
1815,1863,1824
1833,1875,1785
1882,1968,1904
1872,1874,1935
1814,1771,1808
1825,1819,1778
1871,1902,1894
1858,1886,1911
1813,1881,1803
1841,1930,1822
1881,2029,1903
1859,1934,1915
1805,1819,1799
1822,1767,1750
1875,1875,1883
1855,1903,1904
1808,1872,1795
1841,1872,1806
1871,1886,1904
1871,1879,1932
1823,1902,1795
1823,1869,1775
1882,1939,1920
1872,1895,1933
1826,1872,1807
1839,1904,1793
1888,1904,1921
1866,1888,1904
1799,1804,1782
1863,1885,1799
1883,1897,1901
1862,1876,1950
1827,1838,1839
1853,2011,1807
1884,1906,1895
1856,1820,1881
1822,1797,1787
1841,1857,1788
1875,1942,1888
1866,1915,1891
1828,1899,1799
1838,1841,1802
1866,1887,1883
1863,1951,1898
1822,1791,1791
1847,1867,1793
1888,1866,1905
1870,1919,1916
1814,1879,1806
1830,1855,1777
1893,1890,1885
1872,1883,1932
1813,1840,1804
1840,1851,1793
1878,1890,1876
1866,1860,1915
1818,1879,1790
1834,1847,1785
1878,1901,1895
1874,1927,1936
1838,1835,1831
1846,1823,1806
1899,1966,1911
1878,1970,1936
1823,1819,1793
1830,1861,1776
1866,1840,1887
1863,1901,1926
1835,1891,1817
1843,1894,1807
1879,1871,1886
1867,1861,1904
1835,1849,1810
1854,1872,1825
1888,1906,1898
1869,1926,1904
1821,1861,1802
1827,1861,1796
1877,1932,1905
1861,1910,1930
1817,1843,1794
1847,1862,1777
1888,1887,1904
1873,1847,1901
1825,1812,1785
1822,1846,1774
1879,1929,1888
1891,1986,1942
1837,1869,1808
1825,1822,1767
1868,1872,1888
1873,1985,1915
1835,1968,1814
1824,1750,1766
1862,1788,1887
1856,1856,1915
1829,1835,1792
1840,1829,1757
1883,1946,1903
1863,1970,1950
1808,1808,1814
1822,1801,1771
1872,1879,1904
1872,1908,1927
1819,1840,1811
1839,1870,1786
1876,1999,1899
1865,1931,1927
1809,1759,1806
1824,1811,1759
1861,1829,1867
1859,1904,1921
1810,1825,1797
1825,1853,1764
1863,1941,1878
1867,1905,1927
1841,1893,1855
1830,1786,1775
1859,1887,1845
1840,1895,1886
1808,1895,1807
1834,1804,1795
1884,1839,1905
1871,1864,1922
1815,1877,1794
1824,1851,1760
1870,1890,1873
1870,1884,1935
1834,1849,1821
1841,1907,1795
1872,1903,1891
1855,1907,1923
1809,1818,1809
1819,1771,1750
1863,1968,1870
1857,1979,1925
1819,1758,1798
1829,1729,1774
1869,1936,1872
1842,1885,1894
1814,1859,1801
1840,1885,1803
1885,1837,1921
1856,1890,1904
1827,1930,1807
1840,1887,1794
1890,1845,1906
1882,1846,1920
1815,1835,1776
1825,1876,1745
1891,1952,1886
1898,1983,1927
1830,1813,1794
1829,1726,1759
1872,1951,1890
1874,1952,1926
1843,1858,1839
1840,1828,1797
1875,1870,1907
1863,1856,1904
1818,1789,1797
1837,1897,1771
1874,1931,1873
1858,1903,1895
1821,1858,1792
1842,1911,1770
1882,1891,1889
1876,1819,1891
1814,1807,1773
1838,1877,1785
1878,1919,1885
1867,1904,1897
1844,2013,1826
1840,1833,1776
1871,1876,1863
1851,1840,1889
1808,1866,1805
1840,1829,1776
1885,1893,1890
1883,1919,1914
1840,1897,1808
1834,1823,1773
1872,1835,1879
1873,1951,1921
1819,1871,1778
1824,1822,1755
1875,1874,1872
1873,1872,1916
1842,1917,1818
1841,1885,1763
1872,1857,1855
1858,1934,1900
1833,1838,1791
1846,1830,1771
1882,1931,1902
1858,1922,1893
1822,1794,1782
1840,1737,1771
1886,1930,1889
1872,1889,1893
1808,1856,1771
1831,1837,1768
1879,1926,1883
1889,2012,1929
1827,1776,1780
1827,1745,1755
1888,1919,1894
1879,1941,1914
1830,1835,1770
1836,1807,1777
1887,1967,1879
1871,1877,1904
1833,1911,1810
1847,1885,1791
1888,1818,1872
1870,1986,1887
1819,1817,1791
1840,1908,1793
1891,1898,1917
1873,1935,1923
1809,1799,1781
1822,1718,1745
1872,1872,1862
1870,1936,1905
1839,1840,1815
1852,1872,1807
1886,1985,1890
1862,1872,1883
1829,1889,1789
1825,1851,1746
1867,1921,1869
1883,1983,1936
1833,1795,1791
1835,1786,1765
1875,1882,1871
1853,1869,1863
1806,1862,1776
1841,1872,1781
1889,1911,1906
1862,1901,1920
1811,1933,1805
1849,1850,1787
1879,1891,1879
1861,1952,1904
1823,1821,1807
1844,1798,1778
1878,1905,1872
1856,1981,1905
1820,1803,1813
1833,1808,1769
1882,2075,1873
1865,1815,1909
1810,1789,1787
1823,1763,1761
1870,1967,1900
1877,1914,1934
1831,1799,1813
1838,1785,1776
1872,1928,1872
1856,2032,1902
1813,1856,1794
1839,1739,1787
1872,1862,1897
1859,1851,1905
1825,1922,1790
1846,1878,1771
1878,1914,1883
1869,1906,1930
1817,1712,1801
1840,1806,1749
1879,1946,1885
1863,1911,1893
1824,1792,1776
1845,1781,1792
1885,1904,1887
1881,1902,1923
1826,1877,1813
1842,1914,1795
1885,1914,1904
1869,1870,1901
1819,1809,1783
1840,1810,1763
1871,1871,1869
1873,1921,1938
1825,1872,1825
1829,1779,1770
1868,1847,1872
1867,1875,1908
1824,1865,1802
1841,1821,1785
1889,1893,1900
1887,1969,1933
1837,1923,1821
1840,1762,1789
1854,1812,1857
1858,1898,1904
1841,1845,1849
1841,1808,1794
1874,1898,1870
1871,1901,1907
1820,1822,1795
1833,1835,1795
1884,1958,1922
1875,1929,1924
1831,1837,1785
1834,1820,1765
1875,1792,1888
1873,1822,1919
1843,1826,1840
1840,1900,1779
1863,1920,1847
1866,1920,1890
1835,1853,1816
1840,1802,1808
1882,1961,1891
1860,1904,1894
1819,1742,1777
1838,1782,1776
1899,1890,1905
1887,1923,1923
1831,1858,1807
1857,1904,1802
1895,1920,1874
1857,1840,1903
1814,1783,1797
1839,1876,1780
1873,1872,1872
1857,1854,1897
1840,1857,1812
1854,1897,1807
1873,1881,1888
1874,1893,1943
1831,1839,1818
1830,1843,1776
1883,1939,1897
1867,1885,1906
1814,1821,1787
1834,1807,1750
1874,1909,1899
1854,1920,1904
1812,1796,1794
1841,1824,1794
1898,1967,1927
1872,1940,1933
1819,1822,1778
1830,1808,1758
1875,1809,1886
1875,1915,1936
1818,1810,1789
1834,1806,1791
1882,1907,1904
1862,1969,1919
1815,1818,1789
1851,1744,1797
1897,1957,1917
1875,2011,1919
1825,1882,1797
1810,1728,1763
1872,1866,1895
1872,1861,1922
1813,1793,1794
1840,1771,1789
1878,1926,1895
1875,1945,1936
1821,1846,1823
1831,1870,1779
1875,1933,1873
1871,1934,1925
1813,1851,1794
1812,1770,1749
1873,1878,1889
1885,1899,1926
1825,1858,1799
1811,1826,1791
1866,1909,1895
1867,1879,1905
1822,1830,1791
1822,1823,1771
1871,1939,1889
1870,1925,1929
1822,1927,1817
1840,1861,1796
1872,1898,1882
1847,1896,1875
1815,1821,1789
1831,1774,1779
1869,1847,1884
1865,1927,1919
1827,1898,1795
1835,1869,1773
1879,1900,1894
1869,1875,1918
1815,1845,1781
1837,1847,1759
1889,1894,1901
1870,1917,1935
1826,1850,1821
1836,1778,1775
1879,1890,1889
1877,1985,1936
1821,1850,1799
1841,1844,1776
1886,1905,1890
1863,1895,1919
1837,1884,1833
1846,1849,1777
1877,1876,1870
1883,1959,1904
1818,1837,1787
1826,1837,1746
1890,1856,1882
1882,1903,1959
1815,1853,1824
1815,1824,1749
1876,1907,1883
1879,1879,1859
1810,1820,1769
1831,1875,1815
1886,1899,1894
1873,1933,1929
1810,1850,1782
1826,1857,1793
1872,1867,1897
1872,1935,1927
1821,1842,1829
1813,1780,1747
1867,1843,1906
1868,1889,1911
1819,1855,1807
1819,1818,1759
1872,1904,1918
1867,1936,1910
1817,1831,1791
1829,1807,1785
1867,1843,1883
1866,1858,1904
1824,1850,1792
1836,1817,1775
1871,1953,1883
1851,1968,1918
1813,1845,1791
1830,1840,1786
1872,1936,1907
1874,1987,1923
1800,1777,1762
1805,1731,1744
1863,1809,1874
1873,1905,1898
1817,1875,1790
1838,1856,1742
1887,1885,1879
1887,1975,1936
1825,1823,1780
1814,1779,1743
1879,2003,1895
1875,1987,1937
1810,1722,1802
1810,1663,1741
1852,1793,1846
1862,1885,1936
1835,1839,1833
1829,1917,1781
1872,1891,1875
1866,1889,1904
1811,1771,1798
1825,1757,1791
1859,1830,1873
1858,1935,1939
1825,1967,1808
1822,1730,1751
1860,1761,1877
1856,1830,1870
1813,1789,1815
1843,1746,1840
1873,1848,1893
1853,1865,1943
1827,1891,1791
1826,1728,1776
1872,1699,1879
1865,1825,1926
1822,1821,1781
1818,1762,1759
1840,1776,1837
1854,1856,1942
1834,1804,1856
1818,1718,1776
1867,1823,1872
1863,1861,1905
1814,1818,1815
1835,1771,1792
1879,1923,1922
1874,1983,1906
1820,1737,1792
1822,1648,1747
1877,1799,1901
1845,1815,1863
1807,1713,1775
1840,1758,1791
1887,1933,1904
1852,1815,1904
1799,1670,1770
1825,1744,1764
1865,1828,1850
1854,1831,1904
1824,1822,1777
1843,1808,1778
1871,1830,1859
1855,1805,1846
1813,1815,1813
1835,1858,1782
1863,1856,1842
1851,1791,1885
1806,1742,1808
1842,1811,1787
1886,1872,1946
1868,1840,1889
1809,1810,1795
1825,1729,1763
1877,1755,1895
1874,1904,1920
1826,1845,1801
1822,1763,1778
1872,1807,1877
1879,1859,1920
1822,1840,1807
1825,1808,1771
1876,1914,1883
1866,1858,1904
1811,1775,1771
1813,1750,1760
1847,1854,1846
1855,1875,1923
1814,1754,1818
1826,1790,1749
1873,1843,1911
1853,1874,1887
1812,1789,1799
1815,1871,1797
1871,1926,1892
1867,1861,1922
1811,1760,1872
1814,1729,1817
1857,1856,1784
1866,1945,1963
1836,1905,1840
1837,1802,1783
1870,1821,1841
1863,1859,1970
1813,1795,1801
1831,1803,1774
1882,1980,1904
1863,1863,1883
1808,1757,1761
1835,1819,1783
1876,1867,1919
1875,1879,1930
1840,1894,1837
1834,1827,1781
1866,1893,1875
1859,1886,1919
1822,1819,1836
1822,1776,1809
1847,1858,1872
1851,1843,1920
1818,1810,1808
1834,1839,1776
1871,1966,1890
1877,1938,1920
1843,1856,1793
1830,1765,1751
1873,1850,1862
1871,1920,1933
1823,1920,1799
1824,1948,1759
1870,1906,1889
1859,1829,1866
1811,1725,1802
1830,1843,1840
1863,1934,1847
1857,1929,1913
1823,1872,1795
1830,1854,1769
1882,1903,1889
1873,1965,1937
1823,1840,1822
1826,1795,1776
1879,1933,1892
1876,1939,1925
1813,1861,1780
1831,1828,1791
1872,1840,1895
1850,1936,1923
1814,1883,1808
1828,1811,1775
1870,1922,1882
1879,1973,1926
1808,1792,1776
1822,1761,1757
1874,1906,1901
1877,2010,1933
1831,1837,1808
1839,1789,1774
1872,1903,1876
1863,1936,1909
1813,1867,1809
1832,1840,1807
1874,1927,1902
1876,2022,1936
1826,1862,1821
1818,1804,1771
1863,1894,1859
1858,1872,1891
1808,1823,1795
1829,1935,1794
1873,1964,1905
1895,1871,1913
1826,1854,1811
1858,1883,1776
1851,1861,1867
1862,1859,1916
1808,1851,1806
1830,1856,1767
1841,1886,1843
1872,1924,1895
1835,1882,1808
1872,1897,1783
1874,1879,1884
1872,1902,1927
1807,1855,1841
1834,1915,1831
1872,1966,1875
1852,1813,1871
1808,1778,1757
1815,1881,1767
1871,1938,1913
1841,1981,1918
1793,1859,1786
1840,1825,1761
1826,1953,1878
1866,1914,1933
1766,1840,1818
1807,1851,1776
1889,1915,1883
1880,1984,1941
1809,1923,1869
1818,1779,1767
1845,1840,1846
1874,1914,1899
1823,1912,1783
1826,1835,1762
1867,1905,1866
1873,1977,1943
1808,1901,1827
1836,1877,1787
1888,1883,1882
1845,1898,1925
1839,1979,1855
1831,1822,1799
1853,1776,1870
1852,1901,1903
1824,1907,1819
1808,1871,1802
1872,1899,1903
1899,1925,1911
1818,1840,1791
1809,1822,1774
1918,1923,1894
1919,1904,1924
1840,1813,1804
1819,1894,1788
1914,1959,1904
1859,1911,1907
1791,1830,1809
1866,1904,1776
1917,1881,1873
1892,1861,1921
1802,1836,1814
1813,1955,1806
1871,1989,1879
1865,1909,1915
1810,1805,1823
1829,1840,1814
1890,1861,1891
1870,1936,1904
1840,1854,1798
1827,1801,1795
1875,1893,1883
1870,1908,1931
1823,1905,1808
1840,1854,1799
1879,1875,1906
1873,1930,1941
1824,1941,1809
1842,1890,1786
1883,1881,1903
1873,1948,1955
1820,1861,1826
1840,1791,1751
1850,1873,1857
1872,1968,1936
1815,1853,1838
1818,1776,1769
1877,1916,1888
1882,2034,1936
1838,1909,1819
1814,1792,1757
1873,1799,1840
1852,1916,1897
1838,1841,1799
1869,1818,1787
1888,1904,1895
1867,1958,1935
1815,1863,1829
1824,1829,1791
1872,1916,1878
1878,1990,1927
1823,1865,1821
1833,1954,1789
1872,1975,1900
1808,1803,1903
1808,1747,1774
1790,1779,1735
1873,1903,1863
1861,1948,1919
1872,1899,1840
1855,1840,1787
1867,1879,1867
1799,1923,1904
1744,1955,1837
1881,1994,1815
1927,1993,1885
1824,1730,1872
1776,1695,1777
1840,1800,1773
1858,1936,1873
1772,1986,1891
1879,1841,1803
1887,1830,1776
1853,1962,1895
1867,2005,1951
1826,1856,1819
1856,1751,1765
1862,1861,1872
1806,1945,1925
1797,1828,1809
1835,1877,1784
1886,1927,1898
1826,1915,1919
1853,1835,1797
1808,1821,1765
1872,1926,1878
1842,1984,1904
1803,1857,1807
1838,1826,1807
1877,1975,1897
1780,1890,1902
1808,1774,1782
1811,1803,1771
1872,1925,1890
1872,1969,1936
1824,1857,1808
1809,1831,1773
1923,1943,1889
1861,1927,1898
1787,1795,1779
1818,1846,1787
1853,1917,1889
1889,1936,1890
1825,1867,1808
1808,1789,1774
1840,1858,1861
1886,1919,1917
1808,1827,1821
1813,1802,1778
1872,1963,1856
1862,1927,1915
1819,1826,1797
1809,1861,1742
1855,1903,1873
1857,1903,1931
1812,1811,1795
1826,1870,1776
1869,1910,1891
1857,1939,1923
1814,1873,1807
