1826,1862,1808
1831,1852,1766
1879,1933,1895
1879,1939,1906
1823,1856,1807
1833,1805,1737
1878,1845,1869
1876,1871,1959
1821,1855,1807
1825,1877,1777
1872,1915,1886
1869,1881,1813
1821,1847,1821
1840,1872,1802
1892,1948,1823
1879,1911,1979
1825,1845,1787
1825,1839,1735
1871,1898,1872
1869,1889,1920
1819,1842,1808
1821,1839,1770
1859,1853,1872
1857,1856,1916
1815,1790,1814
1830,1893,1776
1874,1989,1877
1861,1906,1908
1810,1838,1792
1811,1825,1760
1859,1849,1874
1866,1891,1933
1817,1808,1807
1817,1839,1766
1856,1905,1865
1868,1936,1915
1821,1779,1811
1813,1791,1765
1869,1904,1872
1868,1937,1920
1822,1870,1818
1840,1965,1791
1872,1873,1867
1866,1850,1907
1819,1846,1808
1827,1830,1771
1871,1883,1872
1874,1903,1930
1820,1866,1809
1821,1815,1771
1881,1973,1881
1815,1942,1914
1822,1810,1815
1809,1765,1765
1827,1879,1872
1847,1877,1915
1838,1834,1792
1824,1858,1762
1917,1957,1899
1859,1890,1930
1851,1810,1787
1819,1780,1744
1904,1869,1863
1917,1923,1922
1823,1927,1840
1867,1845,1776
1837,1863,1878
1876,1883,1936
1856,1787,1802
1819,1805,1753
1869,1920,1883
1878,1903,1921
1822,1817,1797
1820,1824,1765
1872,1863,1875
1905,1897,1919
1817,1847,1799
1826,1825,1767
1854,1888,1883
1868,1921,1929
1827,1879,1803
1838,1936,1789
1862,1910,1886
1856,1831,1907
1851,1755,1801
1839,1779,1799
1903,1977,1921
1873,1918,1920
1813,1773,1807
1823,1814,1783
1872,1886,1875
1845,1893,1921
1861,1839,1815
1847,1871,1777
1873,1909,1872
1859,1808,1903
1824,1774,1810
1840,1798,1792
1904,1961,1891
1886,1923,1911
1839,1793,1788
1822,1755,1758
1872,1849,1872
1915,1899,1931
1797,1895,1813
1837,1841,1738
1841,1811,1851
1882,1878,1936
1822,1871,1825
1840,1839,1765
1894,1860,1883
1878,1833,1932
1838,1777,1790
1834,1791,1767
1903,1840,1887
1877,1904,1943
1825,1767,1806
1827,1770,1755
1871,1869,1866
1873,1837,1924
1808,1818,1813
1791,1790,1771
1840,1841,1872
1887,1837,1918
1831,1836,1791
1827,1821,1763
1872,1873,1893
1884,1854,1936
1835,1759,1814
1841,1788,1775
1882,1849,1872
1877,1888,1909
1823,1829,1809
1817,1767,1776
1890,1793,1870
1878,1863,1913
1955,1831,1799
1779,1795,1780
1874,1909,1899
1887,1954,1961
1818,1783,1799
1816,1775,1745
1875,1867,1879
1875,1872,1930
1863,1775,1792
1833,1749,1769
1857,1886,1904
1897,1963,1951
1854,1826,1814
1837,1767,1763
1875,1837,1870
1881,1907,1923
1827,1893,1820
1839,1805,1777
1870,1812,1855
1872,1850,1936
1811,1843,1823
1783,1851,1776
1932,1862,1862
1877,1863,1905
1849,1830,1824
1890,1869,1799
1866,1861,1879
1872,1888,1917
1892,1819,1799
1883,1793,1763
1840,1914,1871
1859,1980,1945
1825,1770,1789
1826,1709,1744
1872,1815,1872
1872,1965,1927
1846,1899,1819
1840,1776,1770
1847,1868,1885
1935,1881,1919
1840,1862,1813
1845,1901,1783
1872,1817,1866
1875,1855,1915
1843,1859,1819
1822,1792,1775
1869,1920,1871
1840,1921,1923
1831,1786,1799
1783,1744,1766
1881,1886,1885
1847,1933,1919
1813,1853,1795
1831,1855,1778
1882,1870,1902
1874,1908,1932
1814,1887,1787
1840,1840,1759
1861,1839,1867
1815,1898,1919
1837,1839,1815
1823,1839,1778
1850,1883,1885
1872,1931,1911
1790,1850,1801
1834,1758,1769
1917,1854,1887
1869,1931,1917
1823,1839,1798
1822,1837,1786
1914,1919,1909
1923,1922,1936
1808,1839,1791
1808,1781,1741
1838,1886,1869
1859,1958,1930
1844,1810,1823
1838,1791,1783
1870,1851,1870
1870,1889,1915
1817,1792,1804
1837,1799,1779
1883,1938,1891
1877,1975,1936
1808,1831,1805
1809,1758,1758
1867,1886,1877
1877,1898,1927
1827,1917,1808
1834,1813,1778
1872,1838,1875
1862,1908,1909
1810,1855,1789
1821,1826,1763
1886,1922,1901
1877,1941,1936
1798,1779,1787
1812,1775,1745
1882,1877,1892
1875,1984,1939
1809,1811,1803
1823,1791,1763
1888,1973,1899
1875,1958,1930
1809,1776,1792
1809,1721,1756
1861,1841,1871
1858,1915,1911
1829,1879,1813
1827,1760,1777
1869,1917,1877
1863,1946,1915
1805,1825,1786
1818,1813,1776
1872,1872,1886
1873,1926,1936
1822,1870,1825
1828,1819,1776
1865,1891,1872
1871,1945,1916
1818,1808,1805
1810,1744,1746
1863,1911,1871
1872,1936,1929
1818,1817,1808
1821,1809,1765
1871,1889,1877
1871,1946,1917
1825,1838,1799
1827,1840,1760
1872,1904,1873
1874,2009,1943
1814,1803,1810
1830,1712,1753
1873,1861,1853
1870,1932,1904
1819,1806,1805
1825,1811,1780
1885,1969,1905
1871,1906,1918
1805,1796,1776
1828,1803,1774
1888,1878,1901
1872,1922,1918
1822,1862,1797
1826,1820,1773
1869,1872,1872
1861,1856,1910
1821,1796,1806
1823,1825,1776
1886,1917,1904
1874,1922,1904
1814,1817,1775
1825,1808,1773
1879,1911,1893
1871,1922,1918
1804,1817,1792
1808,1834,1774
1870,1967,1899
1866,1934,1923
1815,1840,1803
1811,1775,1775
1856,1850,1876
1853,1900,1917
1795,1835,1782
1819,1808,1775
1882,1867,1905
1872,1899,1929
1813,1863,1791
1808,1806,1763
1861,1898,1875
1862,1919,1915
1815,1846,1814
1829,1909,1792
1871,1974,1905
1869,1860,1933
1814,1782,1806
1821,1824,1765
1866,1905,1877
1858,1898,1923
1808,1808,1809
1822,1866,1770
1886,1930,1887
1870,1914,1920
1821,1856,1825
1823,1807,1769
1861,1855,1858
1863,1901,1905
1825,1846,1815
1831,1840,1807
1872,1955,1885
1870,1900,1918
1803,1803,1796
1818,1792,1775
1872,1903,1884
1872,1909,1915
1818,1858,1795
1827,1824,1765
1872,1925,1874
1872,1904,1919
1810,1776,1796
1825,1792,1767
1879,1979,1895
1882,1981,1931
1814,1792,1803
1818,1744,1769
1879,1908,1892
1876,1963,1935
1818,1860,1802
1824,1859,1770
1867,1907,1879
1871,1876,1904
1806,1753,1777
1807,1808,1759
1858,1885,1880
1867,1911,1931
1849,1949,1859
1842,1863,1796
1853,1792,1858
1856,1849,1907
1813,1801,1798
1831,1843,1776
1888,1943,1886
1885,2003,1943
1823,1819,1813
1831,1759,1783
1877,1872,1887
1871,1857,1925
1825,1889,1827
1831,1830,1782
1873,1897,1887
1872,1904,1910
1821,1853,1802
1824,1826,1771
1872,1874,1890
1880,1931,1927
1813,1840,1808
1817,1799,1751
1856,1894,1858
1869,1863,1913
1825,1865,1808
1840,1925,1792
1888,1871,1887
1871,1839,1910
1803,1814,1783
1823,1856,1775
1875,1892,1871
1883,1851,1926
1827,1835,1814
1835,1932,1791
1872,1904,1886
1857,1840,1895
1810,1790,1793
1840,1814,1789
1886,1990,1904
1872,1974,1923
1808,1840,1808
1815,1840,1783
1875,1858,1891
1872,1891,1918
1818,1827,1808
1826,1869,1783
1871,1920,1902
1876,1950,1949
1815,1872,1821
1825,1836,1778
1887,1959,1904
1879,1903,1936
1810,1813,1790
1812,1792,1749
1869,1925,1881
1877,1990,1946
1825,1870,1822
1821,1808,1769
1853,1895,1843
1857,1897,1917
1825,1823,1824
1819,1811,1782
1872,1899,1889
1877,1950,1915
1826,1893,1808
1831,1879,1787
1868,1915,1879
1868,1855,1918
1825,1820,1815
1826,1859,1776
1874,1853,1883
1887,1994,1937
1834,1904,1807
1841,1819,1791
1885,1920,1885
1881,1935,1924
1830,1799,1808
1841,1741,1774
1886,1891,1888
1888,2007,1937
1830,1852,1811
1825,1776,1745
1872,1962,1872
1875,1964,1926
1830,1882,1816
1834,1802,1792
1873,1858,1875
1872,1903,1895
1824,1856,1808
1838,1830,1798
1879,1872,1901
1878,1856,1920
1834,1840,1815
1829,1874,1787
1875,1953,1909
1883,1923,1924
1831,1808,1791
1835,1808,1769
1882,1916,1881
1888,1898,1940
1833,1827,1829
1840,1872,1776
1887,1886,1886
1882,1975,1925
1826,1841,1825
1823,1783,1779
1873,1978,1897
1861,1869,1905
1812,1745,1805
1827,1800,1782
1881,1894,1890
1875,1991,1920
1815,1850,1805
1831,1868,1774
1875,1936,1874
1859,1882,1904
1808,1795,1781
1825,1840,1774
1887,1920,1901
1889,1994,1945
1841,1906,1817
1837,1822,1777
1874,1886,1889
1878,1902,1914
1835,1813,1791
1837,1837,1767
1888,1904,1886
1886,1921,1927
1834,1872,1821
1836,1822,1785
1893,1968,1900
1887,1857,1931
1827,1881,1811
1825,1788,1775
1893,1875,1891
1889,1947,1923
1829,1845,1803
1833,1868,1776
1875,1875,1879
1877,1932,1917
1830,1806,1798
1838,1807,1776
1879,1968,1901
1873,1904,1934
1826,1895,1799
1831,1889,1774
1881,1868,1872
1882,1845,1931
1823,1743,1814
1824,1781,1775
1901,1975,1925
1886,1905,1921
1819,1830,1771
1829,1824,1751
1872,1925,1886
1872,1913,1927
1813,1790,1811
1831,1869,1793
1888,1904,1888
1888,1936,1936
1821,1815,1809
1821,1817,1776
1883,1936,1904
1873,1965,1918
1818,1796,1792
1835,1707,1763
1878,1870,1884
1872,1909,1917
1817,1863,1796
1833,1744,1765
1872,1906,1893
1904,2081,1949
1833,1898,1803
1821,1729,1741
1872,1859,1873
1877,1913,1920
1839,1815,1807
1840,1807,1776
1875,1906,1869
1873,1936,1920
1838,1919,1840
1824,1830,1781
1867,1909,1876
1874,1908,1927
1831,1809,1815
1814,1777,1743
1868,1854,1862
1872,1952,1926
1825,1850,1808
1842,1829,1789
1895,1951,1904
1877,1904,1907
1822,1953,1787
1838,1855,1783
1876,1836,1887
1872,1853,1923
1822,1795,1797
1840,1815,1774
1874,1913,1872
1865,1950,1920
1809,1815,1797
1830,1842,1776
1909,1997,1915
1905,1954,1970
1825,1842,1797
1818,1794,1744
1871,1847,1872
1872,1907,1924
1831,1873,1819
1855,1809,1808
1887,1935,1894
1877,2011,1938
1815,1785,1789
1821,1776,1754
1883,1906,1904
1879,1851,1970
1838,1825,1831
1837,1819,1759
1863,1904,1863
1865,1903,1919
1823,1831,1831
1841,1840,1802
1904,2015,1926
1874,1972,1918
1808,1839,1789
1823,1784,1769
1885,1872,1883
1871,1903,1903
1819,1790,1791
1836,1822,1781
1889,1881,1904
1885,1927,1936
1824,1847,1800
1822,1825,1776
1871,1882,1906
1858,1946,1905
1808,1838,1785
1840,1821,1795
1881,1903,1899
1865,1984,1929
1802,1810,1808
1830,1821,1785
1906,1838,1899
1878,1904,1898
1802,1904,1775
1818,1807,1756
1874,1854,1866
1879,1907,1907
1830,1829,1808
1840,1849,1799
1888,1887,1889
1885,1920,1917
1841,1841,1805
1839,1856,1786
1865,1935,1893
1856,1855,1906
1799,1808,1763
1827,1807,1775
1891,1835,1904
1878,1930,1923
1823,1847,1819
1831,1793,1759
1878,1894,1878
1872,1887,1933
1826,1830,1806
1826,1807,1773
1877,1881,1903
1881,1936,1927
1826,1810,1781
1825,1827,1754
1882,1862,1900
1872,1961,1926
1793,1823,1802
1823,1758,1776
1875,1804,1895
1865,1914,1909
1818,1795,1805
1835,1845,1778
1878,1883,1875
1874,1859,1911
1806,1813,1799
1811,1823,1753
1872,1925,1881
1865,1882,1929
1824,1797,1811
1831,1833,1775
1875,1815,1890
1855,1839,1905
1808,1790,1798
1832,1826,1775
1885,1919,1899
1875,1899,1934
1829,1843,1816
1814,1807,1757
1857,1812,1878
1870,1881,1934
1808,1869,1789
1807,1753,1748
1872,1840,1881
1883,1889,1920
1825,1882,1830
1817,1749,1786
1850,1801,1857
1857,1870,1909
1822,1904,1808
1837,1823,1775
1883,1862,1882
1886,1836,1941
1827,1840,1802
1833,1810,1785
1887,1809,1887
1882,1873,1911
1827,1808,1808
1835,1793,1773
1866,1850,1871
1856,1887,1910
1818,1855,1812
1853,1841,1789
1904,1933,1889
1872,1909,1887
1797,1744,1786
1829,1747,1798
1897,1861,1902
1872,1826,1897
1815,1775,1783
1844,1802,1779
1904,1895,1904
1885,1923,1894
1822,1835,1770
1839,1825,1775
1886,1854,1888
1886,1936,1913
1821,1841,1749
1839,1808,1829
1893,1874,1858
1875,1837,1936
1837,1776,1796
1836,1806,1723
1886,1949,1867
1898,1935,1945
1841,1808,1845
1833,1754,1746
1876,1895,1906
1886,1856,1928
1827,1785,1777
1840,1902,1797
1888,1890,1902
1883,1854,1923
1831,1815,1835
1849,1874,1808
1889,1938,1890
1879,1942,1934
1810,1797,1786
1839,1808,1778
1907,1939,1909
1900,1934,1941
1826,1808,1760
1823,1843,1746
1872,1829,1887
1886,1872,1934
1829,1828,1830
1837,1887,1791
1882,1922,1923
1894,1902,1934
1826,1813,1797
1830,1840,1772
1881,1897,1910
1874,1871,1893
1830,1783,1795
1846,1823,1771
1885,1905,1904
1866,1911,1913
1824,1872,1808
1838,1865,1787
1887,1859,1885
1885,1879,1909
1834,1866,1814
1840,1846,1776
1879,1856,1887
1872,1910,1982
1838,1882,1830
1842,1840,1787
1895,1936,1893
1882,1835,1889
1818,1718,1790
1837,1840,1818
1885,1921,1885
1900,1962,1957
1829,1898,1745
1840,1808,1774
1882,1878,1907
1887,1962,1909
1823,1817,1781
1840,1847,1782
1886,1879,1887
1877,1878,1903
1829,1875,1802
1831,1852,1726
1891,1859,1884
1889,1866,1934
1835,1847,1836
1839,1901,1814
1885,1910,1865
1879,1875,1901
1840,1840,1809
1842,1881,1787
1891,1997,1884
1872,1853,1925
1813,1799,1790
1827,1796,1765
1871,1896,1872
1865,1904,1919
1821,1819,1801
1845,1819,1834
1894,1931,1904
1883,1967,1905
1839,1919,1769
1839,1792,1766
1873,1828,1860
1872,1931,1926
1825,1901,1776
1835,1902,1808
1889,1904,1879
1887,1872,1959
1827,1776,1780
1826,1819,1766
1878,1919,1906
1872,1936,1931
1824,1900,1806
1844,1791,1769
1885,1905,1893
1885,1926,1930
1833,1857,1793
1833,1825,1775
1881,1902,1905
1895,1967,1935
1840,1889,1815
1843,1853,1757
1899,1997,1895
1890,1845,1936
1837,1767,1776
1850,1855,1765
1894,1941,1968
1878,1962,1914
1825,1829,1784
1830,1791,1791
1873,1904,1927
1879,1907,1949
1843,1894,1808
1859,1902,1842
1902,2006,1937
1886,1904,1936
1828,1728,1815
1843,1795,1730
1877,1909,1893
1875,1941,1939
1851,1920,1856
1841,1917,1791
1883,1866,1829
1871,1897,1904
1821,1843,1799
1839,1867,1772
1889,2003,1899
1878,1888,1899
1835,1790,1799
1855,1873,1776
1907,1981,1891
1885,1873,1904
1829,1808,1779
1843,1834,1791
1909,1949,1913
1892,2035,1929
1827,1902,1808
1841,1840,1776
1877,1845,1914
1872,1826,1920
1823,1783,1776
1836,1903,1811
1893,1955,1911
1894,1931,1927
1834,1799,1808
1838,1779,1790
1892,1950,1905
1895,1967,1936
1830,1861,1783
1833,1866,1744
1893,1961,1899
1879,1876,1923
1830,1783,1783
1841,1805,1785
1894,1922,1907
1899,1969,1933
1839,1866,1801
1847,1906,1788
1877,1863,1851
1877,1909,1903
1827,1856,1808
1838,1821,1760
1877,1931,1871
1871,1858,1905
1819,1792,1793
1855,1801,1781
1904,1927,1884
1897,1971,1919
1823,1881,1779
1840,1889,1765
1883,1883,1875
1883,1911,1934
1822,1808,1809
1835,1793,1767
1894,1873,1894
1893,1973,1915
1833,1882,1796
1841,1808,1776
1895,1914,1891
1887,1904,1909
1822,1867,1792
1843,1931,1787
1903,2013,1867
1879,1899,1887
1824,1735,1790
1844,1780,1789
1911,1950,1916
1885,1886,1906
1868,1877,1797
1808,1841,1745
1854,1923,1870
1843,1915,1907
1834,1850,1810
1833,1872,1783
1898,1984,1904
1859,1930,1917
1807,1778,1793
1849,1833,1778
1874,1907,1904
1868,1909,1915
1763,1805,1766
1839,1846,1756
1914,1926,1884
1885,1910,1924
1808,1808,1789
1820,1810,1758
1878,1902,1866
1863,1915,1894
1817,1845,1799
1841,1925,1794
1919,1869,1904
1879,1812,1910
1828,1872,1801
1847,1855,1777
1872,1905,1870
1853,1902,1902
1835,1861,1795
1840,1845,1774
1865,1913,1872
1840,1909,1902
1821,1840,1792
1813,1808,1792
1891,1881,1908
1872,1934,1893
1842,1955,1800
1847,1863,1795
1889,1814,1881
1872,1894,1885
1813,1807,1755
1850,1839,1762
1887,1925,1887
1872,1890,1904
1817,1815,1786
1829,1862,1761
1868,1899,1882
1882,1886,1910
1828,1845,1808
1806,1995,1789
1926,1923,1886
1902,1825,1904
1801,1738,1777
1831,1868,1776
1899,1904,1895
1837,1920,1919
1866,1840,1803
1840,1802,1761
1858,1853,1866
1872,1925,1916
1787,1968,1810
1833,1831,1771
1857,1902,1885
1879,1877,1907
1857,1761,1802
1855,1755,1773
1886,1916,1887
1926,2001,1922
1826,1902,1811
1823,1891,1779
1873,1806,1869
1898,1842,1890
1841,1818,1796
1845,1827,1782
1905,1930,1883
1893,1947,1903
1827,1802,1781
1827,1783,1759
1901,1886,1886
1893,1919,1913
1837,1906,1807
1857,1891,1791
1881,1843,1861
1895,1869,1920
1840,1788,1785
1840,1742,1742
1872,1907,1890
1969,1926,1918
1827,1815,1795
1922,1875,1761
1889,1891,1888
1776,1934,1902
1827,1859,1805
1843,1739,1787
1899,1809,1875
1891,1874,1925
1837,1838,1826
1833,1813,1770
1883,1957,1891
1897,1932,1921
1840,1842,1807
1843,1842,1747
1882,1907,1872
1888,1872,1946
1815,1808,1802
1856,1792,1776
1875,1795,1871
1861,1844,1911
1849,1835,1798
1861,1937,1769
1890,1905,1897
1854,1807,1901
1822,1769,1797
1893,1837,1765
1861,1945,1890
1919,1915,1917
1841,1847,1769
1798,1800,1762
1840,1840,1904
1805,1814,1926
1855,1836,1777
1871,1775,1751
1926,1856,1882
1919,1884,1930
1841,1792,1801
1840,1906,1776
1874,1947,1877
1859,1809,1889
1831,1774,1782
1811,1751,1783
1884,1823,1865
1843,1825,1877
1825,1781,1765
1840,1769,1762
1880,1888,1871
1872,1871,1891
1846,1837,1785
1856,1840,1765
1910,1911,1887
1889,1805,1892
1748,1730,1795
1861,1735,1805
1963,1871,1906
1872,1819,1861
1819,1750,1744
1851,1771,1777
1986,1999,1919
1905,1906,1902
1872,1797,1772
1791,1678,1744
1891,1775,1856
1901,1826,1890
1857,1792,1807
1871,1782,1787
1903,1843,1881
1916,1939,1911
1894,1771,1765
1797,1778,1756
1896,1904,1872
1929,1984,1941
1863,1769,1791
1851,1664,1747
1917,1774,1902
1939,1842,1947
1870,1853,1774
1858,1741,1737
1906,1799,1866
1915,1935,1922
1872,1905,1813
1859,1730,1777
1917,1838,1882
1919,1910,1920
1876,1749,1823
1863,1718,1753
1895,1823,1865
1905,1872,1933
1872,1952,1825
1872,1712,1773
1904,1713,1872
1905,1797,1922
1872,1875,1849
1872,1872,1825
1906,1824,1872
1898,1789,1885
1875,1835,1814
1873,1786,1798
1907,1789,1893
1920,1782,1904
1872,1798,1808
1911,1958,1815
1913,1867,1872
1869,1715,1872
1840,1703,1797
1862,1739,1771
1902,1925,1888
1886,1854,1905
1847,1744,1827
1854,1744,1765
1898,1792,1859
1872,1871,1872
1850,1827,1789
1849,1793,1759
1896,1853,1866
1882,1821,1890
1835,1733,1774
1854,1758,1776
1913,1873,1906
1895,1852,1904
1837,1823,1791
1852,1803,1771
1894,1857,1881
1886,1776,1897
1840,1739,1776
1849,1803,1766
1886,1835,1879
1889,1846,1901
1840,1822,1795
1859,1867,1823
1933,2096,1935
1858,1777,1855
1804,1598,1741
1847,1711,1777
1895,1850,1874
1890,1843,1917
1855,1840,1807
1874,1871,1787
1891,1885,1883
1887,1840,1898
1840,1831,1808
1856,1878,1792
1911,1974,1911
1875,1794,1887
1834,1655,1779
1862,1792,1794
1898,1890,1879
1893,1919,1930
1840,1872,1786
1842,1774,1748
1878,1838,1867
1889,1889,1914
1855,1870,1819
1861,1873,1783
1893,1857,1873
1883,1811,1898
1853,1845,1805
1854,1858,1765
1892,1809,1889
1882,1907,1925
1840,1913,1808
1849,1822,1774
1887,1795,1871
1903,2006,1930
1852,1872,1814
1840,1718,1765
1885,1803,1856
1876,1855,1907
1830,1881,1808
1853,1846,1764
1888,1878,1863
1877,1919,1901
1822,1827,1783
1863,1946,1797
1904,1909,1898
1863,1789,1862
1823,1744,1776
1853,1792,1790
1899,1895,1904
1899,1949,1935
1851,1897,1825
1853,1887,1759
1878,1887,1866
1872,1903,1889
1840,1818,1824
1855,1806,1791
1909,2000,1907
1879,1877,1909
1820,1734,1782
1851,1835,1763
1893,1904,1874
1883,1894,1910
1845,1846,1811
1865,1927,1823
1899,1941,1901
1863,1863,1885
1838,1849,1809
1854,1872,1808
1898,1972,1903
1875,1899,1904
1831,1763,1795
1857,1825,1805
1888,1941,1872
1883,1909,1894
1835,1868,1806
1870,1870,1823
1899,1982,1914
1879,1923,1911
1840,1943,1818
1829,1770,1767
1871,1744,1881
1869,1861,1915
1843,1863,1806
1858,1936,1802
1904,1970,1905
1881,1931,1904
1840,1802,1803
1856,1822,1793
1911,1934,1914
1901,1998,1936
1841,1906,1825
1836,1855,1763
1878,1899,1899
1894,1983,1938
1855,1926,1823
1867,1770,1797
1889,1823,1882
1872,1902,1906
1825,1847,1792
1860,1858,1811
1890,1965,1915
1883,1894,1917
1841,1919,1811
1844,1815,1803
1888,1933,1917
1893,1946,1923
1830,1863,1783
1839,1919,1783
1883,1847,1892
1883,1920,1931
1830,1856,1799
1836,1823,1769
1879,1953,1878
1877,1965,1914
1854,1861,1836
1872,1923,1821
1894,1887,1914
1872,1898,1903
1826,1887,1787
1847,1829,1779
1906,1877,1904
1889,1914,1909
1831,1921,1799
1843,1886,1774
1901,1839,1913
1882,1968,1923
1833,1833,1806
1846,1831,1777
1895,1901,1885
1888,1959,1932
1837,1936,1827
1853,1872,1793
1899,1872,1878
1901,1904,1906
1850,1856,1817
1861,1870,1790
1895,1936,1906
1867,1951,1902
1854,2032,1826
1862,1866,1801
1887,1866,1880
1872,1927,1905
1843,1864,1801
1866,1886,1807
1909,1955,1918
1901,2021,1932
1829,1914,1786
1852,1836,1782
1911,1953,1945
1893,1947,1952
1830,1904,1803
1855,1882,1751
1872,1802,1862
1877,1871,1924
1849,1926,1808
1867,1990,1819
1904,1958,1906
1888,1908,1909
1840,1814,1793
1854,1801,1771
1886,1870,1858
1893,1965,1897
1852,1914,1813
1863,1812,1797
1901,1913,1888
1882,1968,1917
1850,1860,1808
1875,1826,1796
1917,1968,1903
1886,1915,1901
1838,1832,1775
1859,1884,1804
1906,1911,1909
1898,1933,1919
1846,1872,1795
1867,1825,1773
1904,1973,1867
1890,2007,1904
1849,1840,1811
1857,1799,1776
1901,1872,1872
1903,1973,1909
1850,1946,1811
1856,1857,1774
1903,1807,1890
1894,1951,1899
1858,1766,1809
1839,1844,1758
1904,1973,1897
1901,2012,1933
1840,1840,1801
1846,1786,1754
1899,1956,1889
1888,1959,1915
1845,1810,1810
1851,1846,1769
1886,1949,1872
1874,1957,1896
1840,1869,1803
1869,1939,1797
1899,1863,1895
1873,1908,1904
1843,1855,1797
1858,1971,1779
1889,1904,1883
1879,1744,1874
1825,1771,1767
1857,1831,1779
1907,1905,1898
1876,1921,1887
1840,1931,1791
1855,1926,1788
1897,1931,1891
1888,1859,1920
1846,1755,1808
1846,1872,1781
1883,1932,1877
1877,1915,1904
1840,1894,1795
1856,1861,1765
1893,1849,1879
1890,1915,1895
1841,1840,1774
1844,1791,1776
1898,1953,1917
1887,1941,1904
1834,1786,1776
1862,1914,1796
1906,1968,1915
1876,1865,1903
1842,1818,1818
1859,1850,1799
1901,1968,1879
1872,1863,1889
1834,1779,1787
1861,1783,1804
1903,1873,1909
1893,1954,1924
1834,1889,1760
1846,1874,1773
1902,1941,1905
1895,1919,1935
1834,1772,1775
1855,1820,1776
1905,1890,1899
1887,1997,1930
1826,1871,1793
1872,1842,1774
1907,1936,1893
1863,1873,1900
1819,1875,1781
1875,1927,1818
1904,2085,1890
1878,1841,1873
1835,1735,1767
1834,1796,1762
1889,1904,1899
1901,1968,1955
1841,1904,1799
1839,1834,1735
1883,1870,1870
1871,1909,1893
1840,1865,1791
1850,1839,1783
1901,1915,1883
1883,1921,1888
1831,1857,1776
1846,1867,1789
1904,1946,1905
1895,1879,1920
1821,1783,1767
1842,1830,1745
1892,1927,1895
1901,1906,1930
1841,1857,1789
1856,1869,1790
1907,1921,1915
1893,1958,1895
1829,1826,1771
1833,1783,1757
1888,1880,1883
1877,1931,1905
1838,1906,1783
1856,1936,1779
1885,1835,1872
1885,1899,1901
1853,1878,1798
1854,1872,1779
1894,1927,1909
1875,1923,1914
1828,1793,1769
1843,1822,1779
1892,1957,1885
1876,1942,1901
1834,1902,1799
1849,1793,1777
1893,1897,1878
1870,1932,1901
1822,1894,1804
1840,1891,1782
1892,1862,1898
1886,1898,1914
1839,1843,1782
1842,1847,1799
1885,1927,1887
1883,1974,1923
1831,1840,1795
1840,1829,1771
1901,1959,1905
1881,1947,1902
1822,1781,1776
1831,1797,1761
1886,1903,1886
1886,1968,1920
1843,1875,1803
1847,1819,1776
1897,1894,1907
1886,1965,1922
1828,1890,1803
1831,1781,1751
1872,1865,1878
1884,1968,1928
1840,1897,1809
1843,1926,1779
1898,1899,1895
1877,1882,1921
1819,1808,1791
1843,1804,1766
1894,1869,1875
1882,1908,1911
1819,1866,1798
1847,1909,1792
1899,1898,1902
1882,1871,1903
1837,1826,1787
1853,1894,1792
1899,1957,1911
1891,1926,1914
1819,1822,1765
1838,1818,1761
1891,1868,1889
1886,1863,1925
1840,1809,1818
1854,1866,1797
1902,1977,1886
1879,1949,1903
1839,1872,1783
1845,1812,1766
1897,1934,1899
1904,1970,1936
1845,1872,1819
1851,1833,1792
1897,1905,1887
1890,1990,1904
1840,1838,1781
1863,1773,1781
1904,1902,1890
1872,1891,1906
1822,1826,1808
1840,1834,1795
1885,1955,1896
1873,1978,1908
1826,1872,1793
1839,1771,1776
1897,1871,1877
1897,1927,1938
1828,1957,1807
1840,1870,1789
1879,1823,1887
1869,1855,1909
1823,1850,1802
1835,1842,1773
1882,1872,1891
1872,1872,1913
1831,1830,1796
1861,1861,1796
1901,1920,1904
1883,1899,1935
1823,1870,1797
1834,1885,1782
1889,1946,1898
1883,1888,1918
1840,1831,1797
1845,1855,1789
1897,1886,1903
1872,1915,1899
1811,1843,1786
1847,1840,1795
1904,1889,1917
1890,1887,1927
1837,1875,1778
1840,1875,1767
1887,1936,1900
1877,1923,1904
1826,1809,1790
1839,1774,1782
1894,1891,1894
1889,1918,1920
1850,1840,1803
1858,1872,1792
1889,1904,1879
1872,1898,1895
1840,1875,1819
1861,1878,1817
1899,1936,1904
1886,1959,1925
1840,1872,1810
1853,1835,1783
1893,1842,1890
1874,1915,1915
1838,1795,1813
1858,1835,1783
1887,1883,1852
1891,1969,1978
1827,1829,1805
1835,1803,1775
1883,1885,1872
1881,1921,1922
1830,1830,1817
1834,1799,1766
1873,1921,1857
1870,1924,1905
1831,1871,1853
1840,1831,1814
1882,1951,1919
1877,1952,1904
1827,1839,1767
1834,1806,1771
1870,1849,1855
1861,1869,1910
1819,1882,1826
1835,1858,1792
1862,1870,1878
1861,1921,1933
1819,1807,1786
1823,1813,1782
1879,1951,1887
1877,1930,1972
1810,1849,1801
1817,1790,1792
1875,1826,1887
1867,1878,1909
1811,1893,1803
1828,1859,1808
1880,1846,1906
1859,1833,1915
1821,1887,1815
1835,1835,1785
1866,1834,1886
1841,1862,1871
1808,1824,1779
1846,1840,1808
1875,1935,1904
1863,1941,1922
1808,1812,1776
1828,1838,1797
1881,1878,1904
1873,1857,1929
1818,1774,1824
1838,1853,1783
1875,1970,1906
1855,1910,1899
1823,1794,1809
1837,1833,1838
1872,1913,1852
1861,1882,1878
1817,1831,1792
1833,1850,1819
1879,1863,1915
1866,1964,1904
1805,1797,1808
1830,1747,1751
1890,1927,1900
1867,1907,1883
1809,1846,1819
1825,1807,1827
1877,1897,1917
1872,1858,1951
1824,1830,1793
1827,1887,1795
1855,1939,1894
1850,1915,1895
1819,1793,1808
1845,1818,1808
1869,1841,1899
1850,1839,1909
1807,1810,1840
1840,1811,1798
1888,1941,1893
1864,1917,1913
1814,1815,1805
1840,1877,1808
1875,1935,1891
1869,1898,1904
1810,1741,1792
1834,1825,1777
1885,2018,1869
1876,1966,1924
1826,1774,1808
1839,1756,1797
1879,1846,1911
1863,1904,1918
1824,1887,1769
1840,1839,1782
1873,1845,1886
1872,1919,1919
1829,1872,1818
