1869,1973,1936
1821,1865,1810
1835,1881,1783
1879,1967,1883
1852,1854,1899
1808,1776,1775
1828,1801,1766
1868,1863,1873
1871,1898,1907
1806,1851,1787
1830,1850,1775
1883,1863,1903
1875,1878,1931
1839,1876,1798
1845,1931,1783
1884,1863,1898
1872,1894,1901
1818,1814,1781
1834,1830,1765
1867,1873,1850
1862,1877,1911
1807,1805,1798
1831,1833,1783
1872,1910,1897
1867,1907,1901
1833,1846,1813
1849,1917,1803
1885,1935,1905
1872,1872,1934
1808,1808,1791
1808,1776,1747
1872,1859,1894
1872,1872,1913
1813,1821,1776
1809,1872,1750
1873,1968,1883
1878,1895,1933
1823,1822,1794
1840,1827,1790
1879,1906,1894
1854,1893,1904
1797,1783,1783
1830,1815,1776
1874,1906,1872
1859,1918,1902
1798,1808,1787
1808,1840,1770
1877,1959,1902
1859,1965,1919
1823,1827,1808
1833,1744,1767
1878,1904,1875
1873,1903,1917
1810,1808,1776
1822,1837,1762
1869,1952,1894
1871,1920,1927
1808,1796,1788
1836,1808,1775
1898,1947,1931
1872,1965,1927
1803,1762,1771
1825,1777,1770
1879,1905,1891
1865,1911,1904
1818,1764,1811
1831,1843,1788
1889,1903,1895
1880,1953,1931
1826,1858,1796
1823,1817,1759
1863,1882,1868
1874,1889,1915
1830,1859,1808
1839,1734,1799
1875,1889,1884
1867,1905,1908
1809,1773,1801
1821,1793,1765
1872,1926,1876
1875,1959,1913
1814,1821,1775
1837,1856,1799
1885,1879,1915
1849,1859,1901
1811,1811,1786
1837,1849,1792
1875,1862,1878
1869,1862,1889
1815,1846,1782
1833,1910,1774
1875,1897,1884
1869,1938,1919
1811,1826,1786
1846,1807,1775
1897,1955,1885
1842,1850,1887
1807,1749,1790
1838,1825,1771
1879,1904,1890
1872,1922,1931
1835,1842,1811
1837,1824,1757
1877,1888,1872
1872,1860,1914
1821,1879,1815
1835,1891,1789
1881,1904,1874
1872,1961,1904
1814,1763,1787
1834,1790,1785
1870,1906,1879
1856,1922,1903
1827,1881,1821
1827,1884,1766
1869,1862,1877
1863,1838,1922
1813,1780,1803
1830,1839,1776
1871,1919,1883
1877,1917,1919
1833,1854,1778
1829,1783,1747
1885,1890,1904
1886,1939,1955
1826,1904,1783
1827,1856,1746
1872,1856,1886
1867,1870,1918
1811,1832,1758
1839,1793,1731
1887,1918,1886
1891,1967,1914
1828,1856,1795
1831,1814,1770
1873,1885,1889
1887,1918,1945
1849,1810,1773
1847,1903,1744
1906,1914,1839
1893,1863,1901
1831,1795,1793
1840,1839,1803
1889,1909,1858
1904,1911,1871
1866,1873,1825
1872,1867,1744
1918,1952,1898
1909,1887,1917
1857,1891,1856
1869,1871,1801
1915,1859,1881
1901,1823,1863
1858,1831,1817
1874,1827,1817
1920,1858,1920
1920,1872,1911
1872,1866,1857
1884,1924,1792
1936,1946,1904
1922,1904,1936
1869,1871,1857
1872,1815,1782
1931,1915,1917
1934,1936,1946
1886,1876,1801
1887,1840,1777
1921,1887,1893
1929,1873,1935
1878,1737,1796
1899,1815,1808
1941,1969,1910
1936,1968,1931
1876,1822,1787
1879,1872,1767
1936,1978,1907
1929,1970,1971
1875,1841,1808
1887,1779,1762
1930,1857,1887
1926,1951,1922
1872,1848,1827
1897,1818,1769
1935,1922,1898
1910,1927,1867
1857,1809,1832
1889,1824,1833
1936,1917,1909
1915,1901,1898
1872,1872,1798
1887,1850,1766
1936,1929,1861
1926,1947,1920
1883,1776,1822
1895,1904,1823
1921,1951,1872
1901,1850,1873
1839,1747,1776
1875,1815,1813
1920,1920,1904
1933,1942,1978
1886,1949,1851
1879,1853,1808
1921,1872,1891
1920,1904,1929
1867,1858,1809
1872,1844,1767
1917,1897,1904
1918,1906,1930
1872,1850,1824
1877,1874,1789
1919,1923,1870
1917,1975,1936
1861,1858,1793
1867,1723,1808
1925,1871,1938
1920,1934,2000
1841,1870,1744
1868,1853,1789
1918,1936,1883
1897,1829,1915
1843,1751,1809
1860,1783,1809
1917,1853,1889
1901,1882,1825
1850,1821,1801
1857,1825,1734
1906,1914,1877
1903,1937,1925
1859,1865,1809
1850,1805,1743
1890,1857,1872
1910,1914,1955
1878,1947,1855
1851,1757,1746
1882,1915,1808
1886,1936,1904
1840,1808,1825
1872,1911,1842
1903,1870,1961
1872,1872,1901
1840,1839,1805
1861,1810,1783
1906,1938,1904
1900,1959,1895
1847,1853,1857
1859,1805,1829
1904,1889,1856
1904,1962,1875
1847,1846,1792
1870,1859,1812
1904,1921,1905
1889,1891,1895
1856,1820,1803
1863,1822,1781
1900,1907,1890
1904,1999,1920
1856,1961,1797
1854,1855,1744
1901,1927,1891
1891,1889,1904
1835,1851,1759
1845,1842,1779
1904,1923,1927
1890,1934,1936
1854,1895,1835
1861,1914,1778
1875,1863,1877
1886,1895,1911
1848,1840,1790
1849,1813,1776
1897,1981,1909
1872,1895,1899
1840,1808,1810
1852,1871,1750
1901,2019,1915
1873,1904,1917
1826,1803,1825
1850,1874,1842
1899,1975,1903
1890,1907,1987
1837,1819,1785
1860,1830,1833
1882,1953,1863
1872,1899,1927
1846,1855,1808
1872,1903,1865
1903,1875,1920
1874,1939,1888
1820,1884,1807
1841,1926,1776
1891,1951,1910
1885,1827,1936
1825,1763,1811
1825,1820,1744
1872,1895,1872
1865,1893,1922
1822,1862,1799
1819,1836,1780
1893,1948,1901
1888,1930,1927
1837,1857,1826
1846,1872,1810
1882,1968,1906
1859,1767,1899
1822,1776,1807
1850,1814,1786
1885,1889,1898
1876,1959,1935
1817,1825,1775
1840,1872,1765
1881,1893,1890
1885,1909,1931
1838,1863,1810
1837,1844,1786
1874,1831,1885
1869,1878,1929
1839,1867,1833
1850,1920,1793
1872,1950,1883
1867,1904,1910
1814,1806,1799
1890,1818,1782
1837,1914,1886
1847,1943,1919
1825,1875,1811
1830,1867,1785
1905,1915,1892
1851,1939,1919
1835,1856,1808
1811,1866,1779
1904,1968,1907
1893,1943,1938
1857,1840,1814
1862,1846,1783
1873,1921,1884
1836,1939,1919
1844,1873,1817
1810,1863,1799
1890,1951,1894
1882,1958,1914
1834,1881,1821
1838,1872,1793
1897,1941,1894
1898,1952,1925
1857,1900,1810
1846,1897,1786
1911,1968,1889
1861,1971,1909
1831,1925,1837
1867,1932,1817
1904,2013,1913
1895,1968,1919
1876,1899,1808
1858,1933,1792
1935,2055,1905
1904,2095,1937
1845,2031,1825
1847,2039,1792
1897,2113,1890
1899,2150,1930
1837,2111,1847
1919,2103,1818
1905,2171,1910
1871,2176,1925
1857,2102,1823
1883,2090,1813
1924,2163,1925
1884,2160,1949
1846,2071,1834
1914,2085,1831
1914,2163,1933
1871,2115,1934
1851,2023,1803
1829,2025,1805
1899,2103,1925
1898,2090,1937
1777,2007,1812
1840,1964,1808
1894,2024,1919
1923,2059,1947
1897,2004,1851
1760,1993,1840
1630,2027,1905
1780,2014,1915
1837,1930,1808
1437,1957,1797
451,1999,1915
0,1986,1941
0,1925,1837
0,1919,1812
0,2001,1936
0,2002,1968
290,1911,1830
1587,1868,1795
2112,1913,1892
1999,1938,1927
1834,1875,1815
1796,1867,1793
1821,1918,1888
1826,1936,1935
1834,1869,1835
1841,1859,1809
1837,1917,1906
1830,1925,1927
1861,1867,1824
1834,1840,1809
1840,1920,1919
1834,1916,1909
1823,1806,1814
1967,1797,1789
1821,1871,1887
1812,1890,1938
1711,1842,1837
1735,1831,1812
1885,1862,1904
1846,1874,1940
1838,1819,1827
1842,1810,1806
1825,1862,1909
1834,1862,1935
1834,1802,1829
1839,1790,1794
1837,1826,1888
1814,1837,1919
1796,1782,1818
1824,1758,1808
1911,1895,1936
1871,1885,1936
1721,1766,1819
1920,1800,1855
1979,1891,1970
1781,1822,1900
1738,1735,1780
1781,1744,1776
1894,1814,1878
1821,1821,1898
1744,1761,1792
1789,1783,1802
1838,1838,1921
1855,1818,1936
1825,1741,1834
1840,1729,1805
1808,1804,1889
1808,1821,1919
1808,1759,1829
1783,1744,1806
1845,1798,1886
1837,1808,1908
1822,1765,1840
1833,1753,1819
1875,1805,1901
1839,1808,1929
1825,1744,1824
1799,1742,1803
1856,1780,1877
1911,1813,1935
1856,1755,1840
1810,1712,1775
1843,1760,1859
1847,1773,1899
1829,1722,1819
1840,1712,1804
1866,1767,1875
1789,1767,1907
1826,1708,1827
1866,1701,1815
1872,1750,1895
1859,1745,1911
1920,1680,1823
1851,1664,1805
1865,1730,1901
1839,1742,1925
1808,1676,1811
1842,1670,1799
1879,1728,1901
1872,1733,1918
1845,1677,1814
1783,1670,1787
1872,1725,1891
1851,1725,1910
1881,1667,1805
1863,1665,1775
1897,1699,1859
1875,1714,1891
1844,1660,1808
1870,1654,1792
1892,1711,1870
1878,1721,1895
1858,1666,1797
1883,1663,1791
1904,1712,1872
1889,1712,1885
1857,1654,1785
1887,1659,1776
1911,1708,1872
1895,1712,1887
1861,1659,1796
1878,1659,1776
1908,1695,1862
1904,1701,1879
1878,1653,1808
1901,1663,1782
1917,1729,1872
1907,1710,1901
1889,1648,1802
1894,1648,1776
1907,1703,1872
1907,1711,1914
1891,1655,1831
1913,1661,1808
1931,1706,1891
1913,1719,1920
1890,1661,1827
1911,1665,1808
1931,1715,1894
1920,1716,1920
1898,1665,1840
1906,1657,1825
1925,1712,1902
1911,1728,1934
1902,1682,1851
1915,1680,1818
1920,1689,1897
1905,1710,1935
1901,1674,1847
1915,1667,1827
1923,1711,1904
1919,1728,1915
1888,1680,1831
1918,1675,1822
1938,1722,1913
1931,1731,1934
1916,1683,1853
1934,1667,1829
1935,1717,1908
1911,1729,1935
1894,1680,1840
1915,1678,1827
1941,1725,1917
1923,1735,1950
1913,1684,1866
1922,1679,1833
1936,1723,1893
1934,1733,1941
1923,1690,1863
1935,1685,1837
1952,1727,1915
1949,1736,1947
1933,1698,1862
1942,1693,1831
1949,1717,1903
1934,1728,1929
1929,1680,1872
1951,1677,1851
1964,1722,1935
1941,1733,1943
1986,1680,1846
1946,1671,1825
1964,1717,1919
1943,1729,1954
1921,1680,1856
1940,1671,1835
1954,1724,1922
1954,1735,1952
1943,1686,1872
1952,1680,1842
1962,1719,1906
1950,1718,1938
1939,1667,1868
1953,1663,1840
1959,1711,1917
1948,1715,1938
1941,1679,1867
1968,1680,1855
1974,1702,1930
1964,1708,1935
1941,1663,1853
1958,1660,1850
1984,1718,1936
1977,1744,1965
1968,1680,1863
1981,1665,1840
1996,1702,1908
1981,1718,1927
1973,1687,1858
1997,1684,1850
2005,1719,1921
1987,1732,1942
1977,1681,1858
2003,1673,1839
2003,1712,1903
1990,1728,1931
1998,1711,1878
2025,1695,1864
2023,1719,1919
2001,1731,1936
2000,1700,1866
2032,1684,1847
2032,1726,1921
2006,1733,1939
2003,1706,1871
2018,1701,1847
2027,1722,1920
2000,1728,1948
2000,1697,1865
2024,1683,1836
2026,1726,1904
2000,1735,1944
2005,1699,1875
2032,1705,1852
2017,1744,1914
1985,1753,1933
1989,1712,1856
2028,1708,1839
2019,1744,1893
1999,1744,1919
1999,1710,1853
2018,1707,1833
2030,1746,1903
2019,1757,1936
2001,1726,1862
2027,1725,1826
2027,1743,1895
2000,1747,1920
1999,1723,1855
2016,1718,1821
2009,1744,1884
2000,1771,1921
2002,1744,1850
2015,1739,1828
2012,1746,1884
1984,1755,1900
1984,1728,1825
2002,1753,1803
2001,1728,1864
1986,1721,1891
1987,1744,1828
2013,1793,1817
2001,1795,1895
1972,1726,1906
1967,1745,1831
1995,1703,1814
1993,1776,1874
1968,1739,1906
1968,1792,1841
1985,1756,1822
1983,1817,1882
1954,1775,1909
1954,1727,1835
1975,1746,1806
1983,1751,1877
1973,1818,1916
1966,1773,1840
1984,1776,1825
1989,1808,1900
1968,1808,1927
1963,1765,1847
1991,1775,1825
1991,1803,1906
1955,1855,1906
1949,1787,1837
1994,1782,1824
1995,1811,1890
1965,1815,1914
1961,1805,1837
1971,1788,1808
1969,1811,1866
1951,1787,1895
1952,1781,1831
1965,1796,1801
1962,1834,1870
1932,1829,1901
1934,1797,1839
1954,1803,1810
1959,1833,1881
1945,1855,1914
1943,1814,1840
1968,1793,1811
1967,1834,1867
1938,1852,1897
1938,1813,1831
1955,1814,1801
1954,1851,1879
1936,1859,1904
1946,1820,1825
1962,1760,1805
1949,1853,1875
1934,1841,1898
1936,1861,1821
1959,1825,1792
1956,1888,1856
1933,1878,1894
1926,1867,1815
1946,1805,1797
1941,1887,1867
1924,1843,1874
1918,1765,1803
1935,1866,1791
1932,1868,1867
1920,1840,1892
1925,1850,1833
1952,1844,1811
1942,1873,1874
1915,1851,1898
1902,1810,1819
1920,1838,1797
1937,1872,1871
1927,1887,1894
1921,1842,1821
1936,1834,1801
1930,1867,1861
1909,1872,1888
1914,1845,1811
1934,1838,1794
1932,1869,1863
1906,1878,1888
1897,1840,1824
1905,1840,1793
1910,1870,1856
1904,1899,1894
1894,1817,1822
1911,1808,1799
1910,1915,1855
1890,1906,1889
1891,1936,1808
1916,1852,1791
1923,1945,1870
1906,1969,1904
1888,1877,1809
1905,1850,1787
1902,1901,1849
1888,1900,1874
1878,1872,1808
1909,1857,1798
1907,1898,1866
1876,1903,1892
1872,1838,1808
1893,1853,1785
1905,1894,1863
1887,1914,1891
1874,1878,1811
1903,1888,1790
1894,1887,1867
1881,1867,1907
1877,1835,1824
1895,1865,1793
1893,1951,1869
1869,1904,1904
1873,1925,1808
1897,1872,1776
1887,1893,1856
1862,1910,1888
1872,1874,1809
1899,1797,1800
1891,1872,1875
1881,1867,1904
1887,1906,1817
1913,1807,1795
1904,1910,1864
1862,1881,1887
1863,1826,1824
1904,1902,1803
1890,1888,1856
1850,1840,1872
1859,1831,1820
1882,1938,1794
1872,1858,1844
1853,1845,1897
1857,1754,1830
1889,1904,1792
1873,1889,1840
1827,1802,1853
1840,1715,1808
1890,1807,1781
1871,1791,1837
1846,1815,1872
1849,1803,1821
1867,1840,1774
1865,1817,1825
1833,1873,1879
1840,1895,1810
1852,1781,1747
1840,1738,1810
1834,1872,1862
1840,1811,1827
1840,1787,1761
1839,1688,1809
1825,1744,1863
1822,1811,1801
1855,1959,1792
1840,1815,1823
1797,1695,1843
1808,1680,1791
1838,1776,1769
1826,1807,1845
1811,1773,1872
1824,1755,1813
1841,1859,1805
1837,1795,1845
1808,1803,1872
1791,1689,1761
1819,1691,1749
1815,1735,1815
1807,1763,1859
1825,1840,1829
1840,1870,1803
1824,1798,1841
1821,1808,1859
1809,1755,1783
1840,1773,1739
1843,1889,1837
1837,1799,1881
1808,1626,1807
1989,1853,1777
1846,1875,1831
1730,1790,1857
1746,1759,1789
1890,1870,1747
1850,1803,1829
1797,1757,1872
1808,1786,1781
1845,1749,1769
1857,1815,1808
1827,1833,1845
1835,1767,1787
1855,1776,1755
1837,1850,1818
1810,1856,1852
1809,1872,1774
1838,1842,1734
1851,1855,1820
1835,1863,1852
1829,1797,1744
1903,1826,1751
1919,1835,1734
1797,1775,1826
1872,1729,1773
1929,1905,1666
1726,1901,1808
1692,1824,1862
1744,1776,1741
1789,1811,1675
1797,1876,1776
1783,1889,1830
1795,1923,1744
1776,1787,1643
1700,1741,1726
1663,1819,1746
1781,1872,1646
1727,1968,1554
1634,1869,1765
1579,1789,1786
1613,1776,1671
1998,1923,1511
1769,1843,1570
1408,1726,1731
1397,1735,1657
1522,1818,1618
1691,1932,1617
1535,1819,1553
1450,1677,1597
1488,1714,1597
1535,1797,1670
1677,2001,1638
1478,1799,1565
1453,1616,1583
1503,1761,1666
1525,1872,1680
1529,1875,1472
1502,1729,1565
1520,1797,1701
1520,1827,1711
1498,1795,1623
1501,1808,1610
1497,1871,1684
1446,1882,1651
1458,1824,1610
1494,1819,1587
1491,1871,1671
1437,1877,1676
1386,1891,1602
1373,1757,1561
1392,1783,1672
1355,1870,1706
1325,1866,1651
1319,1841,1657
1329,1829,1711
1276,1900,1705
1245,1848,1630
1269,1779,1663
1291,1894,1764
1271,1959,1758
1247,1861,1646
1340,1769,1606
1282,1872,1727
1198,1904,1748
1202,1809,1715
1232,1813,1661
1264,1930,1765
1239,1936,1808
1232,1951,1712
1287,1920,1685
1319,1940,1823
1252,1823,1773
1233,1778,1658
1293,1839,1681
1296,1983,1775
1231,1941,1787
1225,2007,1683
1259,1923,1694
1229,1766,1811
1217,1819,1904
1293,1889,1779
1318,1990,1675
1167,1979,1723
1142,1841,1815
1185,1858,1759
1235,1893,1744
1221,1885,1808
1202,1855,1839
1213,1911,1760
1251,1913,1723
1268,1907,1815
1242,1943,1838
1217,1916,1759
1226,1818,1664
1245,1888,1781
1264,1958,1851
1259,1915,1770
1312,1905,1776
1364,1972,1866
1239,1947,1856
1193,1729,1718
1235,1843,1701
1296,1962,1855
1287,1968,1871
1282,1914,1761
1294,1875,1698
1334,1946,1827
1326,1987,1900
1290,1899,1826
1298,1797,1722
1328,1852,1765
1331,1941,1849
1328,1887,1750
1361,1936,1730
1402,2039,1830
1399,2097,1909
1351,1768,1766
1359,1765,1708
1374,1919,1840
1358,1968,1920
1359,1885,1810
1375,1835,1774
1411,1937,1791
1408,2025,1833
1402,1991,1796
1392,1934,1729
1417,1869,1806
1411,1934,1808
1403,1892,1823
1441,1861,1760
1467,1919,1872
1443,1913,1891
1438,1961,1843
1475,1891,1771
1467,1946,1786
1456,1877,1850
1437,1902,1808
1472,1895,1775
1493,1997,1767
1490,1909,1878
1465,1808,1834
1488,1868,1792
1513,1954,1845
1518,2011,1895
1504,1885,1827
1535,1923,1805
1555,1973,1891
1518,1915,1887
1507,1843,1817
1535,1869,1779
1583,1968,1839
1555,1959,1889
1535,1897,1856
1579,1906,1835
1576,2011,1877
1529,1826,1904
1561,1855,1834
1598,1917,1802
1602,1936,1872
1597,1920,1926
1580,1906,1855
1606,1927,1776
1637,1905,1884
1584,1861,1900
1577,1920,1829
1619,1873,1838
1637,1897,1925
1611,1967,1914
1602,1903,1830
1645,1875,1802
1666,1925,1868
1643,2000,1941
1624,1901,1863
1667,1840,1841
1690,1891,1904
1654,1957,1943
1629,1920,1858
1673,1871,1776
1705,1986,1907
1683,2029,1936
1681,1915,1872
1693,1866,1738
1733,1879,1856
1696,1893,1947
1668,1852,1856
1693,1865,1850
1729,1951,1899
1730,2033,1977
1699,1925,1826
1735,1874,1872
1754,1919,1881
1719,1936,1909
1715,1847,1837
1747,1837,1814
1776,1958,1889
1759,1954,1940
1730,1856,1831
1782,1876,1841
1819,2064,1966
1770,1980,1937
1741,1867,1780
1786,1836,1814
1790,1895,1878
1777,1935,1948
1767,1875,1843
1806,1867,1817
1806,1921,1930
1786,1930,1963
1783,1922,1885
1835,2005,1840
1845,1947,1904
1815,1948,1954
1787,1792,1843
1823,1855,1829
1843,2007,1869
1826,1981,1972
1799,1807,1904
1833,1856,1833
1858,2000,1904
1852,1983,1954
1829,1857,1863
1869,1882,1855
1881,1904,1936
1851,1897,1949
1831,1862,1855
1855,1872,1825
1895,1943,1887
1883,1951,1999
1857,1950,1840
1872,1931,1861
1889,1935,1859
1862,1935,1927
1842,1857,1890
1872,1885,1811
1897,1993,1873
1885,1936,1917
1882,1846,1850
1890,1815,1838
1905,1956,1875
1904,2060,1918
1870,1872,1872
1915,1904,1857
1936,1867,1861
1914,1927,1939
1890,1878,1883
1927,1953,1837
1926,1937,1889
1933,1936,1963
1906,1915,1872
1897,1859,1803
1917,1872,1845
1927,1925,1957
1904,1875,1869
1914,1941,1830
1949,1941,1931
1944,1871,1971
1922,1856,1869
1935,1845,1840
1950,2029,1932
1942,2000,1953
1920,1859,1865
1938,1795,1839
1955,1878,1941
1934,2030,1957
1918,1919,1855
1941,1825,1798
1970,1863,1898
1955,1872,1932
1923,1911,1851
1941,1920,1828
1959,1975,1911
1951,1905,1947
1920,1881,1872
1950,1879,1842
1962,1875,1923
1946,1954,1943
1927,1870,1879
1933,1841,1840
1970,1887,1917
1963,1933,1964
1940,1894,1893
1959,1863,1849
1994,2012,1936
1953,1955,1918
1936,1750,1837
1957,1775,1840
1971,1941,1942
1958,1951,1939
1939,1826,1858
1949,1818,1808
1984,1885,1911
1967,1991,1952
1931,1808,1839
1954,1808,1808
1998,1935,1926
1967,1954,1955
1951,1931,1875
1978,1847,1836
1975,1904,1903
1962,1904,1952
1969,1856,1902
1974,1870,1840
1972,1871,1875
1963,1903,1903
1950,1830,1851
1978,1879,1846
1987,1909,1925
1966,1919,1936
1953,1878,1841
1981,1903,1809
1987,1919,1917
2002,1893,1950
1995,1883,1879
1994,1885,1815
1974,1829,1895
1968,1863,1921
1968,1805,1840
1991,1831,1829
1962,1923,1869
2015,1985,1942
1968,1863,1879
1939,1802,1831
1987,1894,1908
2022,1994,1965
1941,1852,1852
1943,1840,1822
2030,1896,1897
1954,1905,1904
1955,1827,1830
1986,1789,1822
1995,1936,1905
1984,1941,1930
1968,1856,1830
1984,1868,1802
1993,1891,1894
1985,1901,1924
1955,1852,1823
2023,1919,1818
2095,1959,1921
1970,1837,1915
2003,1808,1839
1984,1829,1821
2026,1916,1910
2003,1934,1947
1923,1831,1846
1993,1833,1789
2019,1894,1900
2030,1984,1986
1983,1949,1872
1983,1773,1795
1983,1881,1870
1985,1871,1922
1973,1817,1843
1958,1844,1822
1995,1841,1910
1993,1945,1968
1981,1923,1875
2009,2033,1849
1993,1851,1886
1957,1744,1888
1941,1763,1818
2030,1863,1800
1967,1903,1877
1961,1904,1936
1973,1825,1875
1994,1905,1868
2054,1975,1919
2014,1900,1908
1937,1844,1812
1920,1846,1808
1955,1847,1899
2000,1957,1938
1940,1836,1854
1968,1779,1797
1973,1856,1879
1962,1918,1930
1941,1846,1839
1973,1871,1803
2000,1891,1902
1979,2012,1938
1953,1839,1811
1996,1792,1773
1995,1891,1889
1970,1925,1947
1969,1904,1874
1982,1920,1795
1988,1959,1872
1969,1840,1936
1959,1744,1828
1979,1856,1808
1991,1951,1888
1987,1971,1937
1968,1954,1851
1969,1838,1792
1975,1822,1862
1976,1893,1926
1961,1883,1835
2013,1894,1779
2018,1882,1847
2011,1893,1924
1904,1906,1847
1975,1927,1802
1984,1835,1882
1975,1943,1921
1968,2041,1853
1958,1858,1818
2000,1777,1877
1975,1819,1903
1955,1829,1845
2001,1901,1851
1985,1905,1878
1951,1891,1898
1946,1817,1814
1990,1819,1795
1995,1965,1886
1957,1953,1915
1931,1838,1815
1968,1808,1813
1954,1904,1891
1967,1991,1923
1886,1839,1809
1933,1758,1799
1984,1872,1879
1917,1968,1915
1906,1826,1795
1925,1810,1746
1999,1870,1873
2014,1905,1933
1911,1867,1830
1936,1893,1789
1998,2011,1895
2053,2032,1951
1921,1776,1808
1972,1730,1749
1936,1847,1857
1925,1947,1943
1962,1903,1838
1964,1881,1788
1961,1904,1844
1936,1925,1900
1909,1847,1820
1954,1874,1791
1965,1922,1883
1951,1901,1931
1906,1873,1808
1879,1851,1751
1966,1988,1863
1921,1938,1933
1915,1927,1819
1936,1847,1777
1968,1967,1877
1936,1934,1935
1904,1839,1823
1933,1830,1775
1942,1843,1858
1942,1903,1901
1917,1890,1833
1946,1815,1807
1938,1885,1866
1935,2033,1920
1915,1968,1819
1904,1754,1745
1927,1788,1827
1898,1882,1889
1895,1881,1836
1922,1866,1774
1942,1936,1865
1984,1899,1910
1923,1842,1857
1965,1902,1819
1944,2000,1878
1930,1922,1887
1878,1780,1795
1903,1795,1748
1938,1911,1862
1936,1983,1933
1903,1848,1807
1915,1831,1744
1939,1852,1827
1937,1903,1905
1915,1890,1826
1931,1902,1789
1927,1878,1847
1920,1883,1902
1914,1867,1847
1926,1845,1807
1937,1915,1872
1936,2052,1927
1901,1838,1809
1911,1846,1750
1933,1859,1824
1930,1925,1885
1904,1847,1820
1929,1903,1791
1955,1926,1881
1917,1890,1907
1858,1787,1778
1902,1792,1778
1957,1899,1919
1929,2018,1923
1891,1872,1808
1905,1843,1787
1931,1859,1859
1909,1888,1889
1886,1842,1805
1926,1863,1787
1954,1922,1885
1926,1952,1910
1874,1894,1803
1902,1857,1783
1939,1830,1872
1910,1894,1914
1878,1887,1808
1886,1851,1776
1915,1923,1867
1918,1917,1906
1904,1893,1830
1909,1807,1776
1917,1823,1840
1891,1938,1893
1877,1931,1833
1915,1981,1808
1916,1946,1844
1894,1929,1890
1887,1938,1823
1902,1906,1785
1915,1939,1872
1904,1984,1907
1890,1915,1815
1904,1887,1785
1907,2019,1841
1894,2091,1894
1863,1919,1801
1902,1857,1794
1925,1906,1862
1909,2121,1917
1873,1981,1825
1877,2000,1764
1884,2057,1842
1886,2105,1904
1869,2023,1797
1897,2071,1778
1922,2187,1883
1904,2151,1915
1872,2113,1823
1899,2096,1771
1925,2190,1851
1876,2311,1865
1857,2174,1824
1891,2178,1810
1904,2225,1855
1894,2233,1924
1855,2207,1809
1902,2123,1790
1915,2197,1853
1872,2234,1863
1857,2171,1822
1898,2207,1811
1917,2219,1886
1884,2233,1883
1870,2199,1815
1891,2198,1799
1902,2265,1872
1854,2159,1871
1847,2114,1802
1882,2162,1777
1899,2259,1883
1872,2288,1897
1857,2189,1802
1890,2255,1792
1894,2222,1873
1871,2217,1904
1850,2132,1808
1878,2134,1774
1904,2177,1840
1888,2228,1904
1871,2156,1823
1895,2266,1790
1901,2242,1845
1874,2209,1894
1856,2100,1814
1891,2177,1807
1904,2187,1872
1882,2215,1893
1864,2201,1819
1883,2094,1778
1904,2130,1867
1890,2274,1909
1859,2165,1813
1864,2046,1758
1885,2105,1871
1882,2237,1909
1870,2192,1808
1877,2139,1780
1886,2126,1840
1870,2093,1901
1857,2081,1833
1893,2102,1824
1911,2143,1894
1884,2257,1936
1853,2041,1817
1872,1955,1790
1909,2158,1897
1900,2167,1919
1843,1971,1777
1863,1998,1747
1896,2078,1856
1884,2095,1923
1866,1977,1825
1882,2011,1776
1905,2130,1866
1889,2140,1925
1859,1986,1817
1885,1941,1776
1890,1983,1856
1881,2087,1924
1851,2006,1824
1875,1946,1776
1898,2009,1851
1887,2009,1903
1866,1987,1822
1879,1963,1776
1888,1983,1843
1889,2070,1910
1868,1987,1825
1883,1894,1783
1904,1936,1872
1883,2084,1895
1859,1859,1790
1870,1871,1776
1890,1872,1858
1885,1984,1903
1869,1971,1811
1872,1939,1774
1889,1938,1843
1882,1953,1904
1874,1919,1840
1872,1925,1786
1891,1919,1862
1862,1847,1904
1838,1805,1799
1873,1873,1781
1903,1996,1881
1877,1951,1921
1860,1847,1839
1879,1824,1773
1887,1871,1843
1867,1987,1918
1857,1901,1853
1886,1804,1806
1899,1893,1872
1875,1906,1920
1858,1949,1836
1895,1986,1823
1885,1887,1875
1871,1801,1920
1851,1825,1829
1872,1870,1798
1889,1893,1868
1858,1863,1895
1846,1792,1830
1867,1840,1808
1890,2038,1901
1883,1961,1942
1856,1731,1836
1861,1673,1774
1878,1840,1872
1872,1927,1931
1853,1849,1843
1869,1819,1803
1886,1903,1888
1883,1872,1939
1857,1753,1823
1872,1817,1792
1882,1863,1881
1885,1922,1967
1857,1826,1843
1877,1879,1781
1884,1775,1862
1872,1872,1927
1838,1865,1830
1853,1703,1781
1881,1865,1891
1862,1874,1930
1842,1714,1841
1847,1829,1772
1875,1855,1840
1861,2000,1908
1854,1794,1861
1872,1781,1817
1904,1865,1874
1868,1808,1889
1853,1743,1836
1858,1779,1782
1878,1808,1862
1867,1808,1902
1839,1856,1823
1845,1824,1794
1872,1856,1874
1847,1842,1901
1842,1880,1817
1854,1834,1789
1861,1814,1872
1865,1881,1916
1843,1839,1808
1840,1776,1762
1872,1876,1876
1870,1759,1942
1840,1712,1831
1857,1793,1777
1882,1897,1885
1861,1858,1932
1837,1747,1821
1857,1795,1778
1884,1807,1873
1872,1879,1904
1843,1808,1825
1858,1845,1791
1862,1840,1840
1840,1789,1886
1828,1771,1824
1856,1767,1812
1884,1936,1895
1859,1840,1898
1830,1735,1809
1856,1776,1787
1875,1771,1857
1867,1839,1904
1859,1775,1835
1872,1867,1792
1872,1902,1839
1863,1840,1903
1828,1697,1811
1842,1730,1775
1881,1813,1851
1856,1792,1875
1826,1775,1820
1853,1744,1831
1890,1920,1907
1856,1847,1896
1817,1799,1804
1839,1685,1771
1872,1840,1872
1856,1838,1909
1843,1687,1837
1849,1785,1777
1867,1969,1847
1852,1839,1901
1822,1722,1800
1841,1706,1793
1872,1773,1889
1856,1894,1891
1823,1733,1812
1850,1792,1789
1872,1935,1871
1856,1840,1920
1813,1717,1819
1834,1789,1766
1860,1744,1840
1859,1861,1913
1837,1837,1821
1849,1854,1790
1871,1795,1860
1853,1802,1906
1829,1799,1820
1858,1775,1804
1871,1866,1869
1855,1915,1916
