1857,1837,1785
1898,1890,1841
1891,1967,1918
1856,1914,1887
1863,1840,1806
1901,1914,1840
1885,1966,1898
1850,1846,1872
1855,1787,1787
1878,1891,1827
1893,1931,1927
1857,1874,1885
1863,1856,1801
1889,1936,1839
1893,1943,1918
1856,1835,1855
1846,1818,1776
1874,1915,1851
1881,1941,1921
1857,1884,1881
1859,1831,1786
1895,1891,1846
1888,1940,1929
1858,1919,1893
1854,1840,1793
1886,1883,1845
1886,1988,1942
1857,1904,1906
1841,1822,1787
1872,1786,1809
1882,1872,1921
1857,1906,1869
1850,1886,1779
1872,1867,1834
1887,1913,1927
1869,1954,1904
1860,1869,1813
1879,1801,1847
1900,1920,1908
1845,1966,1867
1838,1771,1805
1859,1855,1822
1837,1949,1926
1854,1821,1890
1878,1778,1807
1853,1884,1838
1835,1964,1913
1878,1910,1859
1882,1881,1796
1900,1921,1845
1888,1883,1915
1891,1813,1872
1856,1793,1791
1879,1894,1849
1903,1942,1937
1856,1879,1863
1872,1815,1794
1897,1872,1851
1904,1934,1953
1869,1931,1905
1858,1836,1788
1887,1845,1829
1893,1931,1936
1858,1935,1895
1872,1815,1790
1856,1935,1839
1894,1906,1934
1867,1818,1879
1856,1798,1795
1893,1939,1855
1891,2039,1930
1808,1843,1855
1831,1755,1774
1872,1844,1840
1880,1961,1938
1863,1920,1890
1850,1825,1803
1887,1840,1841
1865,1954,1933
1844,1962,1874
1840,1881,1779
1871,1857,1823
1889,1887,1927
1859,1884,1885
1861,1831,1798
1872,1841,1833
1879,1915,1905
1879,1936,1856
1875,1888,1797
1834,1815,1830
1822,1856,1907
1904,1935,1866
1826,1878,1785
1935,1891,1823
1871,1862,1920
1899,1891,1881
1826,1856,1799
1903,1895,1841
1870,1874,1936
1879,1893,1872
1814,1839,1765
1882,1873,1814
1868,1918,1925
1866,1843,1874
1860,1936,1808
1885,1930,1823
1869,1909,1899
1871,1777,1854
1848,1764,1789
1860,1857,1840
1908,1924,1916
1861,1902,1871
1846,1828,1774
1894,1886,1840
1875,1926,1913
1852,1918,1866
1862,1874,1778
1872,1863,1817
1865,1867,1913
1840,1917,1867
1851,1887,1786
1874,1872,1823
1876,1942,1921
1883,1887,1872
1810,1818,1782
1875,1843,1821
1856,1901,1917
1824,1875,1866
1808,1808,1776
1883,1811,1829
1946,1869,1930
1863,1936,1872
1916,1867,1767
1902,1875,1821
1872,1909,1919
1862,1893,1889
1875,1842,1809
1872,1895,1819
1872,1984,1903
1843,1836,1851
1847,1765,1769
1872,1787,1814
1874,1930,1926
1858,1930,1879
1851,1805,1766
1872,1831,1803
1835,1922,1904
1824,1885,1872
1803,1856,1776
1851,1879,1822
1865,1958,1911
1786,1933,1887
1828,1762,1780
1837,1802,1789
1870,1945,1900
1860,1917,1857
1842,1785,1776
1872,1878,1840
1872,1936,1929
1853,1856,1869
1872,1851,1761
1859,1866,1810
1841,1877,1920
1872,1860,1883
1821,1808,1792
1851,1853,1808
1895,1926,1937
1872,1891,1872
1750,1803,1746
1904,1883,1823
1875,1986,1936
1867,1856,1895
1854,1872,1778
1953,1873,1810
1904,1843,1907
1826,1884,1897
1851,1838,1787
1869,1842,1805
1872,1904,1895
1853,1905,1867
1858,1873,1780
1875,1877,1840
1904,1910,1913
1856,1887,1871
1894,1779,1779
1874,1852,1825
1857,1929,1917
1842,1905,1858
1826,1855,1786
1955,1873,1845
1919,1890,1903
1834,1840,1855
1810,1805,1767
1872,1842,1810
1886,1945,1915
1863,1969,1873
1905,1727,1766
1955,1778,1811
1878,1893,1894
1857,1889,1877
1855,1840,1793
1873,1904,1818
1874,1925,1881
1840,1855,1854
1831,1788,1776
1872,1830,1825
1873,1917,1907
1840,1904,1847
1856,1826,1791
1888,1931,1825
1872,1959,1895
1835,1830,1850
1839,1728,1763
1879,1778,1793
1876,1912,1883
1842,1913,1857
1840,1827,1773
1878,1855,1831
1879,1914,1923
1840,1891,1866
1851,1857,1776
1891,1843,1813
1874,1904,1882
1850,1930,1891
1854,1854,1802
1888,1879,1841
1872,1886,1904
1844,1879,1856
1856,1829,1783
1875,1872,1797
1872,1858,1885
1854,1840,1877
1855,1887,1792
1882,1918,1819
1894,1977,1921
1841,1872,1840
1831,1765,1743
1866,1802,1812
1883,1872,1920
1850,1910,1882
1853,1825,1789
1872,1821,1811
1886,1919,1901
1841,1837,1851
1838,1791,1754
1879,1952,1813
1872,1945,1910
1841,1855,1856
1841,1810,1757
1876,1805,1812
1872,1871,1895
1840,1842,1838
1847,1828,1760
1871,1904,1814
1877,1943,1931
1857,1899,1872
1850,1801,1767
1865,1820,1811
1872,1886,1904
1840,1891,1845
1847,1859,1753
1889,1894,1829
1887,1925,1918
1856,1856,1851
1835,1825,1746
1871,1881,1811
1875,1891,1887
1835,1808,1826
1834,1786,1749
1872,1872,1808
1879,1983,1901
1852,1879,1853
1841,1824,1782
1873,1883,1825
1872,1873,1879
1838,1833,1833
1845,1845,1770
1877,1896,1853
1866,1942,1899
1840,1857,1834
1845,1802,1766
1872,1850,1837
1877,1859,1905
1835,1877,1852
1841,1903,1769
1867,1888,1802
1891,1941,1909
1861,1846,1862
1851,1777,1759
1884,1914,1805
1875,1943,1918
1843,1893,1878
1869,1760,1755
1872,1789,1791
1872,1938,1901
1839,1865,1859
1831,1838,1765
1875,1890,1834
1879,1923,1902
1853,1869,1870
1840,1841,1791
1872,1905,1827
1882,2001,1936
1855,1871,1872
1841,1783,1771
1870,1846,1791
1881,1907,1909
1856,1894,1872
1854,1840,1785
1870,1899,1807
1882,1904,1903
1850,1847,1868
1856,1850,1774
1894,1899,1829
1891,1990,1909
1858,1871,1865
1845,1833,1787
1872,1835,1821
1865,1943,1909
1856,1830,1846
1835,1757,1745
1866,1811,1785
1870,1908,1911
1861,1888,1897
1858,1829,1803
1882,1855,1813
1875,1926,1872
1845,1904,1843
1850,1862,1781
1879,1875,1808
1879,1889,1889
1859,1895,1881
1843,1838,1767
1887,1877,1822
1898,1936,1919
1855,1857,1856
1845,1795,1762
1874,1853,1827
1895,1988,1909
1859,1873,1859
1858,1711,1776
1888,1853,1808
1894,1959,1906
1851,1922,1861
1840,1837,1758
1865,1841,1791
1872,1977,1904
1855,1872,1862
1851,1759,1776
1873,1875,1821
1861,1904,1890
1827,1863,1844
1841,1817,1773
1880,1818,1822
1887,1886,1895
1858,1898,1857
1844,1870,1779
1872,1887,1828
1875,1908,1920
1856,1843,1875
1862,1847,1793
1877,1892,1828
1862,1886,1883
1843,1859,1870
1853,1831,1773
1867,1824,1821
1870,1904,1908
1850,1885,1874
1840,1826,1789
1872,1856,1836
1884,1935,1963
1854,1869,1839
1853,1872,1781
1872,1885,1872
1892,1987,1970
1855,1886,1872
1856,1734,1809
1872,1775,1835
1877,1881,1923
1856,1840,1887
1852,1842,1777
1883,1927,1875
1882,1923,1904
1845,1847,1858
1845,1818,1821
1885,1894,1860
1883,1984,1914
1863,1931,1867
1842,1745,1767
1872,1776,1756
1875,1872,1862
1872,1909,1872
1862,1840,1793
1877,1904,1840
1870,1940,1891
1838,1880,1810
1845,1837,1774
1879,1904,1841
1880,1983,1907
1856,1954,1855
1839,1817,1759
1855,1751,1809
1868,1881,1929
1853,1885,1871
1849,1842,1773
1869,1856,1850
1881,1938,1904
1852,1879,1838
1841,1813,1757
1875,1861,1798
1892,1939,1908
1866,1904,1887
1855,1830,1808
1872,1874,1808
1890,1949,1916
1857,1915,1906
1850,1874,1795
1878,1936,1827
1883,1853,1890
1850,1853,1904
1824,1741,1712
1863,1842,1827
1884,1977,1945
1845,1901,1822
1833,1797,1766
1871,1831,1821
1883,1927,1970
1861,1988,1875
1840,1856,1808
1871,1799,1822
1874,1906,1918
1843,1877,1857
1843,1821,1787
1874,1886,1833
1874,1924,1918
1855,1865,1882
1852,1856,1771
1872,1831,1808
1870,1883,1913
1845,1873,1877
1843,1831,1794
1879,1895,1870
1898,1887,1948
1852,1866,1869
1843,1905,1779
1866,1946,1823
1870,1917,1909
1851,1851,1856
1846,1808,1763
1874,1856,1867
1875,1956,1891
1847,1874,1863
1843,1783,1771
1867,1828,1835
1878,1930,1906
1843,1918,1863
1840,1818,1777
1878,1905,1813
1866,1885,1903
1835,1891,1853
1837,1843,1769
1869,1859,1772
1867,1895,1871
1841,1842,1909
1840,1763,1778
1872,1838,1825
1876,1904,1927
1840,1909,1906
1841,1854,1855
1866,1873,1819
1861,1931,1905
1840,1872,1877
1837,1820,1782
1874,1824,1829
1879,1923,1922
1842,1923,1866
1831,1869,1755
1869,1867,1844
1872,1901,1927
1849,1936,1902
1823,1797,1778
1859,1794,1840
1872,1909,1918
1841,1878,1854
1830,1802,1775
1861,1879,1843
1857,1951,1931
1837,1865,1872
1831,1793,1760
1872,1838,1834
1881,1970,1955
1840,1920,1834
1839,1798,1776
1869,1809,1799
1867,1903,1952
1840,1904,1889
1841,1849,1824
1859,1880,1818
1877,1954,1939
1856,1904,1903
1840,1758,1775
1854,1834,1803
1869,1968,1903
1859,1895,1861
1849,1808,1781
1879,1859,1846
1872,1911,1912
1840,1856,1837
1840,1823,1748
1862,1824,1852
1870,1871,1950
1840,1913,1881
1845,1866,1809
1889,1885,1831
1872,1925,1911
1840,1872,1861
1844,1858,1767
1873,1903,1827
1873,1928,1922
1855,1946,1904
1854,1808,1804
1874,1855,1871
1865,1840,1903
1841,1851,1846
1856,1836,1775
1877,1845,1811
1883,1913,1954
1861,1857,1877
1843,1878,1787
1870,1873,1807
1885,1937,1933
1856,1886,1889
1838,1884,1789
1863,1888,1793
1874,1859,1947
1846,1874,1906
1853,1824,1827
1884,1901,1808
1878,1872,1918
1840,1864,1845
1839,1831,1815
1883,1867,1846
1887,1911,1970
1859,1927,1866
1840,1851,1744
1870,1842,1799
1882,1902,1924
1854,1824,1868
1841,1788,1793
1872,1882,1819
1882,1984,1925
1844,1905,1899
1840,1808,1806
1861,1834,1857
1866,1888,1897
1843,1887,1886
1836,1856,1763
1872,1840,1806
1871,1924,1900
1854,1904,1844
1841,1808,1789
1863,1824,1801
1871,1910,1905
1841,1888,1867
1836,1873,1778
1872,1890,1829
1872,1910,1898
1845,1858,1895
1840,1869,1790
1856,1815,1806
1850,1893,1899
1840,1850,1877
1846,1850,1777
1858,1886,1793
1856,1921,1934
1824,1843,1847
1830,1781,1741
1861,1915,1843
1874,1942,1943
1837,1879,1879
1828,1789,1774
1858,1819,1809
1871,1919,1904
1827,1866,1853
1835,1825,1792
1859,1855,1869
1869,1977,1911
1839,1889,1851
1823,1805,1754
1844,1826,1823
1869,1899,1921
1831,1882,1874
1825,1797,1709
1856,1899,1834
1856,1961,1903
1835,1865,1863
1830,1775,1749
1843,1898,1829
1850,1871,1878
1827,1874,1879
1819,1833,1750
1866,1845,1820
1866,1890,1875
1840,1828,1874
1826,1760,1770
1865,1874,1813
1858,1929,1956
1835,1859,1875
1838,1835,1760
1873,1874,1809
1869,1917,1937
1837,1830,1875
1831,1765,1811
1858,1879,1827
1854,1930,1904
1841,1876,1872
1838,1798,1774
1863,1872,1818
1866,1919,1898
1835,1887,1869
1826,1808,1819
1862,1831,1833
1863,1911,1855
1835,1818,1861
1827,1796,1777
1852,1840,1830
1861,1886,1903
1837,1866,1894
1835,1843,1745
1856,1855,1789
1879,1907,1938
1842,1855,1888
1822,1801,1741
1856,1869,1818
1878,1963,1919
1836,1898,1851
1824,1822,1733
1860,1803,1843
1874,1887,1918
1837,1859,1937
1825,1803,1795
1867,1840,1786
1870,1919,1917
1829,1936,1865
1815,1771,1762
1867,1806,1843
1885,1936,1942
1829,1887,1872
1822,1822,1745
1867,1830,1808
1879,1969,1922
1843,1865,1855
1833,1807,1789
1861,1840,1834
1872,1883,1915
1844,1846,1873
1845,1863,1771
1872,1890,1859
1867,1936,1922
1834,1861,1869
1835,1739,1793
1868,1840,1808
1872,1981,1954
1850,1929,1875
1841,1810,1790
1874,1934,1839
1870,1936,1904
1828,1799,1851
1827,1776,1776
1863,1865,1816
1859,1921,1905
1837,1877,1889
1830,1849,1780
1857,1855,1807
1871,1872,1951
1836,1891,1902
1829,1833,1791
1862,1871,1817
1862,1913,1874
1837,1869,1871
1838,1806,1791
1875,1882,1861
1873,1904,1910
1850,1896,1874
1840,1825,1783
1869,1845,1818
1856,1872,1885
1842,1872,1855
1840,1814,1806
1853,1818,1825
1856,1867,1897
1835,1843,1887
1823,1790,1764
1855,1885,1808
1861,1960,1946
1829,1888,1853
1828,1817,1767
1863,1846,1807
1885,1909,1919
1847,1936,1879
1827,1811,1781
1847,1810,1799
1869,1918,1939
1845,1904,1905
1838,1807,1797
1856,1796,1833
1867,1923,1951
1826,1871,1883
1814,1797,1775
1858,1845,1787
1872,1977,1962
1846,1958,1870
1826,1779,1786
1860,1812,1840
1879,1878,1881
1850,1862,1885
1824,1835,1767
1857,1920,1843
1861,1952,1895
1842,1905,1856
1850,1835,1791
1869,1785,1805
1871,1889,1925
1833,1877,1856
1822,1761,1766
1856,1873,1802
1872,1978,1904
1843,1862,1867
1834,1804,1764
1873,1846,1811
1872,1891,1921
1840,1958,1874
1836,1843,1773
1856,1804,1758
1873,1895,1905
1842,1853,1868
1829,1842,1750
1872,1828,1796
1882,1938,1872
1843,1929,1855
1821,1784,1848
1845,1813,1786
1862,1906,1882
1839,1881,1857
1834,1870,1775
1867,1900,1817
1871,1923,1882
1840,1849,1882
1831,1766,1823
1860,1846,1808
1865,1971,1880
1838,1919,1870
1822,1819,1825
1851,1744,1798
1867,1862,1894
1840,1901,1924
1828,1840,1823
1870,1840,1808
1873,1926,1899
1830,1902,1861
1829,1794,1746
1853,1839,1758
1859,1943,1921
1833,1902,1884
1840,1866,1743
1866,1867,1793
1861,1905,1855
1826,1839,1835
1831,1771,1776
1869,1818,1815
1867,1911,1925
1829,1873,1893
1822,1872,1824
1863,1917,1771
1859,1927,1890
1831,1813,1857
1840,1793,1712
1870,1850,1811
1867,1925,1974
1839,1875,1847
1831,1876,1755
1859,1833,1818
1865,1862,1904
1849,1893,1886
1849,1806,1777
1872,1847,1869
1874,1898,1921
1829,1873,1837
1823,1808,1743
1859,1863,1797
1877,1952,1917
1845,1879,1884
1821,1757,1797
1855,1870,1775
1867,1930,1905
1837,1858,1862
1825,1847,1738
1865,1851,1779
1872,1918,1908
1838,1872,1873
1829,1891,1787
1845,1840,1791
1852,1872,1873
1855,1933,1824
1840,1825,1770
1859,1871,1758
1857,1852,1950
1822,1847,1881
1817,1795,1744
1859,1854,1811
1879,1951,1904
1840,1894,1873
1817,1808,1745
1845,1803,1795
1858,1875,1873
1838,1888,1857
1840,1856,1802
1863,1906,1796
1851,1888,1887
1815,1840,1852
1822,1775,1763
1854,1810,1801
1869,1889,1904
1845,1957,1871
1824,1824,1745
1847,1830,1806
1857,1904,1915
1841,1892,1871
1825,1771,1756
1853,1826,1786
1863,1869,1872
1839,1892,1866
1842,1859,1787
1859,1905,1811
1862,1887,1892
1842,1901,1878
1838,1749,1755
1857,1829,1793
1862,1935,1899
1835,1824,1862
1815,1773,1770
1863,1857,1824
1873,1905,1895
1831,1872,1843
1827,1855,1786
1853,1877,1828
1861,1877,1896
1838,1895,1853
1830,1908,1779
1862,1856,1830
1845,1878,1898
1814,1819,1856
1811,1777,1759
1859,1810,1826
1867,1904,1903
1827,1872,1856
1815,1812,1753
1854,1855,1806
1861,1919,1911
1831,1906,1873
1819,1853,1778
1856,1839,1825
1858,1895,1888
1846,1897,1851
1818,1810,1778
1860,1835,1821
1808,1879,1904
1827,1840,1859
1806,1843,1791
1841,1840,1831
1856,1872,1907
1781,1842,1866
1774,1769,1776
1885,1872,1815
1881,1951,1904
1882,1935,1856
1840,1821,1775
1869,1851,1837
1837,1844,1904
1838,1821,1865
1823,1808,1776
1891,1867,1824
1904,1892,1903
1818,1822,1861
1837,1815,1798
1867,1818,1826
1875,1877,1904
1850,1936,1879
1860,1853,1771
1853,1872,1817
1850,1936,1920
1833,1870,1892
1869,1834,1793
1856,1851,1814
1846,1841,1910
1853,1831,1877
1850,1828,1776
1872,1909,1824
1851,1966,1933
1847,1879,1895
1818,1761,1788
1855,1818,1811
1861,1935,1920
1791,1927,1879
1771,1818,1776
1850,1849,1817
1861,1953,1920
1808,1881,1863
1818,1771,1753
1866,1840,1826
1858,1869,1923
1833,1853,1870
1823,1835,1766
1897,1883,1819
1905,1931,1920
1834,1887,1891
1840,1796,1797
1892,1870,1808
1856,1879,1906
1852,1881,1865
1847,1819,1766
1799,1910,1819
1914,1899,1942
1904,1809,1881
1859,1831,1779
1839,1899,1814
1852,1887,1904
1809,1859,1889
1834,1794,1782
1871,1834,1815
1884,1859,1886
1791,1887,1861
1826,1845,1775
1856,1886,1807
1855,1968,1927
1823,1836,1887
1823,1776,1754
1861,1856,1811
1874,2029,1920
1855,1913,1889
1835,1786,1792
1853,1853,1809
1862,1825,1885
1838,1805,1872
1834,1798,1785
1870,1867,1846
1874,1973,1910
1840,1902,1844
1846,1841,1773
1862,1843,1818
1866,1949,1926
1804,1899,1885
1779,1806,1777
1861,1811,1805
1822,1899,1890
1849,1827,1886
1826,1802,1781
1861,1850,1808
1967,1923,1914
1846,1915,1887
1834,1853,1785
1850,1851,1844
1883,1978,1917
1850,1925,1888
1830,1773,1776
1863,1846,1806
1877,1920,1926
1837,1894,1875
1830,1866,1765
1872,1845,1808
1873,1865,1917
1825,1860,1899
1895,1821,1790
1815,1823,1792
1893,1898,1887
1895,1930,1887
1871,1909,1813
1873,1872,1840
1846,1915,1904
1840,1890,1872
1860,1840,1755
1872,1891,1813
1900,1845,1904
1915,1851,1881
1854,1910,1808
1889,1840,1799
1909,1857,1894
1886,1882,1862
1834,1856,1771
1863,1867,1815
1862,1904,1930
1847,1904,1903
1826,1870,1789
1866,1887,1825
1878,1901,1918
1840,1856,1869
1857,1893,1799
1858,1847,1809
1890,1879,1893
1824,1897,1893
1853,1901,1795
1875,1845,1805
1879,1907,1918
1851,1891,1903
1835,1797,1787
1875,1845,1797
1867,1957,1908
1856,1897,1886
1906,1805,1813
1918,1874,1834
1869,1936,1906
1809,1935,1892
1798,1829,1787
1885,1840,1799
1870,1941,1909
1845,1897,1866
1849,1821,1782
1866,1825,1809
1870,1891,1906
1839,1917,1894
1852,1856,1793
1871,1866,1822
1847,1954,1909
1852,1903,1895
1871,1841,1773
1866,1881,1791
1860,1904,1904
1837,1920,1907
1835,1822,1791
1856,1815,1811
1879,1909,1920
1844,1882,1878
1845,1834,1776
1872,1873,1809
1887,1955,1905
1850,1914,1871
1845,1858,1809
1887,1930,1840
1882,1927,1894
1840,1871,1840
1840,1797,1775
1873,1846,1830
1872,1925,1906
1855,1936,1891
1837,1793,1776
1873,1797,1808
1888,1914,1905
1854,1956,1879
1843,1874,1793
1878,1861,1823
1900,1957,1919
1858,1915,1869
1850,1808,1767
1881,1872,1793
1879,1911,1905
1855,1897,1873
1848,1868,1790
1877,1866,1802
1893,1968,1923
1874,1975,1916
1840,1779,1771
1860,1776,1779
1887,1906,1923
1872,1994,1918
1840,1843,1791
1872,1819,1776
1889,1884,1885
1845,1871,1878
1843,1901,1789
1881,1857,1830
1887,1883,1931
1872,1923,1915
1855,1834,1787
1863,1838,1791
1867,1858,1887
1852,1855,1871
1853,1868,1776
1875,1887,1811
1881,1911,1879
1856,1905,1877
1862,1855,1801
1891,1861,1853
1886,1939,1920
1850,1862,1872
1851,1767,1769
1883,1808,1810
1891,1871,1911
1859,1975,1863
1840,1935,1775
1875,1807,1791
1892,1832,1879
1867,1838,1891
1860,1815,1803
1875,1901,1801
1898,1892,1915
1867,1848,1853
1860,1858,1778
1867,1847,1808
1859,1863,1888
1845,1843,1877
1831,1749,1767
1859,1808,1809
1889,1903,1926
1850,1931,1885
1843,1831,1789
1856,1811,1794
1872,1905,1915
1855,1874,1895
1847,1840,1788
1878,1849,1842
1897,1898,1934
1851,1914,1899
1840,1866,1807
1872,1908,1853
1881,1870,1909
1849,1801,1883
1828,1781,1793
1875,1877,1847
1888,1926,1936
1847,1863,1887
1841,1839,1790
1879,1826,1821
1902,1974,1925
1867,1923,1890
1842,1758,1781
1878,1833,1835
1892,1904,1931
1856,1841,1887
1845,1846,1794
1872,1825,1826
1872,1840,1927
1851,1886,1891
1851,1840,1793
1873,1872,1806
1879,1950,1921
1834,1927,1889
1828,1811,1793
1878,1856,1831
1882,1936,1923
1846,1920,1885
1831,1743,1801
1874,1767,1826
1878,1878,1907
1840,1879,1867
1830,1859,1773
1862,1898,1808
1882,1939,1914
1843,1840,1856
1841,1827,1789
1872,1904,1823
1877,1872,1918
1841,1830,1878
1837,1809,1799
1865,1873,1827
1880,1918,1904
1865,1824,1890
1855,1783,1801
1870,1872,1818
1885,1952,1925
1854,1934,1887
1840,1804,1767
1870,1858,1808
1877,1898,1902
1851,1939,1882
1844,1825,1797
1869,1786,1798
1877,1882,1894
1857,1865,1899
1851,1808,1792
1869,1823,1770
1877,1903,1887
1864,1953,1906
1845,1878,1808
1866,1865,1825
1885,1883,1920
1854,1843,1875
1838,1853,1775
1871,1901,1813
1874,1938,1917
1850,1869,1886
1829,1776,1785
1867,1877,1829
1888,1876,1908
1849,1819,1872
1840,1859,1776
1882,1842,1840
1883,1904,1923
1856,1931,1872
1835,1862,1781
1866,1872,1821
1874,1871,1904
1856,1870,1883
1858,1789,1779
1856,1844,1791
1886,1982,1910
1857,1945,1874
1847,1889,1777
1871,1782,1814
1866,1844,1902
1850,1840,1885
1856,1863,1809
1878,1889,1817
1894,1957,1887
1847,1875,1862
1840,1776,1791
1872,1907,1830
1879,2030,1923
1854,1917,1898
1837,1787,1774
1861,1787,1795
1884,1904,1921
1865,1948,1887
1838,1794,1775
1865,1838,1808
1895,1937,1940
1857,1903,1885
1841,1831,1781
1873,1878,1831
1875,1938,1918
1847,1946,1875
1843,1804,1776
1869,1866,1812
1873,1954,1915
1855,1917,1890
1843,1856,1789
1892,1901,1862
1885,1909,1916
1844,1854,1875
1839,1799,1795
1872,1843,1811
1902,1931,1924
1866,1898,1904
1835,1813,1777
1869,1869,1802
1875,1909,1906
1840,1934,1899
1852,1930,1822
1882,1840,1837
1873,1892,1881
1840,1866,1882
1836,1824,1794
1872,1788,1828
1887,1872,1914
1846,1904,1882
1855,1873,1803
1873,1851,1821
1889,1933,1920
1843,1936,1879
1829,1843,1776
1872,1838,1808
1875,1909,1901
1855,1903,1862
1840,1866,1795
1866,1863,1828
1879,1936,1922
1850,1911,1877
1840,1838,1795
1869,1851,1810
1884,1894,1909
1855,1872,1875
1849,1829,1783
1865,1855,1817
1874,1959,1910
1840,1889,1861
1839,1871,1776
1873,1872,1822
1889,1897,1929
1850,1909,1885
1825,1845,1776
1873,1876,1823
1873,1915,1906
1855,1904,1872
1834,1830,1795
1860,1840,1830
1872,1989,1888
1856,1920,1893
1847,1822,1824
1862,1846,1821
1873,1872,1899
1841,1840,1877
1837,1813,1779
1860,1876,1807
1888,2009,1914
1842,1877,1868
1839,1806,1791
1874,1854,1824
1893,1933,1931
1857,1917,1903
1847,1829,1807
1870,1922,1818
1866,1945,1899
1847,1919,1883
1851,1845,1805
1880,1808,1807
1879,1852,1901
1856,1828,1877
1838,1872,1773
1870,1891,1806
1885,1924,1908
1862,1881,1872
1841,1831,1805
1870,1883,1811
1893,1986,1908
1872,1936,1899
1854,1811,1797
1872,1759,1809
1872,1905,1894
1843,1904,1887
1842,1856,1798
1886,1911,1829
1882,1904,1904
1850,1854,1861
1833,1817,1764
1875,1805,1808
1895,1904,1911
1873,1928,1907
1856,1824,1792
1872,1829,1808
1887,1973,1907
1867,1929,1919
1835,1866,1797
1872,1872,1808
1878,1861,1900
1849,1823,1873
1843,1839,1777
1874,1813,1820
1887,1886,1920
1855,1899,1866
1840,1813,1776
1876,1861,1830
1887,1927,1935
1855,1872,1898
1836,1825,1783
1858,1863,1825
1867,1954,1907
1850,1900,1882
1843,1813,1801
1865,1810,1822
1862,1853,1896
1843,1858,1872
1843,1828,1779
1874,1855,1802
1883,1894,1886
1855,1861,1885
1834,1861,1794
1855,1909,1798
1882,1967,1902
1845,1831,1872
1843,1776,1802
1875,1813,1821
1877,1879,1910
1839,1858,1872
1823,1818,1776
1863,1846,1809
1872,1902,1889
1835,1898,1861
1841,1840,1781
1863,1851,1795
1872,1895,1895
1850,1904,1889
1835,1841,1793
1858,1863,1786
1865,1847,1897
1842,1845,1874
1824,1789,1775
1872,1879,1824
1885,1878,1904
1853,1822,1884
1831,1872,1796
1863,1885,1808
1863,1881,1893
1834,1878,1862
1835,1835,1776
1875,1852,1808
1877,1894,1907
1859,1904,1902
1846,1819,1776
1867,1843,1806
1883,1871,1894
1857,1855,1863
1855,1809,1798
1871,1862,1808
1875,1974,1898
1840,1860,1866
1841,1840,1787
1877,1882,1814
1876,1894,1882
1854,1887,1874
1829,1839,1768
1863,1856,1805
1900,1856,1926
1875,1874,1899
1856,1824,1790
1872,1798,1807
1889,1901,1907
1857,1937,1868
1847,1862,1779
1886,1936,1845
1880,1949,1931
1839,1886,1867
1829,1782,1750
1870,1776,1781
1877,1863,1910
1856,1850,1894
1840,1855,1787
1875,1877,1817
1891,2009,1907
1861,1908,1904
1843,1775,1786
1870,1846,1783
1875,1969,1897
1846,1915,1872
1840,1814,1792
1863,1819,1806
1884,1936,1883
1865,1859,1881
1840,1810,1790
1862,1839,1783
1875,1927,1885
1868,1906,1904
1858,1838,1820
1878,1840,1818
1872,1931,1873
1846,1917,1861
1842,1918,1774
1881,1888,1819
1872,1882,1904
1839,1862,1871
1840,1803,1776
1872,1795,1811
1892,1879,1919
1843,1891,1871
1839,1856,1786
1856,1863,1798
1889,1951,1929
1859,1884,1893
1840,1855,1758
1872,1888,1797
1886,1967,1911
1850,1872,1872
1840,1828,1767
1862,1807,1805
1877,1837,1906
1861,1871,1871
1845,1836,1776
1873,1875,1814
1888,1917,1882
1865,1895,1873
1850,1870,1803
1874,1856,1814
1892,1925,1904
1864,1952,1872
1849,1907,1765
1871,1809,1792
1885,1855,1903
1866,1935,1870
1861,1814,1756
1879,1759,1804
1864,1872,1887
1849,1911,1871
1863,1873,1775
1885,1878,1807
1898,1967,1910
1869,1922,1893
1854,1855,1810
1883,1835,1797
1873,1862,1859
1842,1817,1863
1845,1815,1770
1872,1828,1776
1898,1934,1907
1869,1936,1892
1838,1857,1755
1872,1866,1775
1898,1899,1910
1869,1865,1873
1857,1803,1804
1905,1945,1840
1895,1934,1879
1847,1820,1850
1851,1773,1785
1886,1829,1808
1899,1929,1902
1872,1917,1887
1856,1864,1789
1878,1850,1789
1891,1951,1893
1872,1981,1893
1847,1855,1777
1882,1814,1819
1890,1877,1907
1865,1916,1899
1863,1936,1782
1894,1833,1788
1881,1874,1843
1867,1842,1891
1854,1831,1804
1872,1855,1799
1901,1904,1906
1865,1883,1833
1854,1845,1717
1873,1843,1821
1883,1865,1927
1865,1941,1903
1840,1952,1743
1873,1817,1751
1903,1866,1916
1888,1885,1885
1865,1871,1792
1888,1847,1825
1886,1920,1867
1850,1887,1879
1851,1823,1783
1878,1829,1807
1891,1881,1875
1863,1888,1877
1846,1854,1794
1881,1851,1807
1900,1893,1906
1872,1922,1911
1847,1887,1747
1872,1873,1798
1877,1919,1876
1841,1813,1907
1846,1811,1802
1890,1852,1818
1889,1881,1953
1856,1904,1851
1840,1869,1783
1886,1888,1850
1895,1868,1927
1862,1802,1877
1837,1794,1767
1881,1904,1812
1904,1931,1919
1870,1909,1901
1843,1779,1759
1872,1826,1791
1892,1922,1904
1862,1872,1895
1844,1854,1780
1869,1855,1785
1881,1977,1882
1861,1904,1874
1823,1779,1751
1856,1806,1829
1894,1911,1894
1852,1909,1892
1823,1780,1777
1857,1878,1733
1897,1936,1939
1867,1840,1907
1840,1807,1754
1855,1840,1797
1867,1929,1872
1857,1936,1936
1850,1920,1869
1862,1774,1792
1883,1859,1911
1855,1872,1889
1843,1904,1808
1867,1792,1791
1872,1859,1905
1856,1853,1891
1838,1844,1778
1857,1878,1801
1875,1884,1868
1852,1877,1894
1827,1808,1786
1856,1872,1803
1872,1902,1917
1842,1887,1903
1834,1834,1778
1872,1828,1806
1897,1907,1922
1865,1901,1904
1829,1821,1791
1865,1879,1800
1901,1962,1939
1850,1917,1893
1814,1858,1729
1846,1798,1779
1872,1851,1869
1845,1856,1889
1822,1801,1761
1857,1854,1825
1887,1893,1971
1861,1923,1903
1840,1894,1823
1857,1855,1807
1879,1871,1904
1862,1887,1905
1829,1872,1802
1861,1929,1817
1872,1879,1913
1849,1815,1863
1834,1818,1780
1869,1891,1777
1885,1958,1915
1844,1843,1935
1822,1749,1770
