1871,1948,1914
1839,1889,1783
1867,1846,1807
1891,1958,1922
1866,1867,1921
1839,1794,1777
1872,1857,1805
1899,1924,1917
1862,1866,1904
1827,1801,1774
1871,1868,1805
1895,1923,1915
1866,1867,1907
1824,1776,1798
1853,1852,1797
1889,1971,1923
1870,1968,1929
1840,1847,1801
1862,1799,1790
1879,1882,1903
1862,1919,1921
1840,1915,1805
1857,1887,1809
1875,1874,1906
1856,1871,1897
1840,1776,1760
1856,1830,1777
1875,1900,1902
1856,1910,1903
1826,1843,1791
1857,1838,1809
1895,1963,1923
1871,1998,1909
1828,1808,1774
1849,1770,1787
1885,1878,1908
1863,1941,1923
1835,1874,1797
1871,1850,1789
1890,1907,1910
1873,1923,1921
1815,1826,1779
1866,1831,1781
1890,1917,1902
1865,1930,1906
1839,1906,1828
1859,1840,1815
1887,1882,1900
1861,1910,1889
1839,1821,1804
1858,1865,1810
1894,1920,1904
1867,1810,1861
1838,1834,1798
1856,1907,1814
1894,1943,1934
1863,1888,1911
1831,1819,1799
1870,1825,1807
1889,1954,1919
1861,1906,1904
1823,1808,1788
1867,1857,1806
1899,1920,1933
1866,1887,1915
1823,1861,1791
1867,1818,1809
1882,1874,1887
1855,1915,1895
1838,1839,1793
1862,1828,1790
1878,1897,1891
1872,1966,1917
1840,1842,1814
1869,1837,1801
1897,1898,1909
1877,1886,1909
1840,1872,1794
1867,1890,1797
1895,1930,1921
1862,1847,1904
1837,1789,1785
1872,1844,1821
1903,1903,1921
1891,1931,1921
1841,1871,1774
1869,1855,1767
1885,1894,1883
1872,1903,1936
1851,1917,1825
1858,1858,1795
1898,1954,1895
1872,1929,1904
1851,1799,1794
1872,1799,1782
1893,1821,1909
1861,1869,1914
1843,1892,1806
1870,1834,1798
1897,1873,1894
1879,1922,1913
1841,1863,1802
1874,1855,1809
1915,1968,1904
1872,1973,1918
1840,1831,1807
1866,1796,1798
1904,1867,1904
1871,1911,1886
1844,1887,1799
1877,1811,1811
1899,1904,1895
1867,1869,1893
1840,1811,1780
1878,1879,1794
1905,1949,1904
1878,1942,1907
1856,1839,1806
1877,1870,1775
1898,1946,1867
1874,1877,1902
1849,1799,1791
1873,1834,1751
1899,1917,1885
1872,1963,1887
1842,1854,1815
1870,1796,1808
1887,1867,1926
1854,1934,1922
1825,1845,1788
1856,1855,1826
1903,1936,1936
1883,1936,1905
1836,1898,1801
1855,1842,1805
1889,1913,1867
1862,1908,1883
1838,1834,1799
1860,1802,1778
1894,1903,1843
1870,1930,1872
1847,1845,1798
1865,1830,1775
1885,1899,1890
1867,1954,1927
1841,1890,1813
1872,1839,1785
1887,1903,1872
1873,1918,1919
1841,1817,1779
1873,1839,1806
1900,1955,1933
1872,1997,1874
1840,1908,1731
1862,1831,1764
1904,1796,1936
1872,1852,1931
1839,1795,1790
1869,1862,1783
1895,1937,1912
1871,1894,1913
1840,1876,1787
1866,1856,1776
1901,1906,1921
1872,1905,1893
1845,1799,1776
1872,1874,1818
1890,2011,1904
1871,1904,1867
1840,1751,1791
1877,1790,1790
1902,1920,1894
1873,1919,1887
1844,1835,1801
1868,1871,1787
1899,1965,1953
1872,1901,1926
1857,1810,1810
1878,1818,1773
1893,1904,1872
1872,1888,1897
1847,1846,1771
1881,1850,1815
1905,1936,1918
1869,1922,1886
1825,1828,1715
1872,1876,1824
1915,1936,1884
1877,1919,1893
1835,1839,1776
1867,1868,1819
1894,1891,1893
1872,1904,1872
1850,1816,1801
1872,1858,1824
1896,1934,1890
1872,1940,1901
1851,1847,1799
1873,1866,1808
1905,1938,1901
1872,1873,1897
1833,1837,1853
1863,1852,1859
1899,1869,1900
1870,1963,1920
1833,1897,1792
1872,1889,1776
1904,1942,1861
1885,1920,1908
1841,1779,1812
1863,1798,1744
1900,1871,1804
1872,1942,1917
1856,1855,1808
1859,1804,1770
1875,1891,1879
1877,1932,1910
1849,1879,1799
1870,1824,1782
1889,1979,1871
1872,1968,1936
1846,1776,1825
1859,1786,1786
1893,1921,1917
1877,1903,1925
1850,1840,1778
1870,1872,1811
1895,1891,1904
1886,1882,1910
1855,1859,1767
1879,1925,1756
1904,1914,1873
1877,1891,1883
1863,1887,1844
1876,1805,1783
1901,1872,1856
1879,1950,1947
1851,1840,1866
1863,1780,1773
1882,1887,1898
1867,1936,1904
1871,1919,1846
1888,1883,1837
1888,1894,1885
1872,1901,1904
1846,1850,1791
1882,1857,1795
1909,1932,1918
1870,1872,1915
1849,1830,1814
1879,1907,1778
1904,1973,1939
1879,1875,1927
1840,1769,1794
1871,1786,1792
1895,1883,1942
1872,1904,1911
1846,1889,1822
1867,1875,1814
1898,1904,1840
1872,1918,1892
1838,1852,1853
1861,1872,1781
1891,1913,1904
1866,1875,1959
1835,1815,1769
1872,1840,1799
1906,1918,1919
1872,1881,1914
1847,1820,1803
1877,1886,1809
1894,1925,1885
1867,1845,1923
1843,1804,1767
1872,1827,1785
1892,1917,1925
1856,1918,1909
1822,1840,1776
1859,1831,1792
1910,1935,1919
1874,1930,1913
1839,1840,1783
1857,1822,1788
1891,1911,1899
1872,1920,1909
1841,1799,1804
1862,1854,1785
1886,1921,1895
1868,1897,1907
1852,1844,1795
1883,1847,1783
1888,1937,1902
1872,1901,1911
1839,1798,1793
1869,1904,1792
1904,1927,1913
1883,1904,1921
1842,1770,1803
1849,1791,1776
1873,1872,1890
1869,1936,1906
1845,1831,1797
1872,1852,1805
1904,1941,1914
1872,1942,1907
1839,1786,1777
1857,1818,1776
1878,1991,1890
1872,1878,1920
1843,1793,1792
1861,1831,1793
1890,1905,1889
1871,1878,1897
1845,1818,1815
1872,1906,1815
1895,1920,1902
1866,1865,1862
1840,1807,1789
1872,1833,1813
1894,1914,1904
1887,1975,1904
1847,1867,1779
1851,1800,1763
1885,1852,1877
1867,1862,1881
1839,1794,1773
1861,1814,1785
1894,1917,1899
1878,1929,1934
1846,1846,1797
1865,1819,1783
1890,1910,1888
1872,1941,1889
1843,1888,1793
1873,1890,1792
1885,1881,1872
1861,1821,1885
1838,1774,1776
1854,1826,1765
1887,1910,1883
1857,1909,1901
1838,1857,1783
1859,1840,1773
1877,1922,1872
1853,1872,1891
1824,1817,1774
1859,1858,1777
1904,1941,1904
1859,1935,1883
1813,1835,1750
1856,1834,1764
1902,1948,1877
1872,1907,1891
1827,1774,1776
1857,1776,1774
1885,1911,1890
1859,1900,1875
1827,1837,1733
1853,1815,1771
1875,1904,1904
1863,1920,1904
1837,1814,1785
1863,1865,1776
1882,1872,1882
1866,1881,1898
1831,1839,1777
1850,1829,1777
1879,1843,1865
1856,1966,1882
1829,1839,1792
1869,1837,1787
1893,1913,1895
1871,1840,1872
1836,1851,1779
1851,1815,1758
1872,1869,1873
1859,1891,1906
1839,1839,1799
1866,1827,1776
1884,1933,1894
1867,1940,1885
1821,1843,1785
1859,1859,1790
1882,1837,1885
1863,1894,1901
1841,1872,1773
1853,1797,1763
1880,1853,1886
1857,1855,1875
1839,1825,1798
1851,1856,1790
1884,1958,1893
1871,1953,1904
1826,1904,1793
1840,1728,1782
1877,1819,1883
1863,1899,1895
1829,1835,1790
1858,1823,1781
1872,1875,1871
1849,1883,1877
1834,1820,1779
1855,1833,1772
1876,1874,1886
1867,1895,1909
1827,1917,1782
1856,1927,1778
1872,1841,1902
1843,1781,1904
1811,1777,1776
1851,1809,1776
1877,1908,1886
1855,1891,1902
1819,1824,1778
1844,1833,1775
1883,1919,1893
1846,1921,1888
1828,1829,1791
1853,1795,1797
1874,1926,1884
1841,1936,1887
1829,1840,1808
1849,1807,1788
1859,1847,1877
1855,1872,1904
1836,1781,1792
1861,1814,1789
1879,1926,1879
1849,1899,1895
1827,1830,1787
1852,1840,1776
1872,1924,1867
1851,1950,1904
1818,1791,1795
1849,1808,1808
1865,1907,1887
1842,1894,1888
1808,1839,1777
1830,1847,1787
1862,1884,1898
1841,1872,1899
1811,1827,1779
1858,1836,1787
1877,1949,1892
1840,1972,1904
1809,1813,1790
1841,1802,1782
1867,1923,1892
1831,1856,1879
1798,1776,1766
1844,1855,1783
1872,1958,1885
1856,1893,1898
1819,1796,1786
1846,1826,1776
1869,1920,1882
1847,1905,1888
1810,1797,1779
1845,1826,1767
1899,1923,1919
1872,1871,1915
1821,1886,1783
1852,1841,1781
1873,1956,1898
1856,1937,1904
1821,1808,1791
1842,1803,1760
1868,1874,1897
1856,1898,1909
1823,1840,1786
1843,1853,1786
1871,1885,1905
1862,1951,1925
1829,1861,1808
1851,1872,1796
1866,1913,1888
1835,1901,1890
1827,1796,1785
1872,1835,1805
1882,1979,1912
1831,1899,1898
1810,1803,1799
1840,1799,1791
1869,1886,1869
1845,1886,1898
1831,1839,1804
1852,1867,1798
1883,1904,1894
1862,1928,1894
1827,1882,1788
1851,1844,1787
1872,1907,1904
1855,1921,1933
1835,1910,1814
1843,1900,1787
1860,1878,1857
1839,1774,1872
1817,1793,1810
1839,1844,1804
1867,1914,1904
1840,1911,1904
1819,1823,1793
1855,1890,1787
1865,1941,1872
1843,1941,1875
1828,1906,1792
1856,1790,1801
1875,1851,1903
1851,1904,1899
1819,1851,1780
1840,1815,1746
1866,1866,1877
1855,1895,1905
1827,1874,1798
1857,1819,1797
1875,1890,1901
1850,1907,1895
1822,1851,1794
1833,1869,1789
1889,1965,1911
1856,1904,1902
1824,1770,1797
1852,1878,1798
1878,1988,1904
1850,1943,1904
1808,1780,1759
1839,1792,1771
1877,1894,1904
1854,1875,1904
1824,1831,1797
1844,1812,1785
1881,1929,1879
1861,2005,1906
1826,1837,1787
1840,1798,1776
1875,1904,1881
1847,1894,1894
1826,1839,1803
1862,1840,1798
1889,1942,1899
1867,2017,1911
1823,1813,1790
1856,1810,1802
1890,1852,1891
1862,1873,1904
1840,1873,1798
1858,1840,1795
1872,1935,1898
1856,1899,1915
1835,1817,1809
1872,1835,1806
1904,1918,1917
1856,1919,1883
1827,1815,1780
1866,1857,1809
1893,1933,1904
1869,1934,1908
1838,1872,1785
1872,1877,1783
1894,1873,1909
1873,1885,1911
1831,1745,1778
1859,1810,1783
1882,1935,1877
1871,1907,1895
1841,1786,1776
1869,1830,1774
1882,1936,1898
1863,1920,1907
1835,1830,1778
1858,1872,1792
1898,1929,1899
1885,1926,1903
1853,1781,1793
1865,1790,1785
1890,1873,1895
1872,1898,1899
1849,1766,1791
1870,1871,1798
1903,1888,1904
1865,1905,1886
1847,1829,1757
1866,1830,1772
1890,1911,1904
1872,1969,1939
1839,1863,1815
1855,1834,1786
1873,1886,1862
1871,1869,1886
1854,1808,1812
1882,1887,1822
1907,1935,1907
1874,1860,1894
1834,1776,1796
1867,1820,1795
1899,1936,1904
1884,1936,1920
1856,1862,1783
1865,1824,1777
1890,1882,1908
1879,1979,1941
1843,1856,1797
1881,1776,1786
1904,1923,1902
1866,1900,1919
1840,1760,1786
1869,1783,1778
1894,1934,1892
1877,1922,1924
1855,1840,1806
1872,1853,1796
1895,1869,1904
1875,1918,1898
1839,1875,1793
1859,1842,1785
1903,1919,1900
1874,1967,1910
1855,1853,1823
1862,1757,1791
1875,1859,1897
1869,1874,1895
1827,1802,1773
1856,1840,1765
1879,1910,1893
1871,1907,1922
1840,1852,1797
1857,1831,1776
1887,1900,1895
1862,1904,1911
1845,1937,1802
1861,1806,1790
1872,1917,1889
1863,1837,1892
1842,1750,1803
1869,1791,1793
1895,1954,1872
1871,1957,1890
1842,1862,1783
1872,1881,1808
1894,1935,1907
1862,1962,1891
1841,1809,1785
1870,1819,1785
1902,1968,1915
1867,1941,1911
1828,1764,1776
1851,1796,1783
1872,1903,1894
1842,1903,1889
1822,1841,1771
1859,1890,1771
1894,1956,1901
1870,1879,1923
1836,1808,1808
1859,1865,1808
1874,1957,1895
1846,1954,1913
1827,1830,1811
1855,1795,1803
1875,1911,1893
1861,1939,1920
1822,1819,1783
1844,1831,1793
1872,1906,1887
1856,1922,1898
1833,1808,1786
1867,1825,1807
1898,1943,1902
1864,1902,1897
1830,1831,1808
1872,1840,1794
1895,1936,1904
1865,1971,1909
1843,1833,1808
1856,1758,1790
1899,1841,1914
1867,1900,1918
1839,1840,1776
1866,1856,1799
1889,1971,1903
1872,1936,1922
1842,1883,1793
1871,1842,1763
1891,1889,1894
1858,1905,1913
1843,1905,1827
1867,1849,1797
1872,1862,1883
1867,1963,1909
1841,1842,1808
1859,1794,1787
1873,1954,1895
1872,1968,1918
1842,1790,1790
1872,1874,1817
1894,1903,1908
1866,1926,1906
1838,1821,1783
1872,1727,1778
1900,1933,1903
1872,1968,1926
1839,1820,1792
1861,1803,1785
1895,1914,1886
1875,1907,1911
1846,1899,1805
1858,1861,1790
1887,1863,1903
1873,1893,1919
1846,1856,1792
1849,1714,1754
1885,1854,1885
1872,1878,1897
1841,1776,1782
1872,1837,1817
1899,1907,1921
1877,1982,1909
1837,1846,1813
1855,1728,1776
1893,1949,1890
1875,1866,1911
1835,1775,1785
1871,1836,1806
1895,1885,1909
1872,1915,1911
1849,1792,1808
1857,1866,1791
1867,1955,1841
1861,1883,1901
1840,1792,1811
1877,1805,1795
1886,1927,1897
1862,1885,1897
1843,1793,1801
1888,1850,1809
1904,2006,1899
1879,1866,1904
1845,1875,1783
1868,1826,1778
1899,1877,1885
1878,1926,1902
1843,1887,1780
1859,1872,1774
1903,1875,1904
1874,1947,1929
1843,1808,1808
1869,1776,1781
1905,1863,1884
1863,1911,1899
1840,1862,1803
1868,1852,1792
1904,1947,1909
1863,1843,1901
1831,1778,1773
1859,1853,1787
1891,1953,1893
1872,1933,1920
1834,1783,1789
1849,1762,1781
1872,1870,1901
1859,1891,1918
1826,1860,1776
1862,1824,1771
1903,1913,1900
1876,1966,1931
1846,1889,1808
1867,1751,1794
1883,1856,1859
1849,1910,1891
1827,1808,1797
1870,1849,1791
1904,1982,1908
1876,1947,1926
1830,1790,1776
1854,1825,1773
1887,1877,1889
1870,1952,1918
1838,1808,1798
1866,1963,1803
1889,1968,1879
1863,1871,1888
1840,1730,1792
1872,1856,1792
1894,2000,1915
1865,1979,1910
1829,1732,1798
1856,1775,1785
1892,1873,1889
1859,1894,1910
1840,1840,1811
1865,1866,1787
1886,1908,1917
1874,1904,1936
1853,1766,1791
1876,1804,1791
1898,1874,1915
1860,1905,1879
1827,1872,1775
1855,1909,1785
1885,1923,1902
1879,1847,1925
1855,1837,1814
1871,1882,1782
1899,1930,1891
1874,1927,1907
1849,1775,1806
1895,1824,1807
1907,1970,1910
1884,1961,1934
1841,1801,1809
1865,1807,1791
1892,1863,1894
1867,1876,1904
1842,1834,1805
1866,1875,1799
1892,1929,1911
1872,1936,1920
1854,1905,1816
1863,1799,1776
1886,1856,1879
1859,1872,1915
1835,1815,1797
1859,1841,1791
1893,1939,1891
1861,1902,1907
1841,1854,1815
1869,1809,1808
1891,1918,1906
1872,1911,1907
1844,1855,1799
1861,1830,1796
1913,1934,1915
1883,1993,1911
1840,1798,1798
1856,1791,1806
1883,1891,1914
1901,1909,1910
1835,1793,1764
1887,1808,1777
1861,1919,1906
1861,1957,1921
1828,1879,1814
1831,1799,1807
1894,1862,1911
1838,1891,1901
1897,1846,1813
1894,1867,1810
1876,1925,1933
1841,1933,1908
1808,1797,1794
1837,1834,1792
1837,1927,1905
1893,1902,1930
1826,1826,1790
1873,1855,1787
1893,1901,1926
1874,1843,1921
1813,1824,1794
1854,1826,1782
1930,1916,1911
1887,1855,1936
1840,1824,1782
1845,1869,1793
1874,1933,1903
1894,1917,1917
1810,1839,1807
1819,1821,1789
1859,1916,1879
1842,1926,1934
1840,1837,1822
1866,1859,1794
1883,1922,1903
1872,1856,1919
1833,1774,1789
1852,1871,1790
1910,1865,1906
1895,1932,1931
1852,1886,1801
1860,1808,1777
1885,1921,1904
1904,1889,1934
1832,1810,1807
1854,1847,1789
1880,1937,1902
1831,1907,1917
1835,1795,1791
1858,1840,1808
1897,1970,1917
1872,1946,1925
1826,1850,1810
1856,1905,1786
1878,1891,1883
1842,1827,1878
1838,1778,1779
1870,1868,1788
1899,1898,1903
1899,1872,1903
1818,1854,1808
1872,1856,1793
1903,1910,1901
1855,1867,1904
1840,1828,1797
1872,1855,1792
1893,1885,1882
1872,1938,1904
1836,1811,1805
1868,1808,1802
1899,1915,1918
1887,1917,1927
1840,1826,1783
1858,1807,1781
1910,1936,1882
1840,1911,1922
1829,1805,1806
1861,1821,1795
1897,1884,1899
1867,1910,1922
1833,1770,1797
1895,1799,1785
1909,1922,1892
1904,1906,1901
1834,1894,1789
1808,1860,1791
1882,1845,1902
1869,1798,1892
1802,1803,1798
1863,1855,1812
1904,1889,1904
1845,1904,1904
1855,1855,1792
1856,1856,1786
1904,1891,1905
1857,1883,1907
1829,1829,1805
1855,1860,1776
1903,1936,1898
1872,1923,1904
1831,1798,1795
1855,1806,1785
1885,1843,1887
1868,1888,1887
1903,1870,1794
1870,1861,1823
1838,1968,1941
1867,1899,1961
1849,1770,1761
1840,1817,1797
1902,1925,1899
1825,1936,1927
1810,1815,1797
1903,1828,1819
1876,1883,1933
1856,1862,1922
1814,1780,1794
1823,1857,1799
1953,1925,1910
1849,1914,1879
1814,1894,1776
1839,1825,1792
1889,1957,1920
1893,1920,1933
1812,1806,1787
1842,1797,1776
1903,1913,1941
1869,1861,1922
1833,1809,1756
1857,1818,1797
1901,1936,1907
1869,1936,1892
1848,1806,1809
1814,1808,1794
1861,1920,1904
1892,1936,1895
1812,1811,1785
1859,1825,1786
1872,1921,1894
1835,1913,1943
1847,1861,1811
1904,1913,1806
1890,1904,1920
1851,1843,1960
1827,1811,1783
1854,1819,1787
1887,1902,1906
1902,1931,1935
1809,1895,1811
1861,1811,1833
1890,1915,1923
1872,1920,1922
1851,1841,1803
1851,1780,1797
1861,1885,1887
1867,1897,1903
1872,1839,1830
1855,1859,1798
1903,1905,1856
1936,1986,1965
1878,1934,1810
1799,1767,1757
1903,1839,1838
1861,1890,1951
1869,1866,1823
1863,1855,1835
1881,1957,1859
1872,1946,1943
1831,1778,1813
1826,1776,1834
1895,1894,1899
1927,1950,1926
1817,1912,1815
1842,1904,1790
1872,1835,1875
1909,1843,1936
1844,1849,1815
1838,1898,1794
1846,1957,1898
1904,1913,1904
1825,1790,1781
1891,1792,1780
1904,1894,1904
1885,1925,1923
1856,1847,1791
1877,1853,1760
1911,1925,1919
1890,1911,1946
1856,1840,1783
1882,1877,1830
1904,1911,1916
1878,1839,1925
1838,1856,1782
1857,1863,1781
1899,1891,1899
1892,1897,1961
1851,1806,1779
1894,1793,1804
1927,1896,1822
1886,1943,1907
1790,1895,1770
1860,1814,1781
1904,1853,1897
1879,1902,1931
1856,1810,1821
1871,1799,1796
1895,1921,1882
1890,1964,1915
1855,1892,1810
1873,1811,1783
1904,1931,1897
1881,1870,1930
1837,1781,1790
1860,1816,1772
1934,1951,1865
1862,1935,1923
1868,1856,1790
1840,1780,1783
1872,1913,1889
1862,1903,1904
1821,1839,1776
1855,1867,1761
1929,1955,1925
1938,1945,1943
1858,1820,1792
1904,1791,1771
1931,1885,1917
1798,1886,1953
1839,1837,1789
1843,1841,1776
1911,1913,1893
1881,1905,1941
1853,1853,1805
1865,1821,1818
1895,1884,1877
1890,1920,1895
1826,1828,1791
1872,1860,1798
1895,1963,1914
1891,1862,1923
1827,1774,1781
1884,1845,1827
1893,1957,1889
1872,1898,1869
1842,1782,1795
1871,1868,1811
1895,1895,1922
1872,1877,1901
1870,1866,1803
1916,1870,1797
1897,1874,1879
1870,1871,1901
1810,1814,1776
1904,1837,1771
1997,1934,1919
1980,1957,1806
1839,1855,1798
1861,1808,1810
1948,1945,1906
1882,1915,1911
1846,1793,1754
1859,1805,1765
1903,1872,1904
1958,1917,1931
1921,1895,1810
1897,1851,1799
1898,1851,1887
1872,1866,1907
1838,1851,1792
1881,1895,1794
1899,1916,1918
1861,1872,1889
1839,1851,1791
1877,1815,1779
1897,1925,1906
1886,1907,1907
1825,1771,1763
1910,1818,1773
1905,1957,1891
1910,1911,1922
1877,1783,1805
1904,1881,1801
1907,1927,1908
1863,1901,1905
1855,1852,1766
1841,1857,1754
1893,1890,1906
1835,1878,1915
1881,1815,1789
1886,1806,1798
1899,1922,1903
1873,1936,1889
1823,1792,1775
1865,1822,1786
1903,1939,1907
1952,1962,1931
1841,1902,1766
1856,1840,1790
1887,1883,1891
1891,1879,1919
1837,1755,1776
1893,1824,1782
1875,1931,1901
1882,1936,1913
1854,1815,1805
1897,1808,1776
1904,1945,1892
1881,1965,1936
1841,1819,1802
1877,1851,1792
1905,1997,1892
1897,1991,1914
1840,1745,1792
1856,1798,1774
1904,1841,1892
1892,1926,1911
1858,1892,1792
1836,1811,1765
1906,1858,1873
1894,1895,1893
1863,1843,1809
1895,1830,1810
1919,1909,1909
1889,1968,1907
1844,1831,1785
1873,1825,1774
1902,1955,1905
1899,1908,1935
1848,1858,1823
1855,1847,1782
1898,1856,1863
1875,1881,1874
1805,1857,1776
1891,1854,1789
1932,1918,1915
1929,1911,1926
1857,1831,1790
1914,1827,1787
1926,1934,1914
1886,1920,1920
1850,1827,1776
1907,1785,1766
1925,1846,1879
1890,1959,1936
1857,1885,1792
1882,1834,1757
1959,1840,1886
1882,1899,1906
1898,1827,1805
1904,1839,1807
1902,1887,1897
1935,1877,1909
1872,1854,1808
1885,1873,1786
1904,1873,1878
1879,1868,1881
1847,1808,1779
1888,1837,1777
1923,1936,1903
1890,1897,1897
1836,1817,1738
1872,1775,1761
1911,1940,1922
1883,1936,1904
1874,1805,1790
1875,1792,1763
1843,1853,1868
1918,1861,1885
1840,1807,1776
1936,1830,1785
1897,1894,1904
1879,1961,1904
1857,1854,1794
1874,1811,1785
1917,1907,1879
1878,1928,1904
1840,1793,1775
1867,1761,1776
1904,1893,1892
1890,1968,1913
1853,1829,1790
1859,1839,1765
1890,1908,1874
1886,1875,1905
1840,1801,1779
1906,1818,1757
1920,1872,1875
1901,1883,1903
1886,1839,1807
1887,1808,1788
1926,1869,1904
1850,1884,1910
1877,1861,1801
1830,1812,1763
1911,1877,1875
1881,1920,1904
1904,1903,1802
1811,1847,1792
1904,1928,1872
1850,1904,1894
1806,1815,1799
1903,1750,1780
1850,1920,1879
1871,1892,1907
1840,1794,1791
1862,1791,1779
1895,1894,1893
1850,1969,1911
1887,1855,1794
1872,1877,1793
1909,1915,1909
1879,1840,1905
1823,1799,1776
1856,1837,1775
1882,1922,1890
1867,1947,1951
1835,1831,1835
1842,1798,1776
1873,1847,1872
1862,1904,1904
1855,1838,1789
1799,1835,1789
1897,1967,1916
1888,1933,1926
1827,1758,1780
1837,1754,1769
1840,1865,1876
1920,1872,1906
1920,1795,1787
1841,1868,1776
1932,1938,1886
1863,1917,1905
1845,1825,1799
1860,1808,1783
1889,1902,1887
1849,1987,1894
1846,1835,1776
1872,1750,1788
1887,1913,1893
1872,1908,1909
1825,1744,1780
1862,1808,1782
1890,1927,1899
1857,1904,1899
1821,1808,1790
1856,1837,1779
1891,1920,1901
1871,1922,1907
1840,1869,1787
1840,1813,1774
1871,1879,1887
1863,1882,1904
1831,1793,1779
1859,1831,1776
1883,1945,1873
1861,1941,1902
1824,1793,1778
1858,1791,1761
1882,1890,1869
1869,1909,1918
1830,1814,1797
1871,1837,1795
1885,1904,1882
1859,1947,1906
1828,1834,1803
1840,1777,1770
1890,1866,1898
1877,1904,1929
1843,1829,1792
1855,1856,1773
1887,1925,1878
1862,1873,1901
1825,1843,1790
1853,1845,1778
1879,1893,1884
1867,1910,1894
1840,1813,1781
1855,1846,1774
1877,1904,1873
1865,1834,1898
1827,1773,1776
1855,1805,1764
1879,1891,1855
1872,1879,1879
1835,1836,1791
1861,1861,1795
1884,1895,1883
1866,1901,1900
1834,1835,1787
1856,1870,1776
1878,1857,1870
1855,1870,1877
1840,1777,1790
1859,1827,1771
1877,1852,1863
1850,1897,1895
1829,1839,1788
1856,1856,1773
1875,1904,1879
1862,1849,1897
1830,1819,1789
1869,1903,1795
1882,1927,1891
1847,1857,1896
1813,1766,1776
1847,1870,1782
1884,1936,1904
1865,1860,1895
1819,1760,1770
1839,1755,1765
1877,1892,1886
1852,1919,1895
1808,1822,1781
1838,1798,1782
1877,1910,1895
1866,1921,1917
1825,1911,1790
1858,1847,1787
1879,1889,1885
1854,1872,1897
1814,1795,1791
1842,1826,1773
1873,1868,1876
1863,1905,1919
1825,1855,1808
1822,1792,1757
1863,1890,1888
1856,1931,1910
1831,1837,1799
1859,1858,1808
1872,1920,1889
1849,1856,1911
1826,1808,1807
1843,1814,1789
1888,1964,1903
1869,1896,1918
1823,1819,1791
1856,1867,1787
1872,1903,1867
1847,1878,1888
1831,1827,1786
1872,1895,1799
1871,1899,1879
1845,1867,1889
1821,1808,1795
1864,1850,1798
1887,1901,1899
1861,1885,1909
1828,1879,1799
1865,1818,1797
1886,1926,1899
1843,1900,1891
1811,1802,1779
1854,1843,1777
1887,1942,1901
1859,1929,1915
1808,1787,1790
1855,1810,1798
1884,1947,1899
1861,1980,1890
1814,1851,1792
1843,1776,1806
1872,1840,1887
1862,1919,1904
1818,1849,1783
1840,1852,1781
1872,1937,1897
1855,1863,1904
1808,1810,1783
1847,1834,1799
1887,1893,1919
1863,1974,1926
1826,1868,1803
1852,1879,1792
1879,1865,1890
1849,1870,1885
1818,1855,1790
1854,1867,1794
1872,1910,1904
1855,1872,1907
1829,1808,1781
1858,1846,1805
1882,1895,1893
1843,1904,1887
1814,1786,1782
1852,1843,1793
1890,1931,1903
1858,1887,1898
1822,1805,1799
1866,1871,1821
1903,1958,1935
1859,1913,1920
1830,1801,1806
1853,1800,1777
1873,1905,1889
1863,1915,1909
1819,1809,1814
1856,1897,1811
1877,1907,1887
1871,1890,1913
1837,1817,1799
1852,1856,1786
1880,1910,1898
1859,1852,1889
1829,1794,1786
1861,1807,1805
1878,1869,1909
1844,1901,1913
1819,1904,1789
1850,1922,1775
1872,1895,1904
1859,1869,1920
1831,1820,1798
1869,1919,1797
1878,1872,1895
1840,1823,1888
1809,1766,1774
1843,1826,1781
1879,1952,1892
1861,1886,1911
1829,1830,1801
1861,1803,1789
1886,1887,1902
1857,1968,1897
1815,1828,1789
1854,1930,1786
1884,1920,1904
1861,1851,1918
1837,1799,1795
1855,1806,1786
1872,1878,1886
1855,1866,1904
1823,1814,1798
1858,1872,1788
1883,1962,1904
1859,1911,1920
1827,1777,1787
1866,1871,1798
1895,1920,1904
1859,1840,1903
1832,1808,1805
1863,1794,1795
1891,1904,1898
1863,1913,1917
1843,1818,1811
1863,1797,1776
1877,1920,1855
1851,1973,1889
1826,1789,1795
1859,1819,1781
1886,1917,1888
1862,1949,1904
1835,1921,1794
1870,1901,1819
1889,1937,1907
1859,1808,1893
1835,1712,1781
1862,1791,1777
1893,1936,1911
1873,1907,1933
1828,1808,1782
1849,1724,1781
1889,1936,1891
1872,2032,1919
1847,1959,1812
1845,1714,1770
1871,1744,1873
1847,1839,1891
1829,1804,1807
1869,1825,1806
1901,1909,1911
1872,1931,1926
1837,1830,1801
1853,1890,1767
1887,1857,1886
1861,1894,1914
1847,1959,1821
1862,1898,1791
1873,1850,1871
1851,1830,1868
1831,1819,1776
1855,1837,1803
1879,1913,1911
1866,1887,1924
1840,1816,1795
1863,1867,1794
1875,1936,1893
1872,1961,1904
1837,1863,1777
1856,1808,1791
1904,1926,1920
1882,1912,1933
1842,1715,1797
1862,1836,1789
1890,1959,1889
1856,1906,1902
1830,1809,1802
1863,1859,1782
1894,2060,1886
1869,1905,1916
1839,1847,1805
1856,1808,1798
1887,1978,1903
1857,1883,1899
1836,1861,1799
1861,1692,1806
1882,1909,1904
1858,1935,1910
1831,1818,1794
1861,1822,1793
1889,1907,1887
1863,1904,1914
1819,1840,1789
1847,1844,1791
1885,1937,1909
1872,1968,1922
1825,1803,1786
1840,1896,1782
1868,1908,1883
1856,1904,1908
1823,1789,1791
1847,1845,1803
1879,1854,1903
1865,1867,1926
1841,1757,1787
1856,1907,1790
1881,1948,1902
1853,1840,1909
1812,1799,1787
1850,1753,1776
1881,1894,1883
1856,1987,1899
1824,1843,1799
1839,1830,1779
1863,1791,1886
1842,1829,1895
1814,1807,1781
1854,1846,1791
1872,1902,1883
1853,1891,1895
1831,1810,1806
1866,1848,1812
1872,1883,1875
1856,1907,1904
1834,1873,1808
1851,1763,1777
1877,1923,1886
1859,1925,1927
1824,1781,1789
1845,1817,1759
1870,1869,1877
1853,1867,1905
1835,1834,1789
1855,1823,1789
1872,1869,1878
1857,1901,1903
1836,1857,1783
1859,1873,1791
1895,1891,1904
1871,1838,1901
1830,1813,1789
1851,1870,1782
1884,1874,1894
1870,1970,1910
