1737,2042,1915
1837,2014,2047
1840,2083,1894
1747,2177,1904
1744,2198,1925
1715,2150,1775
1712,2207,1796
1743,2317,1867
1712,2367,1791
1728,2409,1791
1745,2522,1834
1713,2647,1861
1711,2724,1834
1757,2771,1744
1786,2871,1793
1749,2967,1879
1750,3008,1838
1709,3018,1793
1771,3089,1839
1729,3180,1874
1725,3167,1807
1718,3143,1739
1728,3177,1741
1714,3268,1875
1712,3283,1818
1738,3286,1771
1746,3358,1775
1712,3440,1822
1702,3478,1808
1727,3415,1735
1739,3451,1760
1712,3520,1819
1684,3475,1789
1705,3403,1713
1774,3443,1770
1764,3501,1855
1738,3467,1837
1751,3376,1751
1760,3361,1759
1739,3390,1825
1730,3339,1821
1763,3257,1756
1789,3251,1774
1747,3251,1840
1724,3182,1804
1771,3118,1753
1783,3089,1779
1754,3089,1856
1750,3024,1825
1775,2932,1741
1781,2906,1745
1773,2921,1835
1776,2874,1833
1821,2799,1759
1834,2775,1776
1799,2771,1839
1788,2730,1825
1825,2659,1791
1845,2640,1822
1814,2641,1887
1840,2602,1858
1867,2503,1771
1881,2486,1789
1803,2507,1895
1878,2470,1900
1876,2403,1822
1873,2373,1835
1846,2368,1891
1843,2313,1865
1921,2251,1809
1933,2238,1841
1842,2240,1910
1891,2192,1888
1863,2126,1823
1925,2110,1840
1888,2105,1904
1887,2058,1883
1911,1984,1819
1936,1995,1875
1920,2001,1957
1903,1967,1924
1937,1904,1853
1936,1887,1872
1888,1891,1937
1884,1866,1935
1908,1817,1885
1942,1814,1904
1969,1823,1971
1955,1792,1957
1973,1736,1890
2000,1744,1943
2044,1771,2039
2040,1744,2031
2068,1690,1959
2096,1701,2000
2079,1724,2092
2083,1690,2069
2128,1645,2001
2149,1651,2043
2109,1665,2110
2118,1638,2097
2202,1584,2042
2183,1566,2064
2140,1596,2126
2127,1562,2111
2160,1499,2042
2177,1502,2071
2157,1531,2134
2176,1509,2128
2207,1457,2064
2203,1455,2079
2157,1473,2142
2118,1437,2122
2186,1390,2047
2225,1392,2071
2194,1414,2128
2192,1391,2117
2155,1350,2058
2181,1350,2083
2163,1375,2141
2128,1363,2119
2209,1328,2064
2181,1339,2092
2150,1331,2130
2154,1323,2113
2171,1282,2047
2206,1296,2064
2168,1312,2113
2158,1280,2083
2148,1243,2007
2180,1264,2033
2143,1294,2128
2169,1273,2095
2147,1232,2013
2160,1246,2032
2128,1258,2110
2119,1260,2103
2149,1230,2032
2151,1246,2043
2116,1278,2107
2109,1264,2077
2145,1222,2013
2157,1250,2037
2098,1285,2112
2148,1264,2085
2176,1229,2014
2121,1251,2027
2085,1282,2096
2064,1280,2076
2126,1242,2005
2139,1247,2032
1999,1284,2081
2000,1282,2071
2125,1247,2000
2144,1265,2019
2099,1296,2084
2085,1279,2059
2102,1256,1991
2112,1279,2016
2087,1309,2078
2064,1303,2055
2097,1277,2000
2098,1290,2014
2045,1313,2070
2016,1311,2038
2059,1296,1983
2080,1318,2013
2065,1333,2064
2023,1326,2025
2021,1318,1968
2130,1329,1991
2099,1355,2058
2038,1351,2032
2019,1328,1959
2067,1340,1974
1984,1364,2027
2027,1366,2000
2007,1350,1936
2097,1365,1967
1967,1393,2032
2016,1389,2005
1965,1360,1938
2057,1389,1957
1949,1409,2011
1946,1392,1990
2005,1375,1929
2037,1399,1953
1985,1418,1998
1970,1418,1977
2064,1400,1929
2000,1417,1947
1953,1440,1989
1954,1438,1950
1968,1423,1894
1988,1439,1921
1948,1457,1984
1925,1455,1965
1968,1430,1905
1977,1450,1918
1946,1488,1973
1930,1482,1955
1877,1456,1894
1979,1465,1964
1930,1500,2021
1918,1488,1949
1939,1474,1872
1932,1499,1914
1984,1525,1973
1905,1515,1917
1907,1493,1841
1941,1519,1893
1901,1568,1961
1879,1535,1919
1920,1519,1841
1842,1535,1872
1930,1575,1930
1812,1568,1908
1904,1535,1843
1934,1564,1861
1910,1585,1911
1871,1583,1893
1917,1571,1837
1920,1585,1851
1898,1616,1904
1885,1600,1883
1910,1586,1808
1911,1600,1827
1872,1634,1904
1865,1627,1874
1903,1616,1819
1915,1632,1843
1877,1661,1891
1868,1648,1856
1881,1618,1786
1904,1639,1815
1874,1662,1886
1871,1654,1862
1904,1634,1799
1904,1649,1810
1876,1686,1872
1856,1677,1840
1877,1647,1781
1888,1665,1814
1859,1690,1875
1856,1681,1841
1890,1666,1788
1880,1680,1815
1860,1712,1879
1859,1697,1845
1889,1674,1779
1889,1694,1803
1872,1736,1875
1862,1723,1851
1883,1691,1776
1893,1712,1806
1856,1737,1861
1841,1729,1826
1874,1703,1771
1895,1725,1790
1854,1761,1857
1855,1759,1851
1884,1728,1779
1879,1739,1794
1840,1772,1858
1830,1768,1828
1868,1743,1762
1868,1753,1780
1840,1777,1837
1826,1774,1809
1858,1748,1762
1867,1771,1795
1831,1788,1842
1815,1777,1803
1845,1753,1744
1859,1766,1773
1829,1791,1842
1821,1776,1823
1847,1756,1752
1846,1767,1763
1823,1791,1819
1813,1783,1807
1841,1769,1749
1853,1777,1775
1823,1799,1831
1815,1795,1813
1840,1775,1744
1829,1783,1762
1797,1809,1823
1801,1795,1805
1850,1783,1747
1840,1791,1773
1809,1815,1829
1809,1808,1792
1840,1790,1743
1844,1802,1776
1812,1835,1835
1798,1819,1799
1831,1793,1737
1840,1806,1766
1816,1840,1828
1804,1826,1811
1838,1803,1759
1845,1813,1778
1808,1850,1833
1808,1840,1808
1844,1810,1746
1841,1829,1776
1794,1847,1828
1792,1834,1795
1825,1819,1745
1840,1840,1773
1808,1861,1825
1797,1855,1798
1833,1840,1743
1837,1842,1767
1792,1861,1808
1790,1854,1799
1822,1837,1759
1835,1854,1783
1796,1865,1824
1787,1859,1802
1833,1840,1741
1829,1843,1759
1788,1869,1827
1793,1856,1808
1828,1840,1751
1834,1854,1765
1787,1877,1820
1776,1861,1783
1818,1835,1730
1818,1853,1757
1785,1873,1823
1789,1861,1799
1835,1847,1751
1826,1865,1776
1775,1875,1808
1767,1863,1781
1819,1856,1757
1822,1870,1776
1776,1883,1822
1769,1869,1785
1807,1853,1757
1825,1867,1795
1789,1882,1839
1776,1881,1796
1813,1871,1751
1821,1878,1783
1792,1897,1840
1782,1888,1841
1808,1865,1774
1808,1872,1779
1787,1904,1872
1783,1905,1871
1808,1871,1801
1809,1872,1776
1771,1893,1819
1773,1891,1817
1813,1876,1744
1813,1891,1763
1780,1914,1821
1779,1903,1789
1813,1877,1734
1815,1888,1770
1783,1906,1821
1766,1903,1783
1799,1879,1733
1819,1901,1767
1785,1918,1820
1776,1907,1792
1798,1879,1714
1802,1890,1746
1777,1921,1822
1779,1909,1806
1813,1947,1744
1811,1936,1770
1768,1952,1814
1776,1888,1802
1808,1879,1745
1810,1872,1771
1765,1924,1823
1771,1902,1793
1806,1939,1745
1808,1881,1776
1777,1937,1837
1766,1889,1808
1807,1914,1755
1811,1872,1776
1766,1895,1817
1755,1905,1796
1808,1907,1749
1807,1925,1787
1776,1910,1845
1774,1961,1812
1808,1843,1757
1792,1904,1773
1766,1987,1829
1782,1953,1822
1820,1906,1776
1826,1910,1795
1769,1939,1837
1756,1931,1792
1802,1910,1754
1808,1901,1781
1782,1971,1840
1777,1920,1813
1806,1907,1765
1810,1924,1794
1776,1905,1839
1767,1923,1796
1814,1927,1744
1826,1936,1786
1776,1949,1853
1774,1921,1807
1803,1875,1733
1819,1914,1779
1790,1955,1846
1776,1916,1817
1808,1904,1763
1815,1920,1788
1783,1939,1835
1777,1911,1795
1797,1904,1749
1808,1919,1793
1782,1934,1843
1776,1925,1803
1808,1883,1757
1808,1947,1796
1775,1903,1855
1774,1890,1815
1808,1926,1760
1808,1904,1793
1776,1974,1850
1781,1889,1820
1814,1922,1759
1806,1939,1779
1787,1883,1842
1783,1868,1820
1815,1895,1762
1813,1947,1791
1778,1924,1850
1779,1915,1815
1808,1907,1756
1808,1942,1797
1774,1909,1844
1775,1919,1811
1814,1914,1757
1824,1911,1806
1790,1936,1867
1785,1915,1828
1815,1887,1766
1819,1973,1798
1778,1938,1850
1771,1905,1807
1809,1899,1758
1827,1919,1810
1798,1936,1875
1803,1924,1842
1825,1889,1773
1824,1895,1797
1792,1972,1885
1791,1937,1859
1824,1859,1783
1824,1897,1811
1789,1919,1862
1783,1899,1834
1826,1969,1778
1826,2032,1808
1788,1906,1868
1795,1894,1842
1834,1854,1787
1831,1879,1809
1786,1966,1856
1790,1918,1819
1823,1900,1782
1839,1979,1843
1819,2055,1897
1791,1868,1824
1827,1824,1777
1847,1932,1822
1826,1978,1872
1834,1885,1810
1886,1655,1730
1792,1721,1802
1765,1931,1889
1813,2240,1866
1810,1747,1723
1830,1579,1755
1776,1691,1837
1739,1874,1839
1808,2160,1785
1841,1927,1813
1767,1613,1843
1763,1649,1808
1805,1719,1741
1810,1805,1766
1775,1808,1840
1759,1840,1790
1797,1821,1712
1794,1808,1790
1760,1920,1842
1755,1850,1810
1755,1748,1721
1776,1739,1745
1793,1967,1851
1790,1984,1829
1792,1846,1753
1776,1690,1739
1749,1671,1776
1771,1759,1782
1783,1751,1715
1743,1744,1795
1685,1879,1873
1658,1744,1794
1670,1686,1727
1654,1644,1753
1591,1603,1809
1584,1631,1786
1636,1903,1751
1649,1710,1779
1584,1664,1806
1570,1725,1792
1600,1845,1762
1598,1674,1792
1564,1754,1826
1531,1535,1766
1571,1496,1729
1598,1721,1774
1557,1634,1827
1557,1680,1806
1602,1885,1792
1575,1627,1773
1524,1517,1788
1535,1568,1772
1552,1475,1713
1595,1565,1821
1563,1590,1857
1535,1723,1798
1584,1611,1761
1584,1424,1751
1563,1450,1795
1531,1535,1770
1573,1605,1757
1571,1557,1793
1533,1584,1842
1535,1586,1805
1597,1631,1751
1593,1472,1786
1535,1424,1886
1554,1485,1803
1535,1475,2448
1494,1479,1616
1453,1678,1483
1502,1584,1889
1561,1380,1806
1520,1571,1782
1481,1326,1837
1492,1357,1750
1513,1449,1856
1510,1535,2177
1488,1598,1726
1522,1457,1653
1583,1470,1774
1585,1589,1846
1471,1393,1808
1428,1355,1839
1525,1625,1817
1598,1732,1839
1573,1382,1887
1533,1345,1815
1569,1405,1830
1582,1591,1807
1535,1504,1734
1583,1879,1753
1616,1606,2064
1511,1021,1774
1493,1168,1848
1590,1393,1933
1639,1631,1765
1634,1529,2787
1240,1264,3370
821,1089,1317
673,723,2478
611,807,976
464,431,978
612,632,628
758,797,1402
877,927,2646
895,1037,1731
974,890,1392
1191,1105,1661
1262,1187,1857
1198,1296,1872
1292,1414,1840
1726,1198,1821
1911,1198,1823
1887,1424,1827
1838,1413,1824
1821,1338,1833
1827,1294,1827
1839,1418,1828
1835,1584,1827
1836,1637,1830
1827,1671,1831
1834,1561,1830
1835,1337,1827
1830,1419,1825
1833,1718,1825
1837,1766,1828
1838,1826,1824
1833,1417,1830
1829,1447,1829
1831,1644,1828
1825,1831,1825
1831,1566,1827
1833,1573,1835
1835,1695,1806
1837,1792,1726
1837,1774,1769
1831,1679,1744
1831,1648,1750
1829,1712,1663
1833,1775,1599
1833,1966,1675
1829,2202,1718
1846,1633,1712
1907,1507,1663
1857,1661,1558
1717,1669,1583
1775,1783,1626
2077,1840,1521
1787,1904,1582
1659,2037,1742
1743,2054,1648
1786,1619,1488
1755,1613,1553
1729,1862,1651
1901,1983,1603
1798,1763,1452
1658,1723,1567
1651,1940,1646
1777,1917,1663
1769,1870,1563
1695,1997,1515
1641,1746,1585
1738,2047,1600
1782,1838,1516
1713,1755,1535
1595,1861,1535
1590,1841,1505
1662,1711,1447
1680,2163,1561
1450,1887,1616
1406,1628,1535
1573,1792,1488
1567,1936,1584
1535,2035,1639
1584,1921,1521
1555,1873,1518
1465,1774,1514
1360,1859,1535
1398,1877,1535
1519,1970,1535
1534,2013,1559
1433,1904,1645
1454,1823,1494
1414,1765,1467
1430,1968,1574
1392,1822,1601
1447,1951,1555
1579,1831,1484
1535,1923,1535
1392,2090,1657
1411,2042,1655
1417,1797,1471
1498,2064,1559
1419,1939,1584
1559,1707,1593
1474,1645,1514
1431,1886,1600
1413,2123,1675
1408,1915,1568
1523,2026,1520
1646,2086,1568
1485,1863,1642
1405,1764,1559
1463,1838,1561
1429,1879,1633
1469,2095,1669
1513,2157,1625
1500,1798,1596
1535,1877,1583
1456,1888,1585
1414,1951,1647
1489,1921,1607
1504,2029,1697
1488,2304,1735
1459,1760,1590
1568,1589,1479
1655,1744,1491
1422,1824,1615
1360,1889,1709
1471,2178,1705
1509,2247,1679
1489,1715,1789
1627,1698,1586
1520,1750,1461
1488,1891,1607
1459,2031,1753
1520,2008,1639
1572,1953,1619
1505,2034,1680
1470,1893,1771
1535,1932,1663
1527,1967,1642
1535,1921,1642
1570,1935,1744
1526,2128,1728
1504,1908,1648
1655,1954,1677
1526,1843,1714
1514,1804,1693
1607,1879,1715
1616,1968,1799
1424,2102,1661
1396,1984,1654
1535,1901,1635
1673,2128,1748
1598,1854,1799
1472,1892,1774
1485,1847,1615
1510,2108,1641
1517,1962,1696
1617,1698,1728
1701,1754,1664
1618,1905,1703
1424,2128,1744
1421,2001,1759
1570,1724,1648
1651,1906,1744
1710,2096,1869
1712,1949,1791
1464,1712,1617
1433,1847,1742
1526,2192,1815
1629,2067,1759
1605,1600,1606
1535,1623,1674
1535,2027,1840
1578,1913,1833
1658,1707,1664
1665,1823,1803
1689,2195,1825
1447,1717,1629
1535,1694,1690
1673,1990,1765
1695,2186,1825
1501,1664,1776
1569,1598,1763
1613,1858,1749
1601,2096,1811
1754,2029,1826
1712,1599,1609
1664,1705,1726
1601,2141,1888
1535,1855,1810
1659,1767,1741
1663,1680,1853
1648,1894,1841
1765,2009,1843
1744,1805,1761
1680,1931,1779
1637,1867,1882
1657,1791,1841
1885,1970,1687
1793,1754,1711
1570,1757,1873
1680,2086,1891
1680,1948,1857
1675,1913,1846
1728,1683,1808
1713,1871,1808
1707,1943,1773
1771,1950,1778
1881,1744,1808
1682,1783,1891
1622,1915,1849
1741,1941,1815
1787,1968,1917
1798,1867,1833
1792,1845,1791
1808,1725,1826
1631,1777,1879
1662,1867,1893
1771,1899,1856
1809,1963,1875
1825,2026,1936
1840,1961,1815
1821,1663,1701
1761,1753,1811
1647,1854,2037
1713,1904,1959
1808,1872,1735
1843,1929,1844
1792,1970,1860
1744,1822,1909
1802,1614,1813
1755,1822,1790
1783,1975,1913
1823,1744,1811
1921,1821,1691
1781,1851,1856
1805,2027,1973
1744,1834,1873
1718,1653,1787
1744,1839,1842
1780,1901,1886
1785,1782,1859
1821,2000,1825
1886,2128,1922
1762,1617,1904
1750,1621,1812
1840,1788,1775
1875,1885,1844
1815,1893,1961
1802,1961,1909
1853,1984,1808
1824,1718,1808
1741,1717,1904
1745,1805,1911
1824,1930,1883
1826,1825,1863
1787,1749,1936
1882,1904,1895
1861,1806,1841
1825,1802,1840
1785,1953,1878
1809,1975,1879
1834,1744,1817
1886,2016,1911
1823,1813,1904
1782,1618,1877
1872,1808,1916
1856,1919,1898
1817,1965,1936
1813,1861,1869
1916,1927,1904
1905,1979,1902
1797,1712,1850
1825,1718,1845
1838,1844,1859
1838,1829,1869
1784,1893,1947
1807,1937,1906
1841,1850,1875
1854,1943,1954
1839,2072,2015
1813,1746,1855
1850,1776,1819
1867,1827,1873
1872,1963,1939
1901,1950,1948
1895,1900,1942
1813,1841,1904
1805,1887,1815
1805,1881,1888
1846,1904,1930
1890,1909,1936
1837,1900,1910
1838,1827,1952
1947,1873,1908
1875,1885,1845
1811,1839,1899
1854,1949,1907
1949,1947,1930
1857,1963,1914
1833,1914,1919
1904,1806,1872
1936,1877,1878
1840,2088,1925
1811,1994,1954
1850,1837,1889
1921,1830,1889
1888,1942,1914
1859,2013,1981
1872,1807,1907
1914,1872,1883
1909,2045,1967
1872,1950,1883
1838,1872,1851
1961,2034,1942
1933,1819,1906
1823,1741,1875
1837,1903,1918
1964,1963,1872
1879,1935,1927
1778,1974,1994
1791,1856,1886
1979,1915,1887
1948,1922,1916
1873,1993,1953
1902,2127,1950
1922,2041,1870
1891,1794,1865
1854,1776,1921
1908,1918,1927
1937,1891,1890
1920,2073,1942
2003,2035,1921
1873,2025,1905
1873,1683,1841
1939,1767,1882
1831,1954,1984
1831,2064,1997
1871,1883,1927
2037,1939,1895
1906,1941,1841
1838,1890,1891
1885,1942,1919
1968,1925,1997
1795,1868,1921
1905,2192,1953
1982,2010,1894
1989,1938,1856
1870,1782,1926
1814,1740,1904
1876,1925,1851
2027,2047,1889
1939,1803,1901
1919,1775,1895
1947,1888,1831
1983,1941,1939
1894,2019,1954
1876,2029,1883
1854,1904,1857
1889,2124,1982
1974,1859,1968
1850,1729,1808
1872,1862,1878
1920,2187,1966
1906,1946,1930
1882,1803,1820
1872,1787,1823
1954,2000,1943
1879,1943,1983
1936,1923,1939
1969,1995,1879
1988,1872,1825
1893,1840,1905
1840,1856,1893
1872,1946,1885
1915,2112,1851
1875,1911,1895
1865,1779,1862
1994,1846,1863
1920,2047,1915
1861,2125,1982
1907,1858,1870
1890,1766,1813
1903,1925,1890
1877,1946,1927
1922,1871,1879
1923,2033,1867
1917,1977,1919
1903,2031,1975
1920,1995,1933
1950,1914,1862
1935,2064,1927
1946,1932,1950
1954,1792,1888
1911,1975,1822
1889,2047,1927
1900,1984,1952
1935,1911,1851
1959,1951,1856
1911,2006,1933
1819,1970,1931
1914,2055,1895
1904,1942,1842
1926,1906,1862
1936,1986,1922
1907,2035,1880
1981,2099,1920
1943,1951,1887
1901,1875,1904
1872,1986,1898
1920,2042,1862
1990,2019,1873
1882,1915,1902
1883,1894,1881
1915,1981,1834
1927,1974,1904
1878,1941,1967
1926,1875,1935
1959,2028,1825
2000,2062,1874
1935,1994,1947
1953,1934,1919
1984,2041,1785
1918,1968,1853
1819,1982,1908
1873,1921,1894
1968,2162,1936
1920,1983,1904
1874,1877,1871
1963,1920,1820
1958,1931,1809
1907,2002,1885
1955,2056,1951
1938,2096,1950
1953,1934,1830
1942,1914,1808
1918,1971,1844
1889,1963,1875
1921,1983,1853
1824,2033,1879
1933,2032,1951
2014,1943,1909
1904,2003,1840
1924,2037,1878
1907,2109,1925
1893,1927,1817
1943,1915,1808
1936,2021,1866
1926,2196,1957
1920,2015,1910
1950,1843,1811
1966,1986,1839
1981,2042,1917
2097,1963,1840
1954,2030,1895
1892,1863,1851
1862,1926,1834
1922,2017,1839
1936,1950,1839
1936,1999,1874
1890,2062,1923
1941,2028,1899
1946,2058,1859
1961,2112,1875
1885,2057,1883
1937,2099,1853
1989,1876,1808
1931,1797,1841
1936,1956,1899
1951,2042,1862
1984,2094,1830
1930,1975,1877
1909,1959,1948
1920,2031,1901
1936,2001,1787
1913,1973,1797
1904,2081,1872
1942,1919,1865
2004,1887,1801
1961,1947,1850
1865,2128,1937
1903,2064,1856
1984,1947,1763
1929,2055,1859
1898,2001,1957
1904,1965,1840
1920,1897,1786
1913,1962,1846
1904,2042,1927
1967,1937,1872
1961,1946,1825
1921,2028,1853
1904,2111,1893
1880,1915,1836
1919,1881,1820
1934,2016,1856
1906,2151,1890
1900,1853,1837
1957,1845,1792
1968,1888,1840
1915,1974,1918
1904,1971,1858
2037,2005,1824
1991,1990,1831
1847,1940,1903
1810,1957,1850
1909,2103,1838
1937,2015,1872
1887,1910,1861
1913,1863,1839
1954,2032,1822
1949,2021,1855
1894,2017,1909
1893,1950,1841
1942,1879,1793
1954,1907,1892
1953,1963,1926
1882,2064,1819
1948,1971,1799
1921,1879,1907
1959,1946,1893
1872,1978,1799
1874,1936,1801
1911,1959,1902
1858,1947,1903
1871,1954,1816
1946,1968,1842
1967,2046,1871
1909,1991,1897
1895,1941,1849
1937,1872,1792
1927,1920,1834
1899,2087,1872
1943,1862,1818
1953,1868,1835
1893,1922,1901
1856,1973,1895
1988,1911,1845
1948,1906,1745
1874,1968,1852
1872,1979,1970
1904,1968,1878
1908,2014,1791
1890,1834,1843
1866,1819,1936
1889,1875,1811
1943,1931,1776
1970,1995,1843
1899,1939,1921
1879,1942,1844
1936,1990,1808
1931,1983,1840
1874,1728,1865
1882,1791,1830
1955,1957,1785
1911,1925,1845
1877,1872,1872
1917,1902,1825
1907,2000,1833
1936,1891,1842
1850,1826,1872
1854,1866,1845
1919,1869,1798
1891,1923,1815
1902,1853,1876
1879,1856,1840
1911,1947,1797
1941,1971,1835
1843,1837,1894
1840,1735,1819
1919,1870,1780
1939,2085,1874
1869,1926,1879
1858,1777,1866
1903,1730,1773
1908,1881,1819
1902,2032,1891
1893,1789,1808
1929,1739,1753
1884,1831,1821
1875,1933,1918
1969,1969,1906
1923,1824,1824
1872,1773,1797
1856,1968,1910
1878,1872,1842
1927,1843,1753
1936,1786,1795
1867,1776,1898
1889,1876,1883
1958,1907,1851
1903,1751,1813
1887,1728,1888
1923,1785,1862
1994,1840,1808
1962,1897,1873
1951,1998,1918
1872,1639,1857
1905,1650,1794
1872,1794,1856
1872,1894,1955
1915,1807,1843
1979,1702,1782
1937,1857,1874
1883,1938,1967
1854,1787,1894
1936,1639,1795
1981,1919,1920
1979,1989,1943
1882,1604,1836
1895,1563,1827
1904,1786,1941
1883,1786,1914
1911,1813,1843
1936,1918,1807
1898,1774,1872
1898,1739,1920
1939,1757,1889
1970,1658,1906
1987,1806,1975
1965,1827,1962
1872,1779,1815
1883,1681,1835
1931,1731,1988
1914,1777,1995
1923,1716,1839
1970,1791,1763
1995,1957,1883
1891,1675,1938
1814,1653,1856
1887,1616,1852
1991,1808,1916
1913,1761,1975
1932,1904,1965
1910,1874,1824
1886,1592,1882
1882,1778,1927
1968,1835,1894
2060,2057,1874
1957,1614,1887
1812,1609,1967
1855,1721,1875
1959,1755,1905
1963,1867,1968
1942,1813,1947
2017,1801,1818
1988,1927,1827
1901,1721,1940
1891,1642,1967
1872,1840,1914
1957,1777,1869
1951,1875,1935
1888,1840,1985
1945,1754,1917
1961,1689,1823
1930,1705,1843
1936,1747,1967
1990,1753,1969
1939,1910,1891
1936,1776,1840
1879,1843,1901
1947,1739,1893
1975,1734,1893
1929,1785,1904
1850,1749,1936
1887,1649,1923
2010,1819,1957
1979,1995,1909
1923,1894,1894
1967,1822,1841
1969,1834,1791
1919,1845,1894
1867,1675,1936
1918,1639,1892
2054,1808,1840
1953,1947,1931
1872,1917,1951
1885,1663,1898
1923,1809,1886
1936,1776,1857
1991,1728,1853
1925,1745,1842
1969,1766,1871
1935,1758,1887
1856,1930,1947
1861,1817,1877
1942,1770,1872
1967,1975,1958
2005,1877,1951
1837,1760,1815
1867,1762,1817
1890,1836,1835
1895,1763,1906
1914,1786,1879
1947,1885,1824
1948,1822,1840
1891,1778,1944
1874,1760,1895
1988,1776,1888
1923,1906,1905
1830,1866,1822
1851,1996,1830
1874,1720,1780
1904,1638,1840
1901,1797,1930
1911,1919,1861
2001,1952,1810
1893,1845,1870
1823,1827,1891
1867,1808,1917
1904,1674,1802
1957,1966,1795
1895,1837,1898
1852,1834,1888
1872,1694,1791
1932,1758,1820
1901,1792,1897
1938,1936,1929
2000,1854,1759
1872,1938,1830
1776,1950,1936
1808,1803,1867
1877,1790,1742
1936,1846,1840
1905,1872,1952
1839,1776,1825
1857,1767,1762
1900,1857,1863
1887,1946,1933
1872,2073,1802
1865,1772,1701
1904,1737,1817
1850,1839,1915
1859,1818,1847
1937,1958,1794
1919,1861,1863
1824,1775,1935
1810,1892,1897
1857,1751,1712
1875,1781,1735
1866,1858,1904
1899,1953,1839
1915,1891,1808
1893,1965,1863
1812,1763,1907
1841,1714,1822
1891,1759,1685
1875,1895,1794
1867,1904,1908
1946,1814,1859
1920,1947,1769
1904,1942,1817
1765,1779,1882
1798,1804,1809
1889,1839,1779
1925,1959,1835
1807,1933,1830
1843,1797,1842
1871,1719,1751
1859,1759,1806
1849,1904,1871
1919,2078,1860
1942,1904,1838
1811,1792,1808
1792,1849,1847
1861,1951,1807
1921,2093,1759
1904,1879,1808
1790,1717,1871
1821,1858,1874
1904,1953,1760
1893,1829,1798
1828,1831,1871
1830,1929,1760
1931,1904,1731
1998,1865,1845
1868,1839,1983
1834,1943,1829
1840,1781,1759
1859,1883,1781
1797,1894,1858
1789,1813,1813
1878,2070,1809
1875,1932,1861
1862,1970,1890
1833,1783,1774
1871,1763,1714
1883,1871,1815
1829,1805,1936
1865,1945,1847
2026,1971,1776
1863,1968,1840
1729,1949,1883
1840,1757,1793
1849,1749,1757
1847,1841,1861
1873,1985,1919
1842,1959,1808
1856,1858,1793
1891,2057,1963
1843,1995,1883
1839,1761,1727
1904,1802,1728
1920,1851,1826
1827,2065,1936
1798,1923,1783
1870,1760,1750
1903,2000,1874
1840,1898,1909
1874,1774,1785
1920,1847,1751
1901,1898,1885
1795,1968,1919
1807,1899,1805
1866,1769,1749
1890,1862,1827
1840,1968,1990
1823,2029,1847
1866,1935,1711
1873,1905,1770
1834,1798,1840
1829,1780,1872
1872,1869,1787
1858,1831,1758
1808,1907,1831
1808,1893,1779
1858,1961,1795
1859,1929,1869
1817,1789,1871
1847,1883,1747
1859,1783,1618
1823,1843,1757
1869,1830,1936
1787,1815,1794
1815,1911,1682
1835,1931,1767
1763,1936,1819
1765,1849,1825
1843,1794,1762
1856,1771,1813
1842,1895,1902
1840,1929,1799
1838,1922,1760
1831,1850,1823
1840,1983,1915
1854,1963,1782
1842,1867,1723
1825,1774,1789
1815,1871,1899
1850,1978,1823
1926,1920,1735
1897,1936,1811
1802,1968,1893
1853,1875,1878
1881,1777,1767
1864,1923,1802
1874,2098,1863
1825,1983,1795
1863,1747,1775
1867,1825,1852
1847,1923,1875
1843,1936,1802
1891,1917,1769
1872,1907,1822
1833,1969,1883
1840,1885,1847
1883,1946,1799
1893,2004,1831
1888,2047,1873
1915,2016,1853
1934,2071,1867
1812,1646,1733
1801,1683,1808
1841,1830,1790
1911,1888,1814
1917,1984,1882
1898,1986,1877
1878,1913,1847
1853,1879,1775
1877,1941,1829
1824,1999,1901
1858,2057,1837
1904,1915,1776
1872,1884,1846
1839,1908,1915
1867,1906,1839
1936,1989,1811
1942,1967,1858
1838,1938,1882
1840,1913,1806
1904,2062,1782
1879,1838,1887
1847,1854,1910
1877,1968,1830
1881,1942,1761
1891,1907,1822
1872,2000,1872
1869,1957,1806
1893,1872,1803
1919,1982,1833
1839,1969,1920
1857,1904,1854
1963,1866,1778
1886,1959,1829
1795,1926,1909
1840,1847,1840
1873,1949,1794
1904,1968,1862
1889,2098,1934
1856,1970,1826
1874,1856,1779
1922,2084,1920
1875,1959,1929
1841,1787,1791
1873,1823,1779
1955,1935,1860
1899,2064,1858
1927,1997,1833
1852,1957,1813
1767,1854,1881
1783,1863,1899
1883,1968,1815
1920,1994,1782
1861,1840,1840
1825,1924,1923
1856,1906,1865
1920,1968,1811
1885,2033,1868
1860,2009,1902
1891,1911,1838
1903,1831,1782
1927,1879,1806
1954,1994,1939
1824,1872,1797
1795,1857,1787
1851,1891,1904
1850,1901,1975
1963,1911,1801
2065,1927,1734
1867,1964,1903
1738,1953,1922
1767,1867,1785
1911,1982,1792
1875,1940,1855
1861,1827,1904
1955,2002,1843
1899,1873,1861
1890,1894,1962
1908,1837,1882
1843,1856,1699
2015,1853,1778
1840,1915,1859
1770,1887,1924
1843,1898,1806
1919,1918,1801
1892,1930,1867
1808,1858,1918
1807,1884,1809
1899,1938,1788
1979,1888,1884
1834,1792,1956
1774,1824,1805
1855,1894,1821
1878,2034,1872
1897,2070,1893
1901,1754,1771
1810,1728,1726
1844,2067,1863
1834,1979,1909
1850,1851,1782
1923,1685,1794
1866,1712,1840
1761,1878,1899
1807,1926,1847
1847,1845,1762
1867,1840,1809
1949,1919,1884
1894,1838,1859
1849,1775,1840
1821,1774,1780
1807,1962,1840
1823,1929,1795
1966,1891,1797
1853,1753,1854
1767,1856,1941
1793,1934,1840
1841,1789,1766
1858,1786,1796
1866,1923,1857
1863,1923,1847
1844,1798,1791
1909,1836,1903
1807,1920,1889
1792,1813,1755
1827,1863,1764
1930,1906,1885
1871,1869,1902
1771,1827,1819
1777,1725,1766
1840,1748,1831
1879,2032,1876
1856,1850,1872
1844,1799,1783
1803,1863,1734
1802,1802,1871
1869,1725,1854
1911,1931,1781
1865,1982,1811
1754,1684,1851
1776,1657,1770
1856,1877,1777
1856,1993,1895
1817,1837,1904
1827,1746,1789
1851,1772,1744
1852,1842,1841
1890,2001,1941
1853,1878,1844
1782,1664,1749
1801,1778,1837
1810,1899,1867
1870,1791,1742
1871,1671,1676
1824,1808,1825
1787,1948,1955
