1904,1923,1878
1867,1929,1893
1889,1872,1791
1919,1868,1786
1891,1899,1872
1858,1891,1882
1895,1864,1790
1933,1876,1785
1905,1904,1900
1871,1919,1893
1882,1886,1776
1907,1855,1773
1897,1898,1890
1862,1893,1887
1879,1851,1776
1910,1863,1775
1887,1904,1872
1857,1890,1872
1887,1871,1775
1925,1887,1783
1901,1910,1872
1850,1898,1861
1875,1881,1776
1921,1875,1790
1901,1883,1871
1856,1830,1856
1857,1797,1755
1905,1852,1775
1887,1920,1863
1846,1920,1872
1874,1814,1779
1904,1839,1794
1883,1910,1883
1854,1907,1874
1877,1861,1783
1911,1894,1775
1878,1895,1867
1845,1875,1857
1875,1823,1774
1904,1851,1771
1872,1901,1863
1840,1895,1862
1877,1861,1779
1936,1886,1776
1904,1932,1872
1851,1873,1865
1875,1833,1767
1926,1841,1772
1904,1887,1872
1874,1963,1882
1883,1855,1761
1909,1781,1745
1882,1840,1847
1699,1859,1867
1722,1831,1771
1906,1840,1772
1952,1883,1859
1915,1885,1854
1925,1826,1748
1943,1850,1769
1920,1878,1858
1904,1857,1846
1979,1845,1762
1973,1881,1782
1923,1881,1854
1913,1842,1853
1951,1843,1743
1938,1831,1739
1936,1820,1856
1935,1851,1837
1947,1808,1739
1962,1787,1757
1997,1849,1840
1927,1873,1839
1996,1840,1747
2022,1839,1749
2000,1872,1840
1975,1879,1846
2035,1854,1731
2053,1823,1753
2017,1872,1871
1903,1846,1871
1420,1831,1744
1513,1862,1758
1911,1901,1840
2096,1877,1845
2112,1813,1757
1220,1825,1755
1456,1889,1849
1998,1869,1847
2192,1830,1750
2113,1830,1746
2047,1856,1851
2015,1872,1872
2096,1805,1767
2133,1807,1773
2144,1837,1854
2071,1828,1833
2091,1834,1783
2151,1856,1808
2110,1847,1879
2065,1832,1849
2064,1805,1727
2108,1863,1751
2099,1861,1875
2032,1854,1877
977,1707,1737
1432,1699,1730
1872,1777,1833
1936,1763,1822
1863,1761,1740
1817,1795,1750
1819,1799,1859
1829,1787,1856
1793,1781,1757
1808,1793,1773
1842,1785,1845
1857,1763,1846
1819,1756,1760
1811,1790,1777
1794,1792,1871
1849,1782,1841
1902,1766,1760
1883,1777,1783
1869,1799,1868
1783,1803,1847
1776,1799,1767
1831,1792,1802
1827,1805,1871
1836,1813,1863
1829,1749,1795
1819,1769,1796
1810,1804,1857
1859,1782,1861
1825,1755,1791
1847,1776,1797
1794,1834,1893
1834,1825,1895
1872,1776,1800
1899,1776,1802
1872,1766,1877
1851,1764,1872
1901,1763,1802
1947,1793,1820
1921,1813,1904
1885,1791,1883
1897,1767,1793
1935,1793,1802
1931,1823,1914
1858,1809,1904
1872,1808,1808
1953,1807,1814
1925,1811,1904
1922,1805,1904
1931,1767,1808
1969,1808,1811
1935,1803,1885
1931,1771,1872
1950,1759,1801
1971,1814,1845
1981,1827,1917
1937,1860,1894
1943,1780,1791
1966,1746,1791
1940,1786,1873
1932,1806,1886
1968,1787,1811
2009,1799,1825
1984,1833,1902
1936,1825,1898
1935,1799,1798
1978,1802,1804
1966,1853,1901
1953,1841,1903
2000,1799,1823
2000,1802,1805
1955,1830,1861
1931,1830,1888
2035,1808,1786
2022,1837,1830
2014,1863,1916
1917,1873,1901
1965,1838,1813
1989,1821,1810
1997,1833,1884
1969,1815,1871
1974,1809,1799
2013,1835,1827
1973,1862,1919
1964,1875,1921
1961,1842,1830
1971,1851,1827
1970,1930,1906
1919,1818,1882
1954,1766,1819
1999,1792,1831
1990,1887,1925
1934,1889,1910
1955,1872,1819
1947,1815,1813
1957,1854,1915
1968,1878,1926
1977,1859,1824
1999,1843,1809
1983,1850,1878
1954,1837,1883
1968,1828,1821
2026,1861,1835
2055,1902,1906
1971,1879,1894
1976,1840,1803
2000,1850,1819
2000,1890,1907
1963,1874,1889
1973,1853,1803
2000,1871,1821
1967,1908,1902
1942,1888,1882
1953,1886,1834
1979,1877,1863
2059,1875,1904
1927,1874,1861
1936,1858,1795
1984,1876,1829
1970,1889,1894
1956,1853,2174
1882,1797,4095
1671,1627,1390
1671,1623,813
1776,1692,1503
1841,1744,1920
1846,1740,1936
1859,1771,1854
1877,1790,1814
1894,1793,1817
1909,1808,1826
1911,1831,1829
1908,1829,1825
1911,1823,1829
1918,1845,1829
1917,1892,1834
1919,1879,1827
1934,1836,1827
1947,1850,1826
1951,1883,1825
1947,1867,1826
1951,1843,1828
1950,1845,1829
1952,1893,1829
1955,1883,1823
1958,1875,1828
1963,1904,1828
1965,1917,1824
1965,1907,1823
1955,1897,1826
1959,1904,1829
1955,1919,1825
1947,1904,1827
1944,1915,1830
1857,1936,1865
1862,1935,1894
1931,1898,1839
1958,1904,1773
1983,1943,1824
1995,1974,1882
1968,1936,1831
1963,1891,1790
1977,1927,1812
1973,1940,1840
1978,1938,1814
1975,1922,1759
1979,2000,1794
1971,1913,1808
1950,1887,1769
1943,1903,1725
1962,1933,1759
1970,1953,1805
1956,1927,1770
1942,1914,1710
1979,1947,1760
1985,1963,1803
1968,1967,1762
1953,1937,1702
1951,1945,1713
1951,1931,1751
1949,1915,1740
1953,1915,1694
1973,1963,1729
1968,1985,1757
1950,1936,1733
1938,1879,1681
1954,1936,1712
1961,1968,1759
1950,1924,1719
1946,1930,1673
1971,1981,1727
1965,1961,1751
1941,1901,1708
1949,1906,1667
1959,1933,1710
1966,1961,1749
1949,1936,1716
1942,1979,1674
1958,1934,1704
1956,1931,1737
1936,1938,1690
1920,1946,1648
1934,1930,1680
1943,1950,1744
1936,1953,1725
1930,1948,1675
1937,1975,1696
1915,1943,1746
1904,1925,1712
1914,1908,1665
1935,1950,1695
1942,1972,1759
1933,1947,1731
1915,1906,1680
1919,1925,1710
1919,1946,1741
1915,1920,1711
1935,1919,1714
1957,1959,1755
1943,1985,1774
1931,1951,1714
1919,1936,1664
1930,1957,1709
1917,1959,1744
1919,1955,1725
1925,1924,1680
1925,1907,1697
1930,1933,1743
1917,1930,1731
1918,1922,1686
1926,1945,1730
1923,1968,1764
1914,1926,1721
1899,1894,1680
1913,1913,1725
1922,1963,1766
1920,1971,1727
1919,2004,1691
1913,1911,1727
1904,1879,1755
1904,1895,1737
1911,1911,1702
1923,1942,1742
1930,1961,1785
1915,1931,1753
1905,1908,1712
1925,1953,1744
1930,1936,1795
1913,1918,1762
1905,1898,1719
1919,1911,1750
1927,1930,1803
1908,1921,1765
1905,1907,1723
1921,1931,1762
1935,1934,1810
1922,1943,1776
1909,1933,1715
1915,1926,1764
1924,1920,1817
1917,1917,1785
1917,1925,1749
1917,1966,1787
1930,1939,1827
1919,1904,1783
1904,1847,1727
1909,1886,1762
1920,1920,1821
1909,1901,1780
1904,1891,1734
1928,1906,1776
1920,1930,1826
1904,1910,1809
1893,1904,1757
1904,1865,1789
1917,1907,1839
1910,1855,1803
1906,1888,1760
1918,1948,1793
1915,1954,1835
1903,1946,1807
1899,1909,1761
1909,1853,1801
1925,1934,1856
1912,1877,1811
1886,1856,1748
1891,1855,1762
1902,1933,1842
1902,1906,1840
1894,1909,1795
1905,1879,1809
1913,1930,1855
1887,1856,1823
1875,1880,1766
1897,1894,1809
1907,1918,1870
1903,1901,1840
1891,1886,1786
1899,1902,1819
1907,1926,1855
1885,1886,1819
1886,1922,1780
1903,1946,1815
1904,1889,1866
1901,1870,1840
1899,1878,1796
1904,1888,1819
1901,1847,1856
1895,1881,1839
1899,1903,1799
1903,1898,1824
1911,1898,1862
1891,1872,1823
1872,1892,1773
1904,1910,1837
1918,1926,1887
1296,1889,1842
406,1881,1798
1469,1899,1827
2113,1904,1875
2109,1887,1859
1954,1881,1810
1910,1871,1845
1917,1920,1886
1920,1904,1846
1921,1895,1809
1933,1859,1856
1947,1872,1904
1923,1874,1862
1910,1882,1798
1913,1900,1841
1923,1911,1894
1931,1895,1882
1925,1918,1840
1937,1921,1868
1937,1862,1904
1913,1791,1866
1907,1851,1816
1923,1898,1856
1940,1906,1907
1929,1906,1872
1908,1877,1823
1915,1931,1855
1923,1885,1908
1917,1837,1873
1911,1886,1823
1921,1838,1859
1931,1951,1920
1911,1867,1883
1897,1863,1839
1905,1906,1873
1907,1870,1914
1903,1837,1881
1902,1859,1840
1906,1885,1869
1906,1870,1903
1886,1835,1872
1887,1862,1839
1904,1902,1875
1917,1954,1927
1903,1947,1894
1881,1877,1841
1899,1904,1882
1893,1859,1900
1887,1936,1869
1877,1791,1840
1885,1810,1869
1892,1931,1905
1889,1910,1889
1881,1957,1847
1897,1965,1886
1888,1982,1924
1881,2032,1888
1885,1986,1837
1885,1904,1858
1889,1899,1911
1885,1949,1886
1879,1918,1843
1874,1936,1857
1883,1953,1893
1904,1944,1875
1936,2111,1875
1903,1946,1897
1856,1834,1917
1855,1778,1885
1893,1841,1840
1908,1968,1873
1903,1909,1930
1894,1920,1873
1891,1925,1783
1851,1939,1844
1874,1939,1959
1873,1840,1915
1885,1958,1830
1898,1878,1863
1860,1906,1915
1872,2063,1908
1938,1931,1820
1865,1819,1841
1792,1804,1861
1813,1855,1872
1839,2000,1825
1855,1872,1871
1873,1967,1954
1872,1936,1897
1887,1787,1782
1821,1678,1806
1834,1845,1890
1822,1882,1872
1804,1806,1802
1839,2000,1838
1872,1956,1886
1851,1829,1858
1835,1893,1889
1804,1767,1851
1827,1848,1883
1865,1833,1846
1939,1950,1826
1868,1827,1919
1936,1741,1883
1809,1639,1801
1750,1791,1778
1766,1798,1870
1904,1983,1906
1917,1846,1838
1808,1696,1773
1718,1744,1854
1719,1851,1889
1755,1713,1824
1759,1647,1718
1793,1648,1819
1750,1670,1890
1743,1738,1827
1808,1878,1739
1791,1698,1793
1703,1583,1856
1739,1838,1835
1805,1843,1775
1779,1570,1776
1689,1535,1899
1647,1759,1811
1663,1754,1681
1837,1915,1790
1312,1615,1783
1186,1520,1793
1296,1575,1745
1571,1753,1775
1362,1769,1792
1346,1908,1790
1600,1504,1773
1751,1557,1874
1760,1726,2033
1707,1636,1904
1664,1683,1814
1667,1678,1807
1657,1831,1821
1581,1712,1827
1591,1682,1832
1648,1666,1830
1561,1809,1827
1472,1709,1825
1599,1712,1827
1557,1653,1827
1471,1702,1829
1535,1808,1824
1488,1682,1826
1490,1809,1828
1516,1751,1825
1044,1639,1826
1071,1723,1827
1494,1737,1831
1729,1751,1828
2012,1702,1827
2045,1771,1829
1886,1739,1831
1808,1839,1827
1808,1875,1825
1824,1819,1829
1835,1700,1828
1835,1654,1833
1827,1682,1824
1829,1687,1834
1839,1775,1831
1830,1955,1829
1828,1800,1723
1833,1783,1685
1834,1845,1711
1829,1649,1829
1831,1653,1806
1831,1703,1717
1835,1761,1755
1827,1968,1885
1831,1787,1815
1830,1840,1715
1829,1764,1737
1834,1706,1843
1835,1646,1806
1834,1696,1702
1834,1798,1763
1834,1969,1879
1831,1843,1840
1840,1712,1693
1893,1739,1709
1873,1793,1846
1859,1763,1835
1871,1691,1701
1855,1727,1723
1847,1810,1869
1840,1839,1865
1857,1871,1758
1904,1889,1776
1894,1882,1872
1869,1888,1882
1821,1593,1743
1871,1651,1777
1909,1776,1895
1859,1807,1856
1857,1925,1791
1853,1830,1792
1856,1773,1878
1837,1773,1891
1854,1739,1797
1847,1809,1745
1853,1849,1857
1827,1894,1895
1931,1794,1765
1846,1739,1771
1797,1744,1919
1830,1849,1957
1875,1765,1750
1857,1712,1773
1803,1782,1904
1774,1858,1902
1871,1904,1827
1859,1810,1775
1840,1862,1840
1841,1822,1914
1805,1744,1954
1810,1735,1712
1803,1773,1758
1813,1821,1795
1904,1907,1825
2001,2081,1728
1737,1726,1861
1680,1633,1963
1754,1738,1777
1861,1796,1753
1840,1799,1827
1765,1863,1851
1797,1874,1808
1943,1879,1826
1953,1927,1935
1667,1793,1757
1706,1764,1714
1821,1776,1773
1887,1855,1936
1717,1819,1840
1728,1882,1778
1837,1985,1835
1840,1803,1892
1785,1705,1782
1750,1885,1712
1816,1904,1776
1806,1815,1877
1809,1938,1933
1829,1938,1793
1911,1933,1757
1869,1846,1915
1708,1729,1847
1699,1873,1663
1809,1874,1715
1797,1906,1901
1766,1968,1909
1777,1968,1808
1818,1900,1792
1836,1872,1909
1787,2005,1861
1776,2073,1722
1792,1885,1744
1808,1957,1885
1809,2117,1907
1774,1820,1781
1806,1856,1734
1824,2038,1853
1814,2021,1856
1840,1999,1733
1837,1974,1739
1808,1988,1887
1746,2022,1874
1746,1942,1771
1828,1987,1776
1873,2160,1914
1774,2042,1858
1729,1915,1701
1813,2132,1812
1842,2130,1981
1776,1889,1891
1778,1911,1754
1838,2021,1731
1872,2294,1894
1834,2053,1902
1798,1920,1776
1851,2055,1806
1906,2285,1958
1828,2078,1858
1814,1947,1719
1883,2064,1807
1908,2122,2000
1875,2113,1943
1846,2096,1797
1917,2162,1866
1951,2128,2000
1838,2094,1919
1781,2136,1702
1846,2053,1761
1923,2179,1997
1898,2141,1983
1836,2005,1764
1868,2096,1764
1903,2154,1919
1879,2151,1956
1840,1946,1792
2045,2194,1942
1920,2137,1937
1782,1996,1865
1806,2040,1803
1890,2025,1777
1967,2160,1961
1936,2222,1959
1879,1966,1749
1893,1963,1748
1911,2031,1881
1865,1950,1885
1621,1939,1862
1424,2084,1845
1837,1968,1824
1920,1913,1822
1879,1587,1826
1834,1535,1831
1821,1502,1826
1826,1456,1826
1829,1428,1830
1837,1489,1828
1834,1580,1829
1828,1390,1825
1831,1331,1829
1833,1434,1827
1830,1445,1830
1837,1399,1827
1830,1413,1827
1836,1679,1830
1831,1693,1827
1831,1388,1830
1831,1501,1827
1833,1535,1829
1833,1578,1827
1831,1693,1831
1833,1766,1827
1835,1808,1829
1828,1794,1827
1833,1854,1830
1834,1837,1834
1833,1959,1834
1837,2039,1831
1831,2028,1824
1869,1994,1826
1969,2075,1840
2075,2193,1878
2079,2155,1782
1997,2039,1600
2055,2106,1654
2192,2261,1973
2149,2159,2000
2043,2029,1868
2091,2188,1833
2176,2260,1888
2128,2138,1792
2041,2010,1796
2103,2128,1829
2192,2217,1838
2135,2189,1825
2066,2000,1825
2145,2119,1830
2243,2336,1830
1840,2245,1840
0,1847,2352
0,1766,1365
2144,1954,1506
2801,1890,1798
1671,2000,1881
2000,2112,1858
2082,1968,1829
1910,1959,1821
1795,2028,1825
1813,2159,1833
1840,2166,1829
1883,2112,1822
1859,2145,1826
1839,2237,1834
1829,2357,1827
1831,2047,1827
1836,1916,1829
1837,2151,1828
1834,2357,1829
1835,2307,1825
1831,2108,1826
1839,1922,1831
1834,2087,1830
1829,2145,1829
1830,2283,1838
1834,2203,1827
1832,2278,1826
1837,2190,1829
1825,1965,1827
1838,1965,1825
1834,2171,1834
1833,2246,1824
1829,2011,1826
1891,2241,1849
1904,2209,1855
1841,2174,1781
1869,2003,1680
1904,1985,1648
2016,2109,1831
1974,2115,1834
1898,2097,1677
1925,2094,1677
2003,2414,1871
1990,2047,1811
1985,1895,1708
2033,2023,1674
2022,2096,1905
1995,2115,1893
2017,2271,1660
2006,1898,1558
2064,1894,1787
1941,1951,1802
1949,2082,1683
2096,2106,1761
2062,2071,1872
2091,2311,1875
1985,1909,1652
1975,1791,1677
2021,1936,1827
2073,2017,1839
2093,1958,1662
2015,2010,1715
2010,2029,1879
2029,2021,1872
2039,2027,1680
2081,2070,1718
2103,1970,1859
1979,1905,1792
1934,1863,1641
2014,1914,1721
2111,2205,1926
2055,2015,1936
1988,1767,1661
2096,1854,1634
2145,2063,1904
1975,1953,1826
1959,1890,1671
2033,1936,1697
2064,1886,1831
2086,1931,1816
2033,1966,1729
2033,2000,1712
1968,1909,1810
1937,1772,1786
1987,1803,1703
2073,1999,1772
2065,1941,1843
1994,1863,1783
1986,1858,1680
2074,1859,1731
2115,1941,1862
2002,1936,1831
1973,1819,1751
1985,1843,1757
2015,1983,1822
1989,1828,1818
1968,1677,1655
2075,1839,1690
2125,2105,1872
2063,2007,1823
1987,1815,1725
2047,1866,1719
2021,1856,1842
1967,1776,1760
1998,1687,1701
2019,1856,1787
2064,1927,1870
2001,1883,1776
2011,1818,1670
1965,1840,1729
1977,1904,1871
2004,1901,1857
2032,2034,1745
1969,1744,1685
1920,1732,1806
1856,1709,1825
1894,1722,1783
2028,1909,1738
1988,2003,1855
1941,1845,1812
1973,1738,1640
1973,1757,1710
1935,1792,1899
1943,1811,1887
1999,1883,1776
1955,1915,1715
1954,1821,1808
1985,1814,1808
1942,1775,1761
2013,1851,1725
1897,1851,1840
1849,1716,1827
1929,1795,1749
2017,1898,1783
1985,1865,1822
1896,1761,1776
1871,1666,1792
1955,1796,1846
1957,1823,1850
1913,1840,1812
2031,1823,1731
1951,1791,1830
1895,2019,1907
1861,1776,1792
1922,1535,1701
1904,1732,1717
1904,1957,1888
1904,1968,1888
1943,1729,1692
1913,1626,1745
1936,1833,1913
1843,1768,1872
1845,1772,1687
1959,1775,1727
1986,1970,1904
1915,1936,1893
1878,1664,1747
1822,1744,1809
1855,1887,1825
1872,1662,1807
1862,1589,1691
1968,1840,1826
1935,2144,1984
1845,1925,1873
1842,1616,1728
1885,1869,1776
1882,1647,1859
1840,1617,1808
1906,1770,1727
1895,1690,1738
1871,2030,1975
1899,1943,1919
1871,1584,1662
1927,1702,1725
1923,1895,1911
1852,1814,1924
1941,1857,1776
1866,1653,1770
1785,1723,1887
1810,1777,1869
1887,1840,1725
1930,1997,1794
1872,1753,1925
1823,1755,1939
1921,1835,1746
1899,1832,1699
1985,1830,1872
1769,1814,1979
1863,1731,1808
1911,1859,1776
1809,1685,1798
1778,1699,1859
1904,1727,1769
1917,2019,1819
1840,2072,1922
1790,1665,1823
1789,1571,1769
1872,1688,1803
1896,1903,1978
1820,1830,1871
1810,1777,1749
1918,1968,1861
1902,1834,1961
1840,1665,1904
1779,1644,1767
1806,1904,1789
1845,1903,1903
1888,1789,1863
1903,1888,1789
1771,1705,1809
1738,1753,1968
1805,1842,1932
1893,1888,1805
1874,1811,1794
1764,1734,1888
1807,1603,1839
1791,1661,1741
1895,1812,1884
1895,2031,2016
1852,1844,1902
1846,1763,1725
1857,1712,1776
1839,1746,1943
1776,1794,1918
1797,1923,1866
1869,1713,1834
1860,1823,1904
1823,1744,1871
1781,1680,1735
1783,1839,1835
1877,2055,1983
1845,1775,1904
1803,1808,1761
1793,1641,1839
1889,1729,1911
1798,1989,1940
1804,1721,1744
1858,1671,1760
1873,1943,1977
1781,1791,1959
1794,1689,1808
1826,1712,1767
1889,1786,1903
1825,1795,1926
1902,1839,1867
1986,1963,1881
1809,1847,1904
1762,1697,1853
1801,1677,1779
1816,1797,1824
1824,1891,1933
1765,1802,1892
1842,1795,1785
1872,1904,1840
1815,1899,1941
1828,1813,1932
1872,1726,1795
1886,1808,1837
1856,1778,1968
1770,1773,1995
1801,1767,1795
1841,1764,1763
1862,1847,1933
1878,1850,1973
1871,1770,1744
1835,1802,1773
1790,1893,1956
1794,1885,1955
1853,1879,1806
1909,1808,1835
1807,1731,1941
1775,1803,1968
1807,1750,1789
1856,1789,1810
1847,1982,2000
1811,1783,1963
1825,1755,1740
1839,1727,1754
1840,1929,1963
1852,1935,1970
1842,1681,1776
1839,1797,1772
1824,2020,1951
1774,1757,1879
1801,1671,1771
1872,1781,1858
1871,1799,1949
1803,1920,1903
1777,1807,1742
1819,1727,1790
1849,1878,1961
1852,2015,1936
1839,1838,1846
1850,1780,1802
1808,1763,1920
1763,1775,1891
1789,1751,1798
1873,1766,1927
1850,1923,1971
1809,1841,1859
1797,1733,1740
1866,1926,1810
1829,1914,1937
1821,1936,1936
1809,1703,1782
1839,1694,1794
1830,1851,1958
1785,1814,1911
1787,1695,1733
1840,1779,1790
1869,1894,1959
1824,1936,1954
1845,1918,1758
1873,1855,1820
1810,1707,1921
1775,1741,1962
1839,1755,1784
1947,1917,1783
1814,1794,1894
1726,1746,1869
1795,1889,1793
1858,2012,1838
1799,1735,1971
1783,1650,1988
1831,1779,1746
1863,1787,1704
1839,1919,1904
1841,1846,1858
1849,1735,1719
1838,1881,1824
1805,1905,1947
1743,1868,1866
1799,1839,1793
1840,1775,1837
1805,1666,1882
1806,1766,1839
1824,1803,1778
1834,1863,1840
1839,1900,1979
1798,1829,1840
1815,1811,1714
1858,1829,1810
1840,2014,1998
1843,1769,1903
1776,1606,1721
1761,1749,1739
1777,1898,1893
1786,1886,1906
1819,1779,1764
1907,2091,1817
1840,1848,1877
1744,1634,1822
1778,1645,1733
1819,1775,1785
1819,1943,1920
1872,1940,1847
1849,1872,1807
1804,1814,1890
1765,1780,1899
1798,1852,1865
1810,1786,1745
1819,1765,1795
1845,1954,1969
1799,2001,1958
1828,1619,1669
1826,1609,1683
1807,1882,1891
1746,1902,1931
1789,1779,1745
1861,1871,1776
1841,1875,1901
1758,1762,1861
1778,1781,1737
1824,1783,1777
1826,1878,1953
1782,1785,1853
1807,1756,1757
1839,1906,1815
1847,2057,1944
1794,1721,1834
1789,1587,1680
1830,1750,1771
1835,1936,1920
1891,1900,1904
1838,1791,1782
1793,1774,1822
1796,1886,1924
1753,1822,1845
1798,1781,1758
1856,1758,1811
1836,1935,1924
1826,2015,1881
1808,1882,1769
1837,1712,1811
1840,1913,1942
1786,1776,1829
1804,1702,1730
1863,1744,1840
1843,1889,1904
1810,1939,1866
1811,1860,1778
1831,1803,1773
1865,1866,1895
1803,1820,1910
1795,1753,1729
1831,1775,1755
1838,1932,1931
1810,1953,1893
1842,1904,1755
1871,1867,1813
1819,1792,1909
1811,1847,1909
1840,1707,1830
1856,1767,1788
1847,2013,1890
1841,1997,1840
1808,1713,1725
1827,1713,1810
1838,1936,1936
1808,1894,1871
1815,1802,1737
1877,1852,1874
1862,1877,1914
1776,1824,1814
1808,1738,1712
1854,1895,1833
1856,2022,1978
1804,1843,1858
1810,1659,1695
1883,1925,1869
1849,2027,1945
1829,1890,1878
1840,1800,1774
1840,1681,1772
1842,1827,1870
1781,1882,1821
1837,1878,1751
1892,1767,1731
1856,1876,1947
1796,2015,2055
1792,1805,1776
1813,1690,1735
1813,1855,1829
1797,1893,1815
1854,1851,1757
1887,1802,1796
1847,1921,1894
1815,1946,1931
1856,1940,1791
1865,1779,1744
1855,1838,1907
1817,1809,1856
1837,1886,1785
1845,1808,1830
1839,1931,1926
1829,1945,1909
1834,1758,1710
1862,1773,1758
1863,1872,1939
1827,1856,1935
1825,1822,1712
1849,1851,1745
1872,2055,1955
1892,1925,1893
1818,1760,1750
1818,1766,1806
1840,1859,1956
1819,1946,1904
1840,1927,1744
1919,1825,1744
1838,1822,1867
1786,1791,1851
1814,1751,1781
1865,1943,1855
1833,1867,1904
1803,1834,1863
1845,1781,1759
1904,1955,1818
1886,2122,2030
1792,1757,1915
1813,1691,1737
1891,1826,1797
1855,1891,1936
1814,1891,1873
1858,1927,1776
1911,2000,1868
1866,1905,1878
1802,1705,1838
1810,1766,1729
1840,1860,1808
1875,1897,1920
1837,1923,1904
1861,1862,1776
1872,1814,1809
1827,1875,1916
1827,1968,1924
1867,1911,1804
1891,1808,1860
1863,1834,1882
1850,1957,1891
1865,1979,1794
1854,1776,1833
1838,1807,1887
1893,1839,1986
1862,1851,1775
1843,1905,1803
1884,1872,1913
1861,1888,1907
1873,1968,1792
1862,1809,1833
1849,1803,1983
1862,1865,1946
1863,1776,1786
1879,1872,1744
1851,1968,1948
1837,1994,1888
1879,1951,1827
1928,1904,1802
1870,1904,1902
1803,1744,1931
1827,1733,1735
1890,1936,1742
1953,2154,1977
1851,1847,1874
1817,1715,1727
1842,1791,1835
1833,1845,1921
1841,1805,1905
1881,1885,1759
1889,1927,1787
1879,1953,1943
1805,1742,1883
1814,1715,1749
1898,1967,1855
1885,2057,2017
1855,2032,1894
1854,1751,1691
1842,1646,1717
1853,1781,1910
1876,1855,1897
1904,1904,1851
1881,1859,1808
1842,1863,1915
1847,1907,1875
1886,2041,1849
1899,2027,1878
1845,1801,1825
1812,1775,1823
1822,1724,1758
1872,1855,1853
1901,2065,2001
1840,1920,1853
1831,1633,1811
1867,1809,1749
1846,1872,1861
1892,2007,1855
1885,1870,1743
1865,1808,1789
1840,1871,1984
1823,1810,1823
1840,1774,1681
1915,1914,1810
1825,1935,1902
1808,1881,1879
1863,1855,1811
1862,1846,1799
1819,1822,1840
1807,1856,1846
1855,1849,1776
1873,1767,1842
1899,2158,1985
1840,1814,1826
1739,1562,1638
1830,1755,1797
1887,1995,1979
1840,1920,1914
1843,1728,1665
1897,1946,1759
1838,1862,1887
1776,1739,1856
1840,1805,1744
1857,1914,1792
1839,1879,1904
1796,1859,1819
1841,1756,1723
1887,1884,1808
1843,2005,1952
1796,1807,1871
1808,1712,1735
1875,1855,1754
1845,1870,1888
1798,1780,1812
1837,1745,1782
1859,1871,1776
1847,1951,1889
1815,1987,1799
1831,1739,1682
1825,1664,1793
1835,1808,1959
1896,1942,1915
1862,1961,1712
1823,1791,1770
1792,1751,1875
1798,1809,1867
1840,1743,1738
1846,1746,1758
1851,1904,1919
1840,1950,1927
1859,1801,1710
1879,1840,1786
1845,1991,1936
1830,1808,1869
1869,1808,1793
1915,1875,1891
1901,2064,1939
1827,1853,1783
1820,1657,1730
1859,1731,1824
1874,1890,1959
1890,1945,1937
1907,1839,1794
1904,1913,1845
1898,2011,1955
1841,1918,1915
1853,1774,1791
1901,1897,1839
1924,1958,1989
1880,1927,1950
1901,1914,1847
1901,1811,1814
1898,1934,1968
1875,1925,1985
1914,1891,1761
1925,2066,1825
1901,2036,1886
1828,1680,1863
1850,1677,1790
1902,1820,1829
1903,1956,2009
1894,2047,1936
1895,1937,1721
1883,1869,1751
1888,1814,1957
1919,1861,2039
1885,1796,1744
1899,1914,1808
1889,1975,1920
1874,1881,1873
1873,2006,1787
1902,1904,1862
1879,1886,1985
1861,1839,1898
1883,1711,1775
1919,1831,1878
1904,1971,2053
1872,1956,1913
1891,1867,1726
1930,1886,1895
1904,1951,1990
1885,1943,1920
1927,1957,1703
1919,1840,1803
1886,1837,1903
1857,1794,1920
1927,1834,1797
1938,2021,1804
1878,2128,1936
1872,1882,1966
1875,1714,1738
1882,1676,1785
1900,1886,1979
1879,1766,1937
1872,1851,1809
1935,1957,1899
1882,1940,1930
1813,1729,1822
1840,1751,1771
1929,1905,1850
1893,1905,1956
1845,1853,1930
1889,1837,1759
1899,1952,1825
1876,2030,1968
1855,2065,1920
1882,1837,1766
1897,1763,1807
1919,1937,1939
1855,1815,1797
1850,1818,1722
1904,1776,1775
1889,1731,1919
1818,1876,1909
1867,1891,1815
1901,1825,1792
1905,1874,2023
1839,1840,1845
1868,1814,1808
1929,1873,1747
1882,1917,1894
1846,1939,1872
1886,1885,1765
1886,1731,1696
1878,1872,1959
1877,1918,1953
1871,1769,1775
1877,1792,1803
1873,1878,1962
1886,1975,1902
1905,1753,1751
1880,1685,1808
1882,1989,2006
1915,2133,1931
1885,1777,1766
1850,1552,1777
1849,1797,1933
1850,1831,1882
1866,1779,1710
1917,1853,1808
1925,2158,1959
1857,1866,1927
1826,1597,1659
1882,1805,1804
1893,2001,1974
1889,1883,1910
1903,1747,1776
1887,1842,1791
1877,2042,1930
1833,1808,1808
1862,1644,1712
1925,1824,1873
1885,1958,1984
1839,1979,1860
1854,1685,1686
1907,1746,1785
1929,1982,1954
1919,1935,1940
1849,1775,1730
1859,1823,1831
1858,1904,1917
1861,1996,1869
1843,1730,1704
1878,1699,1775
1886,1891,1968
1867,1852,1890
1866,1795,1753
1910,1930,1865
1900,2061,2010
1881,1957,1904
1900,1866,1744
1881,1695,1710
1840,1737,2009
1867,1781,1967
1904,1759,1715
1869,1776,1760
1838,1952,1938
1856,2030,1969
1882,1823,1775
1930,1851,1831
1883,1913,1985
1855,1967,1887
1841,1712,1707
1877,1731,1809
1934,2076,1951
1900,1907,1871
1813,1633,1741
1859,1805,1872
1928,2014,2016
1877,1958,1805
1840,1774,1742
1897,1792,1835
1889,2065,1951
1809,1783,1850
1834,1645,1686
1895,1808,1810
1872,1917,1986
1840,1855,1858
1867,1808,1695
1902,1883,1841
1872,1910,1939
1855,1911,1891
1893,1910,1800
1897,1808,1822
1879,1776,1963
1847,1783,1833
1869,1899,1712
1873,1870,1789
1847,1879,1905
1887,2064,2001
1894,1760,1728
1904,1652,1760
1851,1808,1942
1833,1961,1882
1856,1749,1729
1877,1772,1803
1861,1867,1936
1850,1908,1878
1930,1977,1799
1914,1759,1875
1856,1741,1763
1847,1898,1855
1842,1877,1759
1841,1739,1783
1863,1810,1995
1837,1836,1873
1872,1936,1777
1936,1949,1895
1857,1968,1958
1811,1776,1877
1827,1663,1741
1898,1870,1790
1865,1808,1885
