1894,1895,1842
1868,1907,1893
1886,1863,1810
1919,1854,1776
1907,1895,1854
1870,1915,1891
1873,1865,1797
1911,1851,1765
1920,1902,1855
1887,1913,1903
1877,1875,1824
1904,1858,1793
1897,1893,1899
1878,1917,1925
1878,1874,1814
1905,1870,1766
1895,1907,1840
1870,1921,1893
1869,1869,1817
1908,1871,1775
1906,1906,1840
1862,1931,1898
1866,1889,1826
1907,1872,1783
1899,1910,1858
1861,1920,1904
1871,1872,1812
1901,1867,1776
1885,1904,1835
1858,1921,1876
1870,1875,1819
1904,1867,1791
1899,1904,1865
1872,1920,1904
1867,1873,1811
1901,1859,1770
1904,1907,1857
1872,1930,1905
1872,1889,1826
1906,1874,1791
1894,1907,1856
1863,1918,1891
1863,1874,1818
1909,1871,1787
1904,1909,1851
1877,1930,1904
1874,1888,1834
1899,1886,1797
1888,1915,1854
1852,1929,1889
1857,1882,1813
1903,1872,1790
1899,1918,1872
1864,1926,1910
1872,1891,1830
1900,1877,1783
1898,1915,1856
1859,1922,1893
1875,1879,1811
1900,1872,1776
1884,1915,1842
1851,1917,1887
1863,1887,1807
1902,1869,1779
1885,1905,1856
1850,1905,1875
1850,1871,1803
1898,1861,1782
1892,1903,1865
1863,1926,1899
1857,1886,1808
1886,1861,1771
1872,1902,1837
1847,1924,1899
1865,1879,1829
1904,1856,1787
1893,1890,1841
1862,1902,1872
1871,1872,1811
1911,1858,1789
1905,1890,1858
1872,1904,1898
1872,1864,1818
1907,1846,1766
1899,1894,1845
1875,1919,1899
1894,1898,1825
1921,1854,1782
1915,1872,1847
1879,1888,1888
1893,1850,1815
1930,1847,1779
1921,1889,1853
1884,1903,1895
1892,1857,1815
1924,1857,1783
1918,1891,1857
1892,1905,1904
1897,1870,1821
1920,1865,1777
1918,1899,1850
1897,1917,1899
1903,1877,1838
1923,1861,1787
1905,1894,1840
1875,1915,1890
1883,1869,1824
1925,1865,1799
1920,1903,1862
1887,1914,1897
1895,1872,1810
1920,1861,1780
1916,1904,1854
1893,1914,1893
1902,1884,1828
1936,1873,1783
1921,1903,1855
1889,1919,1901
1898,1885,1826
1936,1872,1787
1920,1904,1856
1883,1919,1894
1891,1879,1818
1925,1871,1787
1920,1908,1863
1887,1922,1905
1892,1872,1821
1935,1865,1781
1929,1905,1851
1895,1917,1891
1898,1872,1818
1921,1866,1791
1911,1904,1860
1885,1916,1902
1894,1873,1825
1927,1862,1787
1915,1908,1859
1885,1911,1900
1888,1871,1813
1920,1866,1782
1920,1899,1869
1890,1907,1905
1898,1867,1833
1921,1856,1779
1903,1893,1855
1881,1907,1919
1886,1867,1798
1924,1856,1776
1920,1899,1873
1892,1906,1853
1890,1865,1840
1919,1850,1735
1916,1883,1897
1895,1915,1885
1902,1871,1805
1929,1861,1787
1918,1898,1835
1883,1904,1898
1886,1857,1859
1919,1854,1747
1915,1903,1887
1892,1917,1918
1893,1867,1863
1919,1853,1787
1909,1889,1850
1880,1906,1894
1891,1871,1831
1935,1861,1775
1920,1891,1867
1883,1898,1919
1886,1865,1829
1920,1863,1777
1915,1900,1872
1887,1907,1882
1884,1872,1842
1905,1851,1783
1899,1888,1855
1872,1906,1900
1893,1875,1832
1921,1859,1802
1915,1899,1867
1881,1905,1914
1886,1858,1795
1917,1856,1791
1913,1901,1860
1872,1906,1911
1877,1863,1857
1920,1853,1787
1917,1899,1868
1882,1911,1914
1885,1872,1794
1922,1856,1771
1916,1894,1872
1882,1906,1937
1885,1866,1807
1920,1858,1801
1903,1901,1851
1867,1901,1902
1873,1854,1851
1907,1846,1820
1904,1904,1906
1870,1917,1933
1863,1871,1808
1901,1859,1735
1894,1889,1823
1871,1904,1909
1878,1872,1828
1904,1866,1809
1902,1903,1861
1859,1905,1909
1859,1854,1840
1894,1840,1766
1902,1893,1865
1863,1905,1899
1866,1875,1837
1899,1867,1808
1898,1903,1823
1862,1919,1916
1861,1872,1834
1900,1870,1803
1891,1925,1872
1863,1938,1916
1859,1897,1829
1893,1890,1803
1888,1926,1882
1846,1936,1911
1846,1895,1830
1872,1887,1825
1885,1936,1850
1853,1946,1949
1851,1916,1777
1885,1911,1758
1882,1958,1829
1849,1968,1869
1846,1935,1825
1877,1918,1791
1872,1959,1876
1851,1974,1903
1854,1929,1822
1889,1925,1779
1878,1977,1850
1843,1985,1928
1849,1945,1846
1878,1927,1807
1873,1968,1872
1847,1977,1903
1841,1933,1826
1872,1915,1788
1871,1962,1812
1840,1977,1890
1841,1947,1827
1885,1936,1802
1875,1969,1857
1843,1974,1864
1852,1933,1853
1888,1918,1757
1885,1966,1794
1851,1981,1950
1846,1931,1862
1878,1920,1773
1871,1949,1809
1840,1968,1936
1844,1924,1796
1879,1918,1846
1884,1957,1840
1851,1967,1923
1847,1917,1810
1878,1904,1798
1872,1941,1826
1844,1963,1909
1842,1921,1817
1879,1901,1789
1865,1936,1858
1839,1945,1889
1835,1904,1786
1878,1891,1799
1874,1936,1857
1842,1951,1887
1851,1908,1858
1877,1895,1778
1868,1927,1837
1840,1945,1900
1841,1904,1834
1859,1891,1775
1859,1929,1855
1839,1936,1891
1839,1905,1835
1870,1902,1836
1863,1929,1860
1823,1936,1891
1827,1889,1808
1871,1882,1838
1867,1927,1840
1834,1936,1859
1839,1906,1821
1863,1902,1773
1847,1935,1835
1818,1936,1879
1824,1895,1821
1866,1902,1785
1870,1922,1931
1840,1936,1899
1836,1891,1814
1851,1879,1751
1843,1915,1813
1835,1936,1904
1842,1902,1824
1872,1882,1677
1860,1908,1840
1825,1931,1888
1836,1900,1826
1872,1886,1791
1859,1919,1843
1822,1932,1885
1827,1886,1813
1875,1874,1790
1872,1915,1872
1831,1920,1904
1829,1874,1812
1872,1870,1780
1863,1905,1856
1833,1910,1888
1834,1885,1824
1867,1873,1783
1857,1893,1844
1833,1914,1885
1837,1879,1814
1865,1872,1781
1862,1905,1859
1831,1910,1899
1833,1866,1807
1867,1845,1772
1855,1885,1841
1835,1906,1904
1840,1870,1828
1867,1858,1791
1858,1895,1870
1827,1905,1904
1829,1859,1813
1872,1850,1773
1875,1893,1854
1840,1904,1904
1815,1862,1824
1878,1850,1791
1873,1881,1850
1868,1891,1883
1845,1847,1808
1855,1846,1771
1870,1899,1867
1879,1901,1904
1815,1855,1815
1910,1839,1774
1836,1877,1847
1887,1891,1911
1921,1853,1840
1857,1834,1793
1872,1878,1856
1842,1887,1893
1856,1840,1803
1890,1840,1783
1888,1875,1870
1856,1890,1901
1893,1851,1817
1878,1839,1789
1847,1878,1857
1882,1893,1889
1829,1855,1809
1902,1852,1793
1886,1885,1877
1858,1904,1903
1861,1859,1817
1877,1853,1792
1884,1883,1852
1839,1882,1889
1834,1849,1806
1888,1855,1789
1887,1891,1865
1856,1900,1902
1862,1856,1811
1883,1847,1780
1904,1897,1866
1878,1899,1904
1872,1870,1823
1888,1851,1785
1905,1884,1856
1895,1899,1894
1847,1856,1839
1934,1841,1792
1898,1875,1855
1872,1900,1895
1870,1859,1823
1936,1845,1792
1856,1883,1865
1855,1905,1899
1872,1863,1822
1920,1848,1789
1881,1882,1865
1872,1895,1901
1851,1855,1821
1890,1838,1776
1910,1881,1857
1887,1887,1905
1858,1850,1825
1893,1839,1795
1898,1877,1863
1858,1901,1903
1879,1847,1814
1898,1837,1786
1920,1876,1866
1819,1899,1904
1864,1856,1840
1898,1846,1801
1899,1872,1869
1852,1889,1905
1856,1852,1812
1895,1835,1777
1887,1866,1857
1856,1875,1904
1862,1831,1823
1904,1827,1802
1903,1876,1872
1820,1878,1900
1855,1826,1825
1893,1815,1790
1915,1856,1861
1841,1885,1904
1850,1859,1835
1889,1825,1797
1885,1841,1856
1866,1859,1889
1920,1839,1820
1910,1839,1798
1934,1872,1869
1750,1862,1898
1904,1817,1819
1891,1818,1792
1893,1859,1867
1847,1861,1898
1845,1824,1823
1897,1811,1806
1893,1841,1876
1840,1850,1885
1867,1824,1810
1861,1822,1798
1956,1840,1887
1828,1879,1920
1811,1838,1813
1823,1790,1777
1904,1825,1855
1861,1845,1895
1841,1848,1833
1937,1817,1808
1872,1831,1862
1907,1841,1907
1883,1869,1827
1851,1861,1789
1902,1875,1854
1858,1904,1898
1872,1857,1818
1865,1856,1785
1775,1925,1847
1808,1966,1893
1872,1926,1828
1886,1941,1787
1869,1987,1850
1839,2032,1901
1758,1961,1825
1891,1969,1781
1872,2012,1856
1782,2034,1902
1862,2022,1821
1889,2014,1791
1860,2047,1855
1822,2067,1885
1846,2029,1797
1875,2032,1779
1898,2094,1859
1856,2096,1906
1853,2057,1817
1877,2031,1775
1867,2077,1849
1843,2087,1898
1849,2046,1815
1847,2042,1776
1867,2077,1840
1823,2090,1886
1846,2042,1817
1879,2033,1781
1887,2079,1853
1872,2085,1898
1840,2035,1828
1863,2017,1782
1872,2064,1852
1841,2064,1888
1845,2021,1808
1930,2013,1790
1873,2055,1858
1931,2063,1883
1829,2005,1803
1885,1985,1776
1872,2018,1855
1847,2039,1898
1854,1986,2000
1879,1965,1906
1872,1999,1818
1833,2005,1808
1851,1975,1821
1894,1964,1826
1885,1997,1831
1840,2000,1826
1845,1949,1830
1865,1942,1821
1867,1977,1827
1840,1983,1825
1840,1936,1823
1867,1922,1822
1870,1959,1826
1836,1963,1827
1838,1915,1824
1854,1901,1826
1837,1930,1825
1810,1936,1829
1835,1903,1827
1853,1895,1827
1834,1921,1827
1796,1919,1829
1792,1857,1829
1840,1853,1825
1826,1890,1828
1791,1887,1826
1803,1841,1827
1845,1827,1826
1820,1856,2001
1765,1856,1776
1791,1808,1765
1826,1802,1807
1809,1837,1917
1773,1829,1865
1783,1791,1823
1823,1792,1813
1805,1825,1824
1771,1837,1826
1794,1804,1827
1831,1791,1829
1802,1835,1833
1779,1837,1827
1796,1798,1827
1839,1797,1834
1817,1828,1831
1779,1830,1823
1805,1792,1827
1840,1776,1825
1822,1808,1827
1791,1822,1829
1824,1792,1829
1861,1787,1830
1837,1817,1828
1791,1823,1828
1815,1790,1826
1856,1791,1831
1856,1838,1830
1820,1842,1826
1822,1792,1823
1863,1790,1828
1850,1833,1833
1819,1841,1825
1844,1801,1821
1875,1790,1824
1856,1826,1831
1819,1839,1821
1841,1802,1777
1879,1804,1767
1872,1833,1833
1822,1836,1857
1855,1805,1789
1901,1793,1767
1872,1840,1833
1835,1851,1871
1839,1806,1792
1881,1786,1760
1859,1837,1827
1828,1846,1875
1845,1803,1811
1879,1806,1781
1859,1830,1835
1821,1837,1869
1838,1791,1793
1874,1768,1767
1861,1807,1822
1841,1809,1845
1862,1792,1807
1907,1806,1787
1902,1805,1840
1878,1794,1856
1926,1782,1805
1970,1756,2112
1259,1122,4095
789,757,4095
1023,861,2795
1394,1091,1745
1535,1280,1581
1426,1247,4095
0,0,4095
0,0,4095
0,0,4095
0,0,4095
0,0,4095
0,0,4095
0,0,2416
0,0,2032
0,0,2154
0,0,1927
0,0,1803
0,0,1808
0,0,1817
0,0,1804
0,0,1830
0,0,1869
0,0,1847
0,0,1831
0,0,1827
0,0,1829
0,0,1832
0,0,1831
0,0,1831
0,0,1835
0,0,1831
0,0,1840
0,0,1829
0,0,1829
0,0,1826
0,0,1833
0,0,1830
0,0,1824
0,0,1834
0,0,1838
0,0,1826
0,0,1829
0,0,1888
0,0,2295
0,0,1871
0,0,1889
0,0,0
0,0,0
0,0,0
0,0,0
0,0,826
0,0,1630
0,0,1729
0,0,2413
0,0,2146
0,0,1751
0,0,554
0,0,479
0,22,2289
0,1287,3326
616,1882,3350
559,1271,2097
0,443,1617
0,0,2526
0,0,0
0,0,112
0,919,1459
635,2118,2075
1999,2930,2015
2755,3617,1850
3168,4095,1794
3577,4095,1807
4058,4095,1830
4095,4095,1826
4095,4095,1831
4095,4095,2449
4095,4095,1747
4095,4095,1607
4095,4095,1698
4095,4095,1831
4095,4095,1840
4095,4095,1824
4095,4095,1850
4095,4095,1873
4095,4095,1777
4095,4095,1798
4095,4095,1821
4095,4095,1830
4095,4095,1834
4095,4095,1827
4095,4095,1827
4095,4095,1830
4095,4095,1831
4095,4095,1830
4095,4095,1831
4095,4095,1831
4095,4095,2357
4095,4095,2103
4095,4095,1822
4095,4095,1767
4095,4095,1808
4095,4095,1835
4095,4095,1825
4095,4095,1835
4095,4095,1829
4095,4095,1828
4095,4095,1829
4095,4095,1828
4095,4095,1829
4095,4095,1826
4095,4095,1827
4095,4095,1831
4095,4095,1827
4095,4095,1832
4095,4095,1827
4095,4095,1827
4095,4095,1831
4095,4095,1826
4095,4095,1827
4095,4095,1831
4095,4095,1834
4095,4095,1826
4095,4095,1826
4095,4095,1834
4095,4095,1828
4095,4095,1826
4095,4095,1826
4095,4095,1829
4095,4095,1826
4095,4095,1817
4095,4095,1744
4095,4095,1726
4095,4095,1771
4095,4095,1786
4095,4095,1689
4095,4095,1651
4095,4095,1696
4095,4095,1712
4095,4095,1647
4095,4095,1617
4095,4095,1674
4095,4095,1707
4095,4095,1588
4095,4095,1520
4095,4095,1612
4095,4078,1648
4095,4095,1554
4095,4095,1511
4095,4095,1535
4095,4095,1561
4095,4095,1473
4095,4095,1467
4095,4095,1535
4095,4095,1568
4095,4095,1459
4095,4095,1424
4095,4095,1463
4095,4095,1519
4095,4095,1471
4095,4095,1389
2497,4095,1437
1654,4095,1499
1600,4095,1406
1776,4095,1360
1874,4095,1435
1862,4095,1483
1840,4095,1387
1829,4095,1363
1830,4095,1456
1833,4095,1502
1837,4095,1405
1835,4095,1361
1837,4095,1447
1831,4095,1455
1835,4095,1318
1831,4095,1315
1828,4010,1408
1831,3767,1471
1836,3514,1360
1829,3511,1330
1830,3501,1416
1831,3621,1471
1827,3475,1365
1833,3307,1282
1831,3050,1343
1831,3154,1411
1834,3318,1346
1835,3015,1301
1834,3013,1347
1834,3205,1417
1841,2947,1301
1905,2870,1267
1967,2864,1360
1934,2837,1371
1879,2823,1297
1901,2817,1327
1923,2913,1423
1907,2879,1456
1895,2719,1327
1931,2689,1287
1925,2544,1366
1921,2635,1429
1922,2513,1324
1934,2487,1298
1947,2559,1438
1919,2522,1465
1958,2505,1392
1982,2292,1313
1981,2292,1381
1903,2304,1424
1901,2286,1367
1950,2317,1318
1936,2379,1443
1892,2353,1488
1904,2225,1405
1931,2160,1373
1921,2133,1439
1904,2305,1462
1906,2163,1392
1935,2043,1369
1926,2003,1454
1894,2025,1499
1886,1968,1406
1938,1983,1389
1956,2192,1495
1921,2017,1565
1889,1839,1472
1945,1840,1371
1980,1887,1411
1907,1819,1457
1841,1806,1486
1924,1840,1422
1935,1847,1520
1885,1904,1533
1872,1771,1465
1890,1653,1392
1872,1743,1497
1808,1839,1535
1807,1590,1460
1843,1570,1402
1843,1748,1513
1824,1633,1533
1810,1523,1443
1829,1488,1426
1797,1634,1500
1787,1619,1555
1774,1459,1479
1787,1516,1459
1828,1610,1531
1808,1615,1626
1769,1403,1487
1713,1258,1451
1734,1407,1650
1729,1527,1634
1751,1639,1514
1743,1349,1493
1728,1315,1570
1711,1310,1648
1747,1374,1475
1774,1483,1456
1711,1404,1574
1670,1303,1626
1714,1269,1535
1778,1313,1501
1786,1391,1584
1739,1327,1641
1691,1328,1647
1779,1290,1586
1665,1257,1607
1583,1264,1630
1589,1328,1565
1666,1313,1575
1616,1200,1623
1554,1213,1707
1564,1306,1577
1615,1263,1533
1712,1242,1605
1761,1471,1721
1522,1201,1584
1478,1020,1590
1535,1165,1680
1519,1317,1675
1535,1281,1637
1647,1267,1598
1711,1259,1681
1535,1269,1705
1502,1348,1617
1588,1410,1624
1649,1315,1699
1555,1158,1709
1589,1119,1598
1667,1296,1618
1563,1489,1855
1520,1168,1837
1558,1186,1570
1669,1259,1503
1571,1342,1717
1524,1341,1749
1525,1200,1674
1598,1257,1712
1535,1304,1715
1461,1222,1763
1502,1278,1695
1562,1258,1650
1515,1443,1891
1419,1264,1753
1422,1100,1597
1465,1306,1618
1535,1195,1763
1436,1195,1808
1390,1181,1678
1470,1278,1701
1472,1380,1807
1433,1275,1817
1431,1154,1682
1458,1275,1744
1484,1427,1813
1456,1171,1823
1489,1291,1827
1499,1227,1722
1407,1376,1750
1456,1226,1748
1430,1050,1728
1419,1200,1773
1424,1403,1808
1398,1282,1807
1360,1126,1749
1392,1268,1794
1356,1344,1863
1314,1423,1819
1283,1168,1746
1318,1199,1759
1379,1417,1858
1275,1230,1859
1247,1248,1781
1335,1189,1741
1344,1248,1799
1313,1348,1843
1291,1488,1779
1328,1354,1751
1278,1199,1833
1232,1200,1872
1328,1302,1809
1351,1286,1776
1315,1353,1869
1291,1695,1916
1253,1290,1775
1296,1015,1767
1358,1207,1946
1443,1372,1967
1341,1343,1759
1229,1377,1758
1333,1433,1872
1347,1281,1953
1397,1316,1872
1405,1361,1741
1318,1469,1823
1271,1396,1907
1347,1177,1797
1461,1224,1808
1459,1417,1926
1377,1577,1995
1356,1477,1792
1427,1421,1770
1371,1242,1872
1370,1280,1903
1445,1360,1811
1451,1483,1836
1419,1531,1914
1423,1267,1904
1468,1290,1850
1529,1361,1821
1499,1426,1883
1445,1395,1958
1509,1462,2001
1483,1423,1841
1435,1648,1904
1411,1350,1905
1346,1251,1778
1372,1344,1821
1390,1618,1915
1415,1493,1940
1409,1250,1841
1474,1423,1830
1514,1488,1872
1501,1457,1951
1518,1432,1856
1535,1461,1785
1562,1504,1911
1525,1330,2005
1582,1345,1825
1712,1520,1811
1749,1508,1839
1520,1753,2011
1437,1398,1971
1491,1300,1809
1573,1415,1860
1599,1535,1949
1607,1565,1904
1600,1636,1920
1605,1573,1931
1557,1369,1875
1535,1357,1840
1623,1467,1874
1697,1602,1975
1680,1567,1968
1674,1507,1857
1740,1586,1854
1607,1629,1930
1593,1503,1968
1594,1622,1882
1624,1555,1873
1198,1509,1903
1203,1568,2030
1530,1647,1951
1754,1605,1855
1789,1466,1943
1765,1596,1937
1778,1597,1917
1776,1600,1817
1801,1502,1926
1795,1574,2029
1790,1772,1939
1825,1685,1851
1757,1514,1939
1725,1520,2014
1782,1505,1813
1822,1632,1862
1819,1674,1968
1796,1670,1984
1822,1701,1917
1835,1574,1869
1828,1719,1972
1781,1615,1967
1811,1655,1887
1880,1779,1903
1843,1519,1951
1792,1600,1987
1810,1574,1862
1854,1595,1869
1862,1756,2000
1839,1770,1968
1846,1563,1920
1911,1613,1856
1863,1722,1997
1844,1816,2007
1859,1706,1901
1931,1680,1871
1922,1744,1958
1806,1623,2091
1824,1578,1929
1893,1697,1836
1875,1712,1911
1856,1711,2006
1913,1737,1949
1951,1645,1895
1909,1683,1917
1856,1726,1979
1856,1664,1914
1918,1764,1891
1958,1786,1987
1937,1721,2064
1878,1635,1786
1903,1615,1974
1995,1713,1920
1916,1712,2005
1849,1613,1831
1901,1766,1921
1904,1716,1942
1869,1712,1991
1935,1659,1934
2005,1767,1892
2007,1907,2001
1887,1742,1925
1890,1617,1837
2105,1534,1818
1936,1665,2002
1786,1789,1953
1833,1712,1792
1946,1694,1795
1963,1808,1975
1909,1744,1925
1934,1719,1791
2035,1629,1766
2098,1738,1973
1922,1754,1973
1840,1898,2000
1895,1735,1879
1902,1712,1841
1951,1799,1914
1935,1776,1808
1949,1486,1893
1969,1638,1926
1918,1787,1904
2059,1792,1776
2058,1785,1840
1919,1953,1851
1887,2039,2043
1886,1795,1850
1909,1616,1840
2016,1680,1890
2002,1790,1872
1934,1819,1859
1933,1965,1812
1933,1831,1885
1923,1707,1953
1862,1783,1815
1895,1728,1815
1958,1858,1829
1936,1877,1968
1929,1809,1917
2007,1855,1795
1985,1947,1970
2043,2192,1901
1940,1897,1775
1887,1699,1738
1955,1827,1910
1991,1920,1962
1997,1985,1935
2004,2099,1824
1973,2101,1870
1963,1892,1911
1982,1793,1883
1968,1902,1862
1936,1965,1837
1937,2005,1938
2030,2054,1857
2011,2062,1782
2029,2278,2001
2026,1970,1932
1979,1903,1881
2027,1941,1965
1955,2047,1930
1939,2142,1857
2026,2144,1801
2032,1968,1840
1976,2018,1924
1946,2124,2014
1981,2128,1910
2028,2034,1853
2052,2095,1953
2043,2201,1927
2063,2016,1836
1998,2047,1958
1973,2176,1934
1985,2108,1887
1970,2063,1842
2045,2182,1854
2146,2107,1920
1997,2141,1983
1954,2076,1890
2000,2031,1861
2059,2097,1946
2063,2241,1968
2015,2160,1959
2160,2075,2018
2155,2101,1939
2000,2188,1903
1930,2128,1837
2001,1950,1862
2061,2026,1987
2064,2151,1918
2057,2137,1843
2047,2201,1900
2021,2148,1951
1975,2103,1955
2000,2035,1865
2096,2112,1894
2096,2094,1906
2002,2170,1954
2003,2213,1909
2034,2171,1846
2096,2014,1903
2032,2032,2006
2076,2075,1903
2008,2009,1836
2027,2060,1935
2063,2141,2017
2071,2253,1858
2077,2035,1831
1998,2079,2032
2041,2135,1989
2032,2021,1787
2078,2014,1825
2017,2067,1949
2002,2106,2023
2101,2141,1935
2082,2134,1847
2055,2137,1909
1995,2032,2017
2010,2018,1904
2045,2063,1777
2096,2122,1891
2073,2165,1970
2106,1990,1848
2032,1938,1839
1978,2071,1950
1993,2128,1983
2023,2111,1853
2047,2002,1831
2014,2075,1985
2004,2021,1947
2042,1973,1798
2001,2033,1760
2075,2045,1902
1968,1996,1939
2018,1982,1819
1984,2023,1808
2087,2189,1937
2013,2256,1968
1968,2096,1851
1971,1922,1762
1984,1937,1854
1966,1941,1912
2015,2032,1840
2070,2070,1892
2073,1990,1935
1962,1989,1877
1956,1986,1779
2073,2015,1790
2098,2031,1908
2011,2038,2041
1970,1925,1775
2000,1987,1712
1995,2071,1843
1950,2061,1921
1943,2047,1857
2033,2209,1807
2000,2215,1897
2077,2079,1935
2003,2143,1843
1953,2022,1759
1951,2077,1844
1975,2123,1929
1968,2113,1786
2038,2222,1776
1991,2160,1871
2077,2126,1893
2043,2091,1818
1903,2128,1842
1968,2202,1963
1938,2271,1968
1980,2237,1807
1999,2238,1760
1971,2116,1833
1981,2131,1906
1988,2197,1829
2032,2165,1802
1983,2097,1879
1952,2286,1912
1979,2192,1808
2064,2099,1795
2019,2242,1863
1959,2155,1899
2000,2178,1881
2075,2179,1835
2151,2193,1860
1911,2235,1895
1955,2076,1855
2018,2029,1809
1937,2107,1887
1939,2254,1953
2020,2199,1775
1997,2035,1727
2005,2097,1881
1936,2171,1926
1953,2147,1835
2005,2155,1799
2066,2204,1876
1970,2256,1920
1909,2083,1808
1996,1979,1776
1975,2197,1936
2064,2239,1951
1965,2135,1780
1908,2115,1766
1933,2251,1890
1984,2330,1937
1938,2144,1823
1922,2150,1885
1934,2254,1904
1927,2135,1856
2003,2019,1754
1984,2096,1739
1947,2184,1881
1905,2259,1925
1994,2182,1812
1979,2241,1838
1969,2246,1904
1898,2135,1917
1839,2094,1825
1927,2145,1840
1968,2205,1917
2047,2274,1870
1968,2095,1781
2029,2185,1809
1982,2154,1881
1940,2064,1884
1968,2248,1840
1987,2092,1757
1977,2064,1851
1917,2128,1918
1975,2127,1834
1922,2129,1808
1905,2129,1889
1895,2133,1927
1935,2061,1815
2023,2239,1850
1959,2107,1866
1865,1958,1841
1923,1947,1859
2077,2095,1802
1904,2124,1853
1968,2183,1873
1943,2001,1767
2037,2055,1810
1907,2107,1872
1872,2006,1879
1845,1937,1811
1938,1902,1837
1949,2089,1905
1904,2233,1887
1930,2032,1772
1962,2059,1751
2000,1919,1857
1894,1953,1921
1917,1918,1846
1923,1905,1776
1963,1984,1854
1954,2015,1893
2059,2166,1873
1986,2010,1787
1807,1898,1856
1777,1886,1869
1872,1867,1789
1958,1961,1777
1951,1934,1839
1891,2011,1897
1879,2000,1855
1949,2007,1837
2020,1977,1906
1854,1804,1843
1840,1825,1744
1906,1911,1795
1920,1969,1887
1895,1916,1886
1942,1853,1793
2033,2000,1793
1991,2159,1852
1808,1746,1863
1776,1636,1770
1881,1774,1769
1942,2031,1905
1911,1990,1974
1897,1810,1763
1930,1910,1741
1884,1849,1904
1872,1811,1883
1940,1859,1768
1892,1805,1726
1875,1883,1876
1894,1855,1932
1991,1837,1861
1961,1885,1770
1898,1959,1826
1836,1812,1863
1904,1865,1783
1963,1781,1765
1883,1783,1856
1833,1798,1897
1902,1854,1825
1888,1841,1851
1907,1871,1921
1866,1786,1823
1899,1750,1735
1920,1824,1775
1955,1856,1871
1869,1892,1905
1865,1756,1798
1897,1791,1772
1981,1823,1851
1871,1894,1903
1845,1763,1839
1873,1643,1819
1920,1751,1870
1861,1841,1870
1899,1971,1824
1949,1744,1790
1889,1669,1852
1852,1888,1856
1901,1755,1776
1968,1633,1764
1954,1787,1826
1850,1842,1914
1820,1719,1826
1890,1738,1808
1907,1851,1968
1869,1968,1923
1914,1810,1722
1878,1585,1715
1876,1695,1861
1845,1761,1937
1872,1725,1782
1923,1722,1745
1897,1807,1869
1869,1755,1925
1870,1776,1803
1936,1888,1789
1924,1771,1856
1921,1728,1921
1865,1753,1783
1895,1712,1776
1886,1743,1841
1833,1797,1873
1835,1759,1825
1905,1750,1783
1892,1799,1878
1851,1808,1950
1875,1667,1819
1919,1791,1745
1918,1807,1849
1869,1715,1905
1861,1677,1791
1886,1829,1760
1931,1822,1904
1840,1671,1899
1849,1651,1791
1886,1723,1783
1934,1868,1931
1936,1909,1876
1843,1654,1763
1831,1605,1718
1878,1795,1857
1862,1813,1925
1891,1760,1794
1942,1665,1808
1925,1741,1869
1855,1863,1916
1833,1754,1814
1872,1627,1734
1901,1790,1844
1917,1876,1898
1840,1714,1765
1893,1713,1807
1915,1744,1898
1895,1798,1875
1934,1786,1803
1934,1702,1751
1856,1775,1874
1837,1792,1952
1857,1719,1831
1890,1763,1766
1885,1833,1858
1838,1881,1907
1843,1763,1840
1899,1749,1797
1894,1723,1839
1847,1782,1901
1842,1742,1828
1886,1742,1794
1903,1806,1919
1868,1893,1909
1877,1707,1793
1936,1757,1790
1916,1863,1883
1837,1827,1863
1868,1821,1851
1907,1727,1851
1890,1814,1889
1870,1761,1905
1865,1740,1783
1909,1763,1793
1870,1715,1854
1879,1764,1920
1858,1795,1853
1876,1808,1745
1868,1808,1838
1862,1805,1889
1885,1790,1805
1925,1874,1803
1883,1872,1897
1851,1818,1957
1847,1763,1910
1877,1695,1792
1883,1850,1828
1872,1794,1879
1866,1778,1779
1904,1825,1771
1952,1855,1870
1875,1877,1989
1808,1805,1851
1863,1777,1776
1878,1682,1831
1853,1730,1845
1880,1727,1789
1871,1795,1783
1890,1902,1927
1852,1851,1938
1874,1728,1796
1901,1756,1776
1872,1920,1911
1856,1823,1922
1856,1756,1798
1873,1697,1765
1885,1690,1873
1869,1931,1911
1867,1846,1792
1914,1798,1824
1901,1786,1943
1863,1798,1885
1894,1864,1743
1878,1770,1719
1876,1746,1875
1856,1715,1941
1835,1744,1815
1849,1792,1783
1893,1978,1918
1838,1881,1897
1883,1819,1813
1872,1703,1787
1867,1841,1886
1866,1933,1935
1849,1847,1814
1899,1756,1799
1872,1803,1834
1877,1790,1914
1942,1904,1838
1855,1769,1761
1842,1761,1861
1842,1875,1935
1844,1826,1822
1872,1795,1802
1866,1807,1889
1872,1799,1933
1904,1783,1845
1879,1914,1739
1830,1783,1846
1826,1831,1902
1857,1757,1815
1893,1870,1845
1903,1840,1898
1857,1902,1876
1924,1902,1776
1853,1748,1782
1798,1733,1844
1834,1802,1872
1888,1799,1817
1945,1866,1825
1930,1940,1906
1812,1841,1872
1780,1716,1783
1855,1743,1749
1877,1855,1879
1867,1865,1970
1907,1861,1808
1917,1808,1753
1867,1844,1831
1811,1875,1874
1823,1787,1773
1875,1766,1776
1897,1872,1922
1852,1938,1936
1857,1841,1776
1927,1779,1699
1871,1840,1914
1803,1842,1994
1817,1789,1776
1907,1777,1742
1885,1899,1890
1861,2019,1938
1895,1843,1836
1861,1708,1730
1866,1824,1842
1863,1911,1888
1893,1789,1808
1925,1864,1780
1875,1791,1871
1877,1883,1901
1845,1842,1859
1872,2000,1798
1859,1908,1870
1827,1823,1893
1868,1762,1790
1902,1863,1758
1893,1819,1903
1877,1848,1887
1904,1839,1827
1890,1901,1779
1933,1888,1835
1843,2043,1877
1854,1815,1806
1877,1830,1805
1841,1850,1872
1827,1921,1890
1856,1897,1818
1885,1872,1776
1887,2062,1911
1873,1897,1877
1840,1787,1743
1869,1760,1769
1889,1859,1875
1856,1872,1904
1877,1855,1827
1903,1920,1825
1898,1978,1935
1854,1872,1903
