1515,1898,1868
1518,1847,1782
1535,1879,1817
1530,1943,1904
1531,1936,1891
1535,1855,1821
1519,1904,1812
1493,1905,1890
1483,1833,1850
1510,1825,1776
1535,1920,1841
1611,2047,1972
1603,1943,1927
1475,1805,1748
1447,1885,1763
1440,1929,1856
1453,1825,1825
1488,1793,1750
1506,1920,1805
1497,1959,1881
1514,1962,1881
1535,1835,1808
1598,1949,1877
1506,1879,1887
1522,1901,1855
1535,1919,1728
1421,1795,1729
1402,1872,1837
1446,1886,1802
1489,1875,1741
1535,1952,1791
1573,2032,1872
1520,2007,1861
1454,1919,1771
1444,1971,1792
1454,2101,1879
1479,1939,1861
1504,1882,1793
1535,2037,1845
1535,2096,1927
1509,2034,1863
1478,2004,1745
1509,2087,1802
1444,2112,1841
1392,2066,1771
1535,2114,1785
1792,2309,2016
1729,2303,2021
1373,2038,1735
1321,1987,1663
1417,2097,1744
1473,2224,1858
1456,2227,1808
1456,2206,1712
1474,2271,1758
1457,2323,1842
1467,2319,1797
1488,2326,1746
1511,2368,1792
1509,2432,1872
1490,2418,1818
1513,2349,1732
1526,2391,1791
1520,2447,1872
1521,2449,1840
1535,2398,1774
1532,2413,1788
1517,2475,1858
1518,2428,1818
1554,2465,1741
1578,2418,1791
1568,2512,1888
1535,2288,1801
1535,2193,1699
1582,2311,1778
1568,2347,1856
1553,2237,1803
1579,2211,1724
1599,2273,1779
1578,2384,1865
1554,2286,1806
1573,2210,1717
1600,2281,1777
1595,2337,1859
1568,2298,1808
1581,2153,1712
1616,2233,1776
1590,2165,1827
1581,2180,1776
1630,2235,1718
1664,2269,1777
1660,2349,1840
1602,2163,1774
1607,1805,1670
1654,2011,1754
1671,2194,1856
1648,2085,1830
1671,1936,1779
1697,2080,1744
1683,2221,1776
1701,2011,1699
1682,2064,1695
1669,2000,1760
1671,1973,1822
1686,2054,1744
1669,1902,1691
1642,1983,1765
1635,2080,1851
1680,2074,1776
1776,1874,1728
1734,2078,1891
1660,2029,1830
1603,1798,1695
1614,1777,1652
1604,1723,1739
1651,2079,1843
1625,1930,1739
1617,2013,1767
1627,1679,1751
1619,1648,1794
1609,1777,1778
1636,1907,1872
1639,1886,1746
1630,1872,1725
1648,1792,1714
1674,1805,1723
1570,1778,1777
1535,1813,1841
1565,1690,1779
1601,1797,1679
1633,1851,1819
1627,2019,1950
1611,1721,1811
1611,1601,1601
1612,1761,1732
1615,1905,2015
1661,1887,1774
1716,1667,1611
1707,1847,1675
1555,1599,1797
1442,1535,1818
1514,1644,1701
1614,1775,1749
1680,1943,1862
1583,1798,1808
1563,1875,1705
1584,1663,1745
1580,1646,1840
1595,1782,1792
1669,1808,1737
1693,2001,1873
1525,1631,1885
1506,1743,1771
1700,1771,1629
1535,1734,1712
1360,1937,1916
1412,1935,1866
1596,1770,1645
1423,1850,1749
1323,1899,1850
1296,1942,1815
1340,1826,1707
1392,1872,1728
1309,2062,1876
1238,1907,1798
1296,2002,1730
1328,1863,1790
1269,1757,1949
1239,1889,1771
1278,1971,1677
1307,2054,1732
1327,1993,1825
1244,1857,1763
1261,1885,1798
1428,2056,1761
1371,2112,1821
1213,1996,1797
1200,2029,1772
1218,2034,1738
1227,1817,1840
1223,1876,1813
1267,2012,1764
1264,2175,1712
1248,1966,1763
1219,1989,1762
1233,1905,1692
1328,1977,1776
1339,2134,1862
1279,2133,1787
1202,2018,1744
1354,1927,1793
1227,1877,1808
1203,1957,1798
1279,2161,1824
1342,1943,1764
1293,1841,1767
1252,1943,1840
1290,2027,1793
1289,2124,1763
1302,2079,1823
1225,1871,1766
1200,1837,1733
1298,1936,1776
1226,2015,1871
1150,1920,1785
1183,1867,1765
1190,1925,1743
1215,2153,1819
1146,2019,1719
1117,1791,1750
1276,2007,1867
1265,2112,1853
1200,1825,1769
1009,1821,1721
1037,1988,1833
1210,1990,1921
1101,1910,1830
1088,1961,1722
1130,1935,1741
1122,1904,1845
1079,1953,1817
1056,1935,1693
1006,1776,1698
950,1871,1846
955,1951,1896
967,2000,1806
1053,2063,1725
914,2064,1839
818,2115,1838
825,1971,1697
907,1933,1755
915,1936,1867
869,1983,1821
931,2091,1738
931,2103,1781
866,2325,1924
848,2179,1871
914,2160,1798
912,2098,1755
1033,2187,1773
821,2345,1793
784,2123,1767
898,2175,1866
877,2302,1936
848,2277,1809
877,2271,1712
945,2352,1822
933,2273,1882
848,2165,1769
841,2112,1744
861,2227,1827
885,2259,1914
841,2389,1916
721,2320,1771
719,2242,1836
686,2161,1798
685,2135,1778
759,2206,1826
722,2190,1817
766,2211,1876
671,2266,1880
644,2306,1777
707,2432,1851
722,2214,1983
647,1946,1835
674,2128,1728
657,2078,1781
586,2129,1915
526,2288,1846
550,2159,1795
452,1926,1818
445,2135,1852
503,2235,1842
493,2098,1798
431,2067,1826
406,2062,1951
428,2042,1893
530,2143,1759
509,2149,1831
432,2095,1895
420,2033,1830
496,2007,1788
537,2124,1866
528,2149,1908
527,1863,1802
550,1900,1778
575,1984,1839
614,2123,1907
603,1989,1883
593,1872,1863
608,2032,1856
564,1938,1835
571,1906,1822
641,1960,1872
693,1969,1857
727,1968,1861
703,2025,1863
654,1914,1834
720,1903,1816
714,1973,1907
704,1845,1843
783,1987,1806
783,1831,1829
790,1834,1903
833,1887,1838
894,1982,1753
827,1999,1872
808,1899,1936
862,1775,1871
965,1839,1789
940,1744,1803
950,1853,1903
921,1827,1850
926,1819,1808
987,1799,1934
1014,1886,1918
1034,1875,1874
1010,1906,1813
1040,1954,1876
1056,1712,1971
1045,1728,1837
1091,1837,1740
1104,1687,1804
1123,1715,1917
1112,1776,1871
1178,1773,1813
1213,1877,1878
1288,1893,1944
1233,1875,1861
1138,1669,1821
1190,1698,1882
1238,1701,1931
1266,1651,1801
1253,1714,1858
1286,1865,1881
1315,1859,1914
1280,1651,1794
1345,1647,1761
1362,1801,1885
1389,1902,1985
1383,1872,1936
1392,1654,1814
1399,1670,1843
1354,1616,1859
1360,1754,1840
1430,1729,1829
1535,1759,1979
1615,1840,1904
1472,1719,1808
1371,1606,1732
1424,1611,1861
1468,1693,1927
1499,1697,1835
1430,1694,1780
1455,1840,1866
1449,1819,1922
1399,1633,1835
1442,1650,1815
1520,1845,1915
1495,1712,1947
1520,1575,1829
1473,1643,1807
1490,1669,1855
1433,1689,1941
1455,1697,1840
1535,1665,1726
1594,1719,1823
1473,1744,1955
1427,1630,1867
1517,1629,1777
1571,1663,1849
1556,1754,1932
1509,1625,1847
1600,1571,1772
1616,1614,1847
1600,1984,1991
1658,1765,1849
1682,1459,1719
1631,1535,1835
1558,1725,1968
1648,1758,1945
1680,1661,1788
1678,1642,1911
1629,1744,1940
1615,1737,1817
1750,1589,1755
1666,1655,1987
1616,1745,2045
1603,1777,1811
1685,1613,1652
1617,1559,1813
1606,1808,1927
1570,1629,1838
1535,1698,1790
1577,1590,1852
1621,1721,1936
1574,1730,1874
1613,1667,1838
1630,1598,1808
1708,1752,1905
1607,1680,1852
1614,1623,1798
1570,1678,1879
1599,1877,1968
1616,1707,1885
1662,1493,1765
1655,1653,1871
1616,1744,1968
1647,1685,1914
1691,1652,1839
1734,1712,1773
1715,1838,1895
1763,1782,1875
1724,1513,1733
1673,1724,1845
1664,1631,1968
1678,1591,1899
1713,1635,1712
1758,1703,1883
1795,2026,2007
1769,1678,1833
1710,1586,1717
1744,1725,1887
1770,1770,1969
1883,1681,1845
1771,1557,1785
1722,1593,1835
1791,1844,1920
1840,1737,1902
1846,1610,1794
1795,1771,1881
1791,1648,1921
1841,1616,1952
1904,1630,1857
1990,1698,1905
1914,1827,1887
1791,1732,1773
1776,1586,1746
1847,1655,1870
1903,1847,2027
2023,2081,1955
1936,1659,1811
1813,1418,1731
1827,1554,1899
1871,1772,1883
1939,1774,1761
1985,1873,1942
1929,1738,1945
1943,1504,1845
2014,1643,1840
1969,1761,1859
1998,1887,1936
1943,1714,1851
2037,1642,1817
2015,1842,1885
1916,1631,1936
1891,1585,1904
1989,1725,1822
2067,1885,1883
2006,1791,1923
1962,1667,1857
2015,1694,1773
2138,1793,1802
2058,1782,1991
1919,1565,1837
2000,1674,1799
2109,1807,1827
2063,1786,1976
2095,1783,1949
2075,1710,1802
2019,1747,1774
1994,1701,1859
2063,1704,1941
2187,1762,1895
2131,1808,1874
2016,1697,1917
2052,1746,1856
2150,1859,1759
2156,1790,1860
2079,1736,1971
2067,1581,1888
2101,1723,1792
2153,1809,1920
2139,1840,2003
2130,1901,1914
2156,1718,1683
2206,1648,1886
2132,1715,1934
2071,1696,1802
2134,1749,1830
2160,1926,1968
2150,1939,1965
2103,1690,1829
2126,1581,1809
2163,1780,1821
2153,1811,1939
2165,1767,1885
2193,1733,1813
2228,1973,1936
2212,1808,1959
2166,1760,1902
2153,1786,1901
2181,1773,1803
2161,1730,1865
2192,1929,1920
2224,1685,1800
2229,1824,1889
2134,1835,1971
2093,1611,1847
2170,1678,1770
2303,1924,1812
2267,1874,1919
2137,1751,1901
2141,1744,1815
2220,1861,1851
2219,1808,1905
2182,1713,1941
2167,1786,1819
2230,1872,1839
2193,1851,1920
2162,1728,1865
2194,1778,1806
2222,1872,1936
2238,1897,1952
2192,1872,1891
2206,1697,1735
2220,1702,1820
2153,1794,1931
2192,1754,1885
2256,1811,1741
2183,1840,1798
2096,1862,2000
2112,1841,1882
2194,1873,1808
2134,1776,1789
2099,1655,1871
2121,1776,1826
2164,1820,1829
2175,1800,1991
2149,1937,1932
2133,1805,1825
2133,1915,1890
2251,1776,1743
2133,1776,1911
2016,1695,1829
2019,1770,1747
2101,1860,1918
2175,1855,2064
2136,1858,1824
2131,1965,1716
2135,1823,1867
2079,1776,1936
2046,1680,1792
2125,1758,1776
2195,1984,1901
2189,1899,1928
2123,1776,1810
2073,1598,1721
2127,1983,1851
2241,1909,1933
2144,1686,1840
2047,1705,1807
2078,1867,1948
2115,1882,1887
2115,1807,1789
2128,1889,1802
2160,1898,1877
2121,2001,1971
2111,1799,1854
2101,1713,1747
2193,1798,1907
2160,1779,1968
2084,1829,1793
2112,1855,1750
2141,1845,1846
2165,1935,1940
2205,2081,1858
2114,1699,1723
2026,1616,1776
2073,1808,1919
2141,1918,1935
2153,1815,1755
2128,1764,1776
2118,1901,1931
2109,1863,1898
2111,1856,1774
2173,1834,1791
2171,1936,1931
2129,1791,1878
2121,1773,1753
2158,1858,1824
2092,1875,1940
2117,1824,1872
2128,1797,1779
2130,1899,1903
2149,1910,1991
2151,1925,1841
2111,1889,1737
2114,1792,1802
2098,1760,1860
2097,1743,1817
2155,1905,1805
2235,2021,1963
2125,1836,1936
2101,1731,1776
2179,1890,1770
2150,1923,1871
2097,1850,1898
2023,1742,1823
2094,1737,1795
2170,1857,1858
2167,1983,1948
2065,1870,1842
2184,1993,1795
2161,1908,1890
2084,1875,1941
2098,1776,1892
2093,1719,1729
2109,1918,1851
2223,1954,1893
2160,1923,1861
2191,1790,1933
2174,2009,1810
2032,1887,1840
2007,1639,1829
2039,1710,1783
2118,1891,1872
2041,1969,1896
2055,1866,1843
2162,1827,1781
2134,2000,1809
2035,1821,1874
2063,1807,1909
2071,1844,1788
2121,1929,1831
2132,2027,1965
2161,1812,1863
2147,1723,1689
2058,1825,1857
2064,1920,1941
2123,1968,1870
2167,1840,1808
2087,2070,1862
2113,1885,1915
2099,1687,1786
2112,1764,1742
2078,1883,1845
2070,2103,1968
2055,1872,1855
2090,1732,1776
2087,1936,1854
2112,1869,1937
2042,1791,1787
2163,1917,1758
2123,2133,1925
2039,2005,1986
2013,1801,1780
2079,1813,1715
2096,1852,1783
2064,1923,1889
2067,1871,1892
2036,1814,1840
2015,1887,1875
2089,2017,1926
2082,1926,1825
2115,1822,1817
2147,2086,1914
2109,1951,1861
1971,1744,1778
2035,1808,1776
2057,1921,1891
2022,1915,1894
2010,1902,1814
2094,1934,1805
2125,2002,1895
2112,1987,1984
2034,1783,1829
2010,1771,1773
2098,1885,1834
2089,1970,1871
2038,1891,1827
2128,1911,1887
2078,1888,1843
2021,1938,1835
2087,1893,1751
2089,1851,1773
2096,1890,1925
2045,1966,1984
2000,1857,1813
2022,1851,1742
2045,1897,1861
2054,1953,1923
2096,1879,1904
2080,1963,1815
2091,1947,1875
1987,1913,1872
2043,1927,1800
1999,1936,1778
2018,1900,1837
2000,1968,1887
2081,1946,1853
2096,1936,1803
1989,1841,1889
1876,1870,1907
2018,1878,1840
2013,1885,1792
2069,1862,1885
2039,1953,1951
2021,1943,1792
2052,1892,1712
2080,1871,1851
2025,1957,1958
2055,2030,1823
2087,1923,1805
2053,1822,1904
1914,1809,1874
2055,2003,1829
2044,1926,1818
2007,1859,1840
1974,1903,1867
1974,1909,1828
2047,2009,1799
2085,1987,1850
1957,1914,1894
1940,1814,1872
1941,1795,1838
2031,1882,1871
1957,2016,1935
1991,1968,1815
1966,1910,1733
1951,1854,1817
1923,1904,1904
2000,1899,1861
1942,1978,1776
1962,1994,1883
1934,1950,1905
1985,1878,1824
2031,1924,1802
2016,1806,1872
1924,1859,1867
1930,1872,1843
1943,1874,1837
1979,2045,1859
1904,2115,1886
1856,1766,1829
1882,1719,1741
1919,1942,1859
1915,1951,1926
1891,1809,1821
1990,1862,1828
1923,1933,1862
1777,1958,1919
1883,1967,1874
1962,2083,1818
1889,1945,1811
1808,1776,1923
1845,1847,1835
1890,1781,1734
1930,1851,1839
1877,1926,1951
1886,2097,1872
1905,1823,1742
1921,1803,1843
1905,1806,1918
1861,1825,1858
1936,1858,1742
1932,1958,1860
1904,2091,1904
1877,1984,1827
1902,1779,1807
1901,1808,1894
1882,1983,1925
1919,1855,1823
1887,1775,1739
1872,1881,1809
1946,2006,1950
1914,1994,1881
1867,1802,1808
1888,1809,1904
1915,1911,1930
1907,1879,1824
1924,1783,1792
1873,1826,1913
1842,1930,1878
1942,1923,1795
1930,1872,1750
1904,1840,1918
1892,2000,1926
1862,1927,1804
1879,1743,1754
1907,1924,1889
1885,2023,1997
1872,1810,1818
1894,1713,1744
1927,1964,1887
1856,1968,1889
1834,1761,1744
1904,1714,1750
1943,2011,1900
1919,1906,1942
1919,1809,1853
1870,1803,1790
1872,1860,1831
1871,1925,1897
1923,1910,1840
1897,1867,1808
1839,1850,1839
1848,1983,1981
1903,1932,1863
1922,1776,1744
1893,1811,1872
1841,1856,1923
1877,1954,1805
1926,1787,1725
1922,1760,1819
1893,1835,1904
1872,2032,1925
1906,1847,1802
1824,1735,1771
1819,1877,1872
1894,2042,1890
1918,1817,1846
1859,1648,1842
1872,1850,1877
1919,1792,1777
1915,1858,1808
1891,1898,1902
1876,2082,1952
1822,1909,1813
1822,1729,1735
1920,1729,1810
1889,1837,1984
1841,1846,1851
1879,1901,1764
1862,1719,1805
1853,1770,1856
1862,1847,1826
1995,1929,1750
1876,1835,1879
1792,1815,1904
1840,1783,1821
1943,1853,1761
2003,1921,1961
1842,1937,1905
1786,1840,1730
1838,1683,1727
1886,1693,1869
1887,1965,1967
1855,1821,1806
1926,1815,1712
1951,1854,1870
1936,2032,1938
1792,1695,1783
1822,1727,1733
1899,1985,1837
1925,1841,1908
1829,1726,1841
1887,1809,1766
1873,1829,1840
1897,1872,1920
1872,1910,1881
1887,1870,1766
1876,1795,1808
1857,1796,1904
1875,1919,1803
1913,1731,1719
1953,1803,1803
1882,1844,1920
1827,1852,1840
1844,1920,1809
1936,1857,1862
1904,1814,1925
1839,1769,1818
1834,1775,1749
1855,1861,1847
1890,1887,1898
1839,1759,1785
1861,1766,1763
1970,1961,1923
1866,2030,1932
1811,1802,1775
1854,1680,1731
1892,1730,1839
1894,1821,1913
1900,1773,1904
1890,1920,1785
1887,1920,1870
1850,1793,1879
1797,1728,1775
1867,1857,1776
1891,1986,1883
1925,1899,1968
1904,1893,1828
1859,1700,1743
1831,1722,1790
1872,1839,1984
1872,1853,1884
1891,1909,1753
1915,1933,1845
1919,1808,1956
1872,1697,1844
1842,1779,1742
1936,2000,1889
1854,1808,1902
1806,1715,1823
1873,1806,1755
1917,1835,1859
1855,1875,2000
1825,1867,1813
1897,1878,1807
1886,1867,1857
1868,1873,1904
1831,1754,1839
1885,1719,1803
1919,1893,1901
1849,1922,1903
1837,1815,1790
1866,1742,1742
1959,1930,1867
1978,1838,1910
1869,1645,1774
1794,1686,1768
1837,1838,1890
1894,1978,1921
1938,1906,1791
1853,1757,1744
1881,1907,1894
1901,1997,1984
1861,1799,1822
1852,1747,1764
1869,1776,1855
1870,1869,1920
1899,1980,1827
1930,1802,1809
1856,1746,1878
1877,1879,1894
1893,1939,1818
1867,1812,1742
1882,1746,1813
1900,1853,1947
1873,1803,1883
1889,1856,1819
1946,1887,1829
1904,2086,1891
1878,1911,1813
1840,1612,1751
1863,1709,1875
1863,1919,1958
1854,1936,1872
1891,1878,1793
1906,1923,1799
1856,1840,1865
1839,1757,1866
1898,1887,1829
1904,1730,1856
1904,1863,1887
1869,1865,1899
1895,1790,1751
1907,1783,1840
1969,2037,1908
1855,1846,1818
1783,1770,1794
1820,1782,1982
1856,1949,1911
1858,1873,1735
1887,1741,1730
1890,1777,1878
1877,1977,1962
1856,1938,1787
1866,1787,1738
1891,1915,1872
1860,1744,1911
1879,1743,1808
1910,1840,1771
2032,1977,1898
1923,1920,1919
1811,1782,1771
1783,1720,1772
1835,1776,1933
1861,1947,2010
1850,1840,1791
1910,1900,1766
1921,1957,1884
1859,1866,1870
1843,1771,1790
1882,1808,1826
1903,1877,1897
1902,2037,1974
1865,1797,1813
1881,1802,1743
1969,1838,1882
1888,1853,1949
1838,1744,1807
1879,1856,1729
1887,1966,1852
1865,1941,1930
1875,1683,1793
1868,1667,1757
1888,1862,1872
1855,1895,1905
1859,1905,1819
1890,1889,1831
1909,1914,1989
1871,1925,1998
1865,1844,1777
1995,1750,1748
1841,1827,1800
1808,1846,1878
1808,1825,1809
1873,1695,1765
1895,1791,1857
1846,1911,1933
1871,1937,1921
1871,1830,1773
1890,1767,1838
1870,1878,1875
1886,1913,1830
1935,1899,1792
1882,1733,1840
1851,1867,1904
1845,1835,1827
1910,1901,1808
1873,1918,1861
1862,1902,1906
1854,1885,1796
1891,1774,1776
1895,1802,1891
1855,1792,1958
1858,1789,1815
1890,1861,1742
1907,1945,1887
1950,1996,1939
1854,1738,1936
1807,1808,1758
1831,1855,1803
1872,1952,1921
1851,1857,1791
1863,1735,1750
1886,1871,1915
1915,1978,1973
1831,1797,1795
1827,1754,1741
1875,1835,1869
1872,1879,1927
1874,1919,1863
1910,1785,1833
1887,1794,1819
1849,1902,1867
1854,1850,1830
1936,1919,1827
1936,1947,1918
1856,1797,1870
1847,1835,1879
1855,1987,1803
1865,1936,1856
1854,1835,1909
1879,1904,1840
1908,1787,1749
1879,1760,1837
1926,1885,1987
1857,1770,1879
1865,1892,1783
1869,1965,1826
1870,1724,1858
1872,1794,1835
1880,1857,1806
1883,1914,1855
1904,2032,1929
1904,1968,1903
1900,1666,1789
1831,1747,1808
1835,1921,1863
1943,1885,1867
1923,1901,1824
1821,1810,1854
1810,1879,1882
1841,1969,1817
1890,1818,1844
1883,1957,1882
1833,1817,1853
1846,1695,1740
1861,1666,1760
1886,1891,1897
1872,1836,1947
1878,1867,1859
1917,1825,1787
1846,1859,1856
1831,1977,1923
1872,2115,1872
1921,1770,1776
1845,1677,1813
1811,1828,1918
1810,1810,1829
1862,1824,1772
1935,1887,1853
1882,1921,1927
1843,1872,1890
1888,1971,1765
1845,1776,1793
1852,1797,1909
1918,1872,1857
1899,1989,1810
1838,1794,1826
1799,1791,1849
1871,1793,1807
1857,1840,1751
1866,1903,1892
1890,1911,1969
1854,1843,1807
1840,1806,1786
1863,2115,1904
1862,1959,1943
1869,1770,1776
1870,1750,1731
1834,1760,1861
1833,1863,1924
1888,2226,1855
1891,1861,1767
1877,1678,1901
1824,1967,1966
1851,1811,1797
1907,1791,1751
1959,1847,1870
1854,1739,1958
1779,1745,1796
1850,1854,1654
1840,1808,1743
1833,1911,1892
1846,2015,1869
1883,1870,1777
1871,1902,1874
1840,1891,1923
1849,1825,1834
1899,1956,1874
1904,2099,1901
1856,1845,1847
1851,1631,1714
1961,1633,1771
1901,1822,1840
1791,1969,1943
1799,1974,1845
1834,1823,1775
1876,1897,1872
1870,1890,1922
1895,1790,1837
1849,1781,1808
1872,1814,1810
1893,1977,1918
1957,2002,1863
1778,1793,1767
1770,1721,1808
1823,1951,1909
1872,1988,1857
1894,1767,1746
1846,1732,1841
1818,1849,1898
1822,1857,1809
1874,2112,1803
1872,1866,1858
1869,1815,1899
1840,1824,1826
1897,1658,1744
1824,1761,1798
1840,1887,1900
1941,2014,1851
1893,1741,1730
1891,1744,1871
1807,2032,1982
1797,1968,1808
1813,1733,1686
1904,1778,1845
1841,1874,1956
1795,1817,1805
1845,1728,1747
1856,1813,1817
1837,2019,1894
1824,1981,1792
1849,1699,1760
1878,1829,1936
1808,1763,1903
1859,1760,1778
1909,1899,1763
1905,1905,1846
1827,1744,1872
1825,1761,1847
1882,1810,1761
1879,1947,1827
1829,1942,1907
1874,2138,1893
1808,1666,1706
1824,1680,1831
1839,1857,1951
1839,1812,1811
1868,1849,1794
1893,1875,1843
1874,2000,1879
1859,1889,1781
1863,1823,1749
1840,1817,1827
1837,1862,1909
1872,1785,1791
1869,1727,1744
1847,1825,1879
1876,1975,2031
1877,1980,1856
1810,1797,1782
1829,1805,1840
1826,1943,1858
1856,2091,1807
1898,1719,1739
1854,1731,1830
1855,1877,1915
1866,1905,1806
1887,1904,1840
1883,1878,1889
1784,1839,1910
1825,1893,1877
1888,1872,1877
1903,1843,1763
1909,1899,1868
1858,1889,1770
1840,1817,1759
1836,1789,1920
1852,1872,1974
1838,1952,1927
1883,1831,1707
1887,1776,1744
1819,1860,1833
1838,1857,1818
1867,1988,1820
1885,2043,1937
1841,1967,2000
1829,1712,1899
1859,1712,1712
1873,1790,1793
1857,1898,1870
1950,1808,1783
1936,1853,1837
1949,1955,1901
1842,2073,1947
1787,1931,1855
1798,1798,1801
1840,1867,1846
1856,1887,1935
1845,1789,1803
1856,1755,1768
1846,1887,1869
1827,1991,1925
1855,1867,1801
1925,1862,1842
1867,1945,1945
1838,1747,1951
1862,1698,1765
1823,1765,1779
1851,1914,1906
1887,2081,1955
1883,2031,1881
1840,1917,1733
1825,1681,1888
1808,1733,1808
1859,1811,1823
1943,1985,1878
1872,1993,1872
1869,2036,1950
1854,1747,1810
1817,1703,1793
1871,1840,1817
1902,1965,1841
1827,1952,1820
1857,1730,1856
1888,1705,1851
1834,1818,1861
1845,1981,1829
1885,1846,1787
1905,1814,1895
1782,1856,1891
1819,2087,1872
1939,1986,1945
1887,1761,1887
1865,1765,1846
1806,1833,1799
1875,1795,1738
1857,1856,1915
1858,2081,1936
1830,1890,1762
1867,1685,1738
1845,1697,1877
1834,1834,1933
1850,1954,1806
1978,1915,1762
1829,1806,1879
1793,1891,1968
1847,1856,1847
1872,1821,1799
1881,1974,1899
1849,1915,1875
1851,1840,1750
1884,1778,1809
1904,1781,1883
1873,1891,1984
1846,1987,1767
1857,1855,1786
1839,1920,1927
1841,1984,1966
1944,1788,1795
1884,1783,1750
1811,1841,1895
1825,1954,1936
1859,1884,1791
1887,1803,1783
1893,1982,1901
1861,1741,1923
1808,1669,1735
1846,1822,1736
1887,1968,1872
1957,1918,1873
1872,1838,1776
1793,1886,1803
1817,1971,1898
1840,1935,1935
1856,1804,1810
1895,1766,1783
1867,1872,1936
1836,1936,2061
1843,1904,1818
1875,1830,1793
1904,1936,1851
1855,1847,1889
1843,1757,1765
1885,1854,1787
1929,1925,1967
1837,1856,1915
1847,1865,1744
1843,1853,1764
1858,1913,1918
1873,1885,1919
1856,1783,1761
1848,1838,1776
1936,1951,1909
1889,1911,1926
1831,1792,1781
1861,2064,1825
1877,1943,1913
1856,1877,1902
1858,1787,1762
1917,1963,1813
1916,1799,1904
1856,1671,1908
1821,1775,1794
1853,1875,1776
1894,2023,1919
1860,1975,1925
1904,1777,1794
1926,1767,1835
1936,1932,1890
1841,1990,1891
1869,1803,1798
1895,1738,1850
1865,1893,1882
1833,1892,1968
1855,1881,1844
1886,1843,1863
1860,1883,1926
1857,2032,1933
1855,1855,1797
1923,1823,1806
1907,1926,1892
1808,1905,1874
1825,1819,1809
1865,1703,1807
1895,1902,1872
1867,1959,1905
1861,1759,1771
1918,1834,1790
1921,1872,1872
1937,1857,1904
1883,1922,1821
1875,1871,1798
1834,1883,1893
1821,2110,1975
1839,1872,1916
1871,1678,1739
1859,1774,1786
1851,1807,1884
1884,1986,1855
1915,1943,1824
1863,1776,1831
1857,1875,1933
1920,1706,1851
1902,1779,1738
1879,1879,1807
1883,1883,1903
1908,1829,1889
1850,1872,1789
1856,1921,1917
1861,1904,1911
1843,1891,1885
1875,1915,1785
1898,1930,1895
1861,1872,1938
1870,1799,1830
1875,1739,1751
1870,1808,1866
1882,1834,1924
1917,1856,1826
1891,1904,1786
1870,1939,1902
1872,2093,1968
1879,1993,1861
1822,1718,1759
1835,1683,1863
1882,1746,1915
1875,1787,1803
1872,1851,1791
1886,1949,1905
1869,1870,1935
1870,1814,1819
1917,1825,1849
1952,1952,1907
1904,2019,1945
1863,1843,1793
1848,1812,1792
1856,1902,1899
1840,1924,1934
1873,1781,1908
1885,1762,1776
1849,1815,1822
1841,1865,1890
1894,1981,1862
1918,1945,1849
1883,1856,1927
1888,1810,1877
1904,1919,1808
1881,1833,1728
1887,1757,1863
1873,1842,1994
1859,1873,1824
1967,1870,1775
1874,1902,1961
1782,2035,1957
1902,2063,1827
1871,1889,1793
1833,1826,1911
1872,1941,1918
1846,1739,1766
1906,1666,1807
1966,1894,1975
1846,2064,1930
1905,1821,1750
1950,1841,1817
1904,1968,1962
1898,1792,1878
1755,1787,1771
1898,2021,1785
1854,1957,1919
1808,1758,1887
1822,1711,1803
1918,1901,1808
1900,1962,1889
1848,1855,1901
1891,1909,1859
1881,2023,1845
1884,1865,1845
1887,1714,1825
1822,1743,1775
1897,1984,1883
1936,1971,1909
1906,1771,1853
1870,1811,1825
1920,1818,1793
1946,1987,2007
1850,1957,1882
1787,1784,1745
1840,1844,1843
1883,1830,1892
1885,1873,1867
1847,1881,1793
1885,1874,1810
1843,1790,1847
1846,1851,1877
1844,1835,1827
1872,1986,1886
1917,1994,1905
1882,2035,1904
1803,1680,1723
1883,1703,1721
1897,1948,1911
1862,1783,1951
1826,1678,1691
1842,1910,1712
1929,2112,1917
1935,1950,1897
1728,1643,1759
1777,1762,1808
1837,1839,1882
1798,1966,1893
1788,1797,1795
1913,1782,1770
1872,1909,1897
1837,1875,1935
1840,1910,1843
1895,1971,1808
1842,1825,1884
1825,1846,1840
1871,1729,1760
1854,1798,1737
1870,1898,1867
1867,1932,1926
1926,1943,1858
1935,1856,1763
1856,1841,1825
1811,1776,1871
1803,1808,1935
1845,1766,1835
1826,1895,1795
1805,1825,1827
1865,1822,1770
1904,1904,1802
1847,1951,1926
1844,1872,1918
1846,1874,1797
1833,1879,1770
1883,1835,1851
1841,1843,1877
1792,1817,1803
1873,1776,1918
1866,1887,1872
1866,1914,1840
1927,1891,1744
1920,1911,1776
1868,1875,1914
1779,1789,1872
1793,1783,1776
1865,1823,1800
1892,1887,1920
1893,2153,1996
1865,1851,1799
1835,1648,1664
1818,1753,1857
1830,1858,1894
1821,1839,1779
1923,1991,1813
1914,1971,1949
1798,1889,1895
1869,1777,1744
1903,1745,1758
1890,1895,1889
1856,1872,1904
1947,1788,1820
1855,1760,1891
1846,1936,1875
1853,1953,1865
1827,1890,1785
1839,1883,1783
1849,1866,1912
1840,1920,1922
1910,1931,1806
1759,1791,1754
1792,1715,1879
1808,1834,1906
1847,1815,1766
1871,1887,1790
1873,1968,1910
1866,1915,1907
1885,1889,1799
1946,1943,1802
1904,1963,1905
1813,1743,1827
1834,1627,1730
1836,1734,1757
1899,1888,1891
1858,2009,1987
1825,1982,1891
1852,1919,1783
1863,1936,1847
1823,1710,1855
1851,1742,1776
1884,1785,1785
1917,1906,1850
1841,1895,1880
1821,1787,1811
1889,1875,1792
1901,2069,1872
1831,1840,1868
1875,1735,1794
1904,1910,1885
1902,1875,1821
1837,1818,1840
1858,1786,1771
1871,1882,1807
1935,1872,1907
1859,1926,1880
1856,1900,1798
1968,1826,1776
1849,1831,1877
1863,1856,1953
1863,1888,1836
1907,1872,1779
1890,1841,1934
1850,1863,1926
