1866,1702,1758
1907,1778,1806
1903,1869,1956
1867,1809,1943
1869,1744,1776
1915,1787,1787
1903,1809,1911
1865,1789,1898
1871,1737,1789
1903,1774,1838
1902,1820,1931
1861,1791,1897
1865,1730,1773
1904,1745,1808
1889,1792,1945
1859,1774,1914
1872,1706,1787
1901,1731,1819
1901,1798,1946
1870,1776,1908
1866,1706,1778
1907,1718,1818
1902,1774,1942
1872,1733,1905
1872,1674,1778
1902,1715,1813
1901,1792,1929
1872,1731,1907
1871,1647,1783
1905,1685,1813
1904,1755,1946
1872,1725,1904
1870,1661,1759
1901,1690,1806
1902,1715,1927
1871,1721,1904
1871,1653,1778
1911,1680,1825
1915,1750,1956
1870,1712,1907
1871,1619,1776
1903,1621,1808
1904,1725,1937
1883,1710,1907
1869,1625,1774
1905,1646,1813
1904,1697,1936
1886,1667,1908
1878,1631,1778
1903,1645,1792
1886,1653,1904
1862,1649,1871
1868,1571,1767
1905,1595,1810
1894,1648,1934
1852,1646,1887
1843,1584,1744
1879,1599,1791
1893,1665,1931
1877,1639,1904
1871,1561,1769
1893,1571,1782
1889,1626,1905
1858,1604,1872
1865,1588,1759
1917,1586,1810
1577,1594,1943
1658,1639,1899
1856,1530,1749
1953,1553,1795
1941,1643,1928
1906,1648,1920
1904,1616,1813
1919,1510,1808
1910,1574,1919
1666,1586,1918
912,1521,1799
383,1595,1838
1574,1712,1952
2901,1680,1921
2674,1721,1806
2253,1600,1821
1845,1581,1935
1759,1535,1927
1806,1472,1803
1815,1554,1829
1831,1598,1974
1867,1614,1951
1849,1616,1797
1835,1607,1794
1835,1535,1915
1830,1611,1923
1829,1609,1823
789,1506,1831
2031,1523,1938
2219,1556,1900
2057,1596,1792
1849,1562,1859
1799,1614,1953
1821,1616,1918
1839,1514,1808
1840,1440,1849
1835,1554,1963
1836,1513,1933
1838,1487,1805
1826,1447,1854
1827,1514,1971
1834,1531,1943
1885,1418,1789
812,1456,1839
0,1554,2005
2533,1530,1989
3967,1478,1856
2469,1406,1872
1627,1370,1941
1639,1425,1959
1827,1451,1833
1943,1362,1881
1887,1482,2011
1831,1574,2000
1822,1390,1879
1825,1481,1927
1837,1380,1933
1835,1370,1941
1831,1343,1892
1833,1347,1941
1829,1558,2085
1840,1479,2032
1835,1367,1872
1836,1385,1884
1830,1425,1995
1829,1339,2035
1829,1407,2031
1830,1535,2012
1830,1570,2045
1831,1204,1894
1833,1136,1968
1837,1375,2064
1837,1581,2131
1831,1730,2128
1827,1151,1939
1872,1139,2003
1936,1382,2133
1999,1450,2171
2061,1555,2011
1968,1371,1889
1979,1166,2113
2032,1193,2064
2075,1405,2031
2125,1481,1984
2174,1520,2064
2087,1227,2053
2093,1273,2034
2161,1491,2073
2203,1600,2068
2142,1417,1963
2130,1323,1877
2176,1438,1984
2197,1535,2083
2221,1520,1993
2239,1711,1946
2237,1853,1957
2223,1755,1968
2206,1661,1917
2231,1759,1936
2277,1918,2007
2279,2096,2014
2224,1933,1873
2226,1902,1842
2277,1983,1935
2318,2094,2025
2310,2137,1933
2266,2063,1848
2218,1965,1827
2247,2021,1949
2259,2039,1954
2277,2081,1907
2304,2135,1927
2347,2199,2006
2331,2180,1956
2256,2097,1814
2256,2117,1872
2288,2177,1935
2277,2153,1886
2275,2135,1843
2290,2174,1871
2301,2192,1960
2287,2179,1872
2290,2163,1870
2314,2181,1904
2316,2196,1930
2311,2198,1902
2319,2147,1885
2335,2203,1871
2329,2303,1968
2257,2079,1867
2270,2013,1863
2288,2087,1923
2287,2114,1972
2259,2091,1892
2263,2059,1834
2287,2076,1930
2283,2090,1924
2262,2061,1904
2250,2011,1819
2270,2073,1856
2295,2112,1999
2288,2067,1923
2263,2015,1904
2250,2014,1921
2240,2021,1919
2241,2000,1885
2226,1958,1839
2218,1957,1861
2231,1970,1872
2274,2010,1971
2293,2041,1913
2205,1903,1855
2178,1858,1856
2198,1867,1857
2255,1899,1873
2260,1870,1906
2224,1888,1906
2205,1856,1838
2192,1803,1827
2196,1797,1874
2210,1811,1895
2210,1819,1886
2181,1776,1826
2192,1786,1936
2193,1784,1919
2208,1696,1905
2176,1774,1838
2183,1835,1869
2187,1801,1905
2151,1751,1846
2160,1748,1823
2137,1755,1836
2145,1744,1867
2154,1747,1849
2119,1711,1779
2126,1751,1822
2128,1773,1864
2115,1757,1827
2130,1771,1813
2128,1795,1840
2128,1788,1874
2160,1813,1876
2130,1779,1818
2081,1751,1695
2097,1805,1870
2133,1801,1875
2101,1776,1781
2096,1806,1872
2101,1810,1831
2125,1808,1828
2148,1843,1837
2096,1829,1808
2089,1843,1916
2096,1833,1807
2094,1813,1778
2096,1861,1806
2096,1835,1872
2047,1783,1796
2064,1793,1753
2087,1827,1791
2083,1858,1866
2077,1854,1802
2089,1865,1798
2079,1874,1824
2074,1872,1873
2075,1858,1822
2096,1872,1808
2096,1913,1840
2044,1857,1855
2041,1847,1806
2062,1885,1770
2064,1911,1806
2070,1904,1869
2021,1853,1793
2003,1835,1744
2032,1876,1807
2032,1910,1837
2028,1869,1808
2035,1878,1778
2061,1912,1804
2032,1920,1854
2074,1920,1845
2032,1886,1760
1991,1871,1747
1978,1840,1796
1994,1888,1810
2003,1901,1770
2015,1920,1839
2031,1932,1805
2013,1904,1790
1983,1869,1743
2000,1914,1793
2022,1963,1851
1997,1897,1789
2014,1916,1803
2019,1953,1813
1990,1932,1826
1973,1888,1712
1949,1845,1715
1968,1907,1765
1974,1933,1811
2007,1907,1802
1975,1920,1738
1968,1965,1765
1984,1946,1810
1966,1882,1753
1967,1895,1733
2001,1949,1797
2001,1952,1832
1966,1895,1765
1989,1927,1754
1997,1951,1793
1959,1927,1808
1962,1904,1760
1936,1890,1689
1971,1945,1759
1965,1931,1785
1954,1904,1743
1960,1902,1712
1984,1937,1782
2000,1970,1823
2014,1961,1805
2007,1945,1746
1943,1911,1725
1940,1945,1793
1971,1943,1774
1934,1877,1671
1926,1882,1727
2016,1958,1783
1956,1972,1779
1973,1927,1738
1970,1892,1747
1920,1891,1754
1921,1936,1742
1921,1909,1702
1927,1911,1738
2000,1931,1805
1924,1924,1747
1988,1921,1718
1969,1942,1745
1981,1945,1779
1934,1936,1744
1958,1924,1717
2017,1968,1789
1985,1962,1794
1984,1952,1776
2022,2000,1775
2001,1969,1786
1955,1936,1779
1931,1881,1711
1920,1867,1665
1947,1927,1749
2001,1957,1801
1984,1939,1765
2009,1919,1717
2082,1972,1801
2001,1969,1815
1984,1920,1738
1997,1931,1723
2027,1956,1792
2006,1968,1818
1979,1968,1779
1948,1879,1690
1963,1917,1733
1991,1950,1799
2000,1952,1783
1984,1931,1741
1979,1949,1776
1971,1941,1812
2017,1954,1783
2023,2000,1756
2026,2021,1795
2026,2064,1827
2022,1891,1771
1962,1795,1710
1938,1801,1705
1980,1866,1766
2045,1921,1781
2077,1925,1754
1958,1907,1747
2003,1910,1776
2000,1894,1753
1987,1900,1739
2090,1950,1799
2014,1966,1831
1968,1923,1755
1977,1921,1754
2046,1948,1797
2030,1921,1807
1968,1875,1712
2043,1878,1702
2039,1911,1792
2018,1900,1795
1951,1879,1712
1935,1969,1712
2000,1929,1761
2063,1875,1803
2063,1841,1763
2017,1862,1726
2032,1911,1775
1990,1949,1808
2027,1914,1775
2043,1926,1747
2076,1936,1808
2033,1863,1797
1968,1807,1698
1974,1824,1685
2016,1898,1774
2027,1915,1808
2026,1902,1776
2032,1878,1743
2062,1875,1768
2113,1892,1814
2015,1891,1769
2003,1861,1726
1995,1872,1760
2028,1890,1822
1984,1825,1754
2017,1809,1670
1996,1873,1737
2032,1913,1833
1984,1842,1744
1959,1831,1690
1967,1836,1728
1958,1806,1753
1959,1776,1726
1940,1759,1678
1970,1813,1737
2007,1856,1801
1968,1826,1712
1951,1808,1680
1968,1831,1737
1974,1818,1776
1898,1747,1687
1904,1749,1660
2018,1811,1741
2035,1852,1793
1947,1830,1744
1955,1763,1706
2032,1789,1744
1998,1802,1776
2059,1865,1774
1984,1834,1742
1953,1789,1766
1944,1823,1810
1982,1815,1774
2026,1815,1744
1914,1855,1800
1975,1863,1813
1951,1804,1760
1936,1741,1680
1999,1761,1734
1997,1777,1780
1989,1776,1763
1968,1790,1721
1967,1825,1758
1968,1783,1781
1996,1792,1754
1997,1808,1744
2001,1824,1792
2015,1843,1835
1963,1834,1785
2023,1845,1763
2047,1860,1827
2001,1859,1820
1990,1839,1776
2000,1801,1753
2032,1825,1826
2091,1920,1904
2032,1899,1856
1936,1807,1717
1981,1815,1767
2026,1844,1856
2038,1852,2031
2032,1886,4095
1913,1846,3824
1701,1662,1314
1696,1428,1878
1750,1394,1865
1666,1459,1863
1686,1468,1424
1754,1438,1232
1846,1499,1632
1887,1631,1877
1881,1686,1888
1895,1705,1840
1921,1646,1821
1939,1680,1821
1969,1728,1825
1975,1713,1827
1983,1751,1827
2021,1882,1824
2022,1895,1826
2000,1786,1824
1995,1666,1825
2027,1742,1827
2055,1829,1827
2014,1813,1826
2000,1782,1827
2031,1824,1829
2028,1859,1826
2015,1788,1825
2000,1783,1827
2020,1821,1824
2021,1852,1827
2006,1836,1829
2003,1818,1829
2022,1838,1822
2018,1821,1791
1998,1738,1728
1984,1735,1680
2000,1803,1740
2010,1840,1776
1990,1813,1712
1985,1779,1652
2000,1806,1699
2011,1792,1735
2000,1823,1680
1968,1785,1617
1985,1838,1680
1995,1839,1713
1970,1794,1659
1959,1814,1616
1970,1863,1661
1969,1808,1678
1952,1777,1626
1957,1793,1603
1990,1851,1654
1984,1839,1675
1975,1808,1632
1987,1854,1611
2031,1925,1667
2022,1830,1689
2000,1786,1644
2001,1776,1613
2031,1776,1667
2033,1834,1695
2026,1815,1648
2023,1808,1618
2062,1843,1693
2053,1831,1712
2011,1793,1653
2016,1807,1624
2042,1825,1681
2037,1808,1713
2025,1794,1679
2030,1839,1662
2039,1845,1700
2017,1821,1709
2012,1838,1680
2012,1807,1650
2039,1827,1694
2057,1869,1714
2041,1873,1653
2044,1859,1623
2055,1887,1686
2046,1863,1717
2021,1776,1664
2014,1808,1626
2033,1866,1682
2013,1795,1691
1995,1794,1651
2005,1807,1633
2032,1838,1683
2032,1856,1718
2017,1858,1680
2018,1855,1661
2028,1856,1709
2025,1877,1739
2014,1872,1701
2006,1845,1680
2021,1878,1727
2018,1903,1758
2005,1889,1726
2024,1910,1714
2029,1904,1756
2002,1841,1769
1993,1833,1739
2007,1886,1730
2034,2029,1795
2022,1898,1799
1998,1792,1741
1997,1819,1713
2007,1895,1755
1995,1887,1779
1989,1879,1757
2021,1906,1761
2010,1856,1776
1997,1872,1794
2000,1872,1775
2017,1883,1760
2027,1943,1810
2030,1942,1834
2010,1882,1793
2013,1872,1762
2006,1872,1785
2003,1989,1815
2001,1926,1801
2006,1834,1789
2014,1885,1833
1997,1874,1850
1969,1846,1794
1968,1860,1776
1983,1907,1840
1975,1939,1866
1965,1968,1827
1947,1843,1791
1927,1835,1815
1924,1886,1863
1926,1873,1856
1962,1858,1850
1989,1883,1904
1999,1902,1952
1994,1903,1936
1999,1907,1917
1994,1911,1951
1990,1932,1971
1987,1877,1935
1983,1827,1877
1989,1872,1905
1989,1951,1936
1975,1877,1885
1967,1834,1833
1968,1847,1862
1953,1871,1891
1943,1931,1877
1933,1933,1867
1926,1850,1914
1915,1825,1941
1911,1847,1895
1919,1842,1853
1936,1879,1867
1934,1943,1857
1936,1872,1793
1927,1811,1756
1959,1888,1806
1947,1878,1796
1909,1872,1759
1907,1904,1758
1929,1936,1795
1924,1857,1806
1911,1791,1749
1918,1824,1739
1921,1870,1791
1919,1883,1815
1911,1849,1776
1908,1870,1751
1910,1847,1815
1911,1922,1846
1871,1872,1771
1867,1840,1761
1914,2017,1841
1904,1830,1840
1872,1776,1805
1885,1801,1808
1893,1840,1831
1887,1863,1857
1887,1847,1801
1933,1932,1763
1889,1909,1798
1886,1895,1871
1872,1803,1790
1851,1778,1775
1872,1902,1856
1867,1845,1860
1843,1798,1812
1855,1879,1783
1870,1866,1838
1855,1827,1867
1854,1835,1822
1858,1840,1783
1870,1841,1821
1854,1850,1835
1839,1851,1803
1859,1853,1782
1878,1839,1797
1884,1797,1820
1887,1872,1819
1889,1981,1806
1871,1750,1795
1807,1700,1812
1773,1753,1818
1792,1861,1869
1829,1957,1877
1829,1989,1868
1808,1716,1787
1820,1695,1845
1839,1826,1878
1833,2117,1845
1853,2288,1818
1897,1648,1789
2065,1754,1808
1821,2143,1863
1918,1839,1763
2109,1590,1599
1795,2021,2126
1717,2117,1984
1717,1589,1669
1686,1513,1730
1904,1951,2034
1842,2055,1876
1703,1851,1626
1680,1802,1680
1779,1911,1759
1824,2006,1840
1920,1890,1695
1937,1980,1709
1723,1497,1723
1584,1519,1859
1701,1743,1885
1846,1821,1607
1727,2081,1655
1637,2023,1804
1622,1453,1741
1665,1348,1563
1530,1673,1737
1345,2073,1794
1295,2027,1717
1407,1924,1513
1453,2099,1554
1303,2512,1778
1193,2705,1718
1156,2395,1493
1193,2688,1558
1168,3028,1651
1121,2886,1633
1072,2968,1512
1129,3026,1506
1073,2953,1598
1079,3136,1610
1067,3003,1382
1007,2867,1500
944,3388,1647
931,3095,1597
942,2816,1450
925,2825,1485
842,3019,1586
812,2928,1590
826,2906,1520
874,3050,1557
850,3099,1663
813,2928,1614
825,2810,1523
850,2879,1600
894,3241,1742
821,2874,1648
794,2749,1525
804,2820,1564
832,2863,1675
895,3216,1702
891,3130,1644
928,2959,1584
845,2800,1643
758,2922,1715
797,2958,1649
925,3226,1683
931,3154,1753
882,3106,1802
930,3200,1745
915,3134,1655
851,3002,1637
847,3177,1705
911,3243,1675
942,2778,1666
945,3013,1759
885,2892,1701
903,2886,1600
976,2880,1682
1007,3199,1815
964,2907,1765
965,2914,1680
1098,2819,1727
1136,3110,1847
973,2761,1785
894,2678,1714
946,2768,1696
1009,2833,1797
999,2849,1803
1030,2854,1764
973,2980,1781
912,2867,1819
846,2590,1728
864,2550,1677
941,2727,1735
953,2863,1909
960,2753,1851
960,2814,1781
960,2710,1851
962,3040,1932
871,2914,1952
882,2655,1827
1018,3020,1883
1067,3231,1958
959,2963,1846
986,2758,1724
1005,2959,1830
1032,3207,2000
1093,3166,1973
966,3126,1744
1021,3531,1919
1109,3893,2039
982,3031,1871
956,2913,1735
1033,3318,1843
1070,3569,1945
1098,3849,1918
1135,4095,1888
1182,3603,1808
1055,3355,1904
1023,3454,1918
1121,3714,1813
1190,3799,1824
1169,3645,1985
1125,3799,2027
1152,4095,1859
1194,4095,1830
1152,3792,1943
1185,4095,1929
1157,3919,1792
1189,3826,1872
1187,3909,1872
1171,4095,1889
1118,3921,1921
1093,3804,1773
1136,3689,1772
1189,4095,1840
1220,3856,1846
1282,3917,1966
1279,3920,1902
1237,3658,1803
1311,3605,1838
1399,3553,1856
1302,3887,1947
1314,3823,1969
1333,4023,1893
1302,3790,1935
1353,3550,1996
1328,3505,1915
1355,3631,1853
1436,3985,1984
1398,3738,2069
1379,3563,2002
1578,3427,1854
1445,3650,1840
1392,3568,2003
1383,3302,1959
1424,3461,1968
1487,3807,2030
1449,3382,1984
1483,3207,1914
1473,3061,1887
1481,3194,1936
1510,3617,2077
1534,3299,1994
1511,3041,1914
1522,3082,2001
1554,3143,2042
1535,3089,1936
1522,2901,1855
1589,2895,1943
1585,3069,2032
1573,2903,1963
1566,2837,1916
1582,2817,1926
1557,2681,1989
1616,2686,2017
1669,3207,2021
1646,2702,1871
1712,2412,1873
1620,2455,1972
1590,2557,1905
1678,2609,1950
1650,2705,2019
1620,2772,1998
1652,2699,1902
1675,2510,1915
1707,2497,1981
1691,2597,2020
1715,2653,1948
1745,2739,1902
1680,2687,1930
1667,2736,1968
1712,2723,1919
1742,2559,1898
1744,2661,1987
1729,2755,1968
1744,2740,1938
1763,2780,2000
1724,2895,2028
1734,2661,1999
1808,2649,1918
1791,2773,1867
1747,2779,1963
1779,2867,2039
1793,2534,1923
1797,2597,1882
1805,2671,1977
1798,2757,1972
1842,2738,1927
1831,2658,1942
1822,2445,1968
1831,2402,1894
1749,2441,1845
1738,2496,1881
1765,2555,1966
1774,2532,1956
1781,2407,1837
1780,2307,1838
1776,2267,1904
1773,2187,1878
1806,2224,1823
1838,2307,1905
1844,2441,1981
1808,2210,1857
1805,1949,1727
1823,1990,1757
1807,2146,1909
1798,2151,1886
1835,2003,1851
1929,2014,1905
1933,2054,1909
1825,1936,1846
1777,1838,1778
1853,1872,1829
1862,1890,1933
1883,1872,1904
1867,1867,1818
1909,2149,1883
1863,1699,1921
1853,1645,1888
1898,1760,1815
1899,1665,1813
1906,1695,1923
1920,1815,1937
1971,1805,1930
1901,1575,1842
1854,1503,1857
1889,1662,1884
1953,1577,1799
2036,1535,1887
1998,1628,1956
1872,1698,1964
1866,1437,1809
1927,1478,1820
1941,1473,1926
1942,1427,1907
1967,1445,1904
2011,1728,1937
1955,1520,1872
1925,1223,1809
1941,1301,1775
1965,1366,1841
1987,1378,1965
1971,1322,1950
1971,1459,1840
1980,1304,1823
1977,1342,1938
1938,1267,1887
2014,1278,1823
2121,1266,1855
1982,1401,1968
1920,1344,1958
1970,1203,1763
2041,1296,1885
2032,1340,2032
2015,1214,1968
2032,1251,1849
2033,1233,1895
2066,1283,2032
2046,1331,1986
2043,1220,1858
2071,1338,1907
2047,1271,2009
2033,1200,2025
2079,1152,1893
2097,1249,1963
2053,1253,1991
2041,1278,1952
2047,1184,1840
2112,1168,1887
2055,1125,2000
2038,1142,2001
2061,1215,1910
2095,1151,1861
2046,1189,1995
2007,1180,1894
2034,1047,1810
2100,1236,1875
2065,1167,1937
2025,1057,1947
2063,1089,1840
2102,1201,1929
2105,1370,2000
2064,1134,1931
2043,943,1822
2070,1109,1887
2100,1209,2064
2102,1125,2063
2110,1104,1930
2098,1267,1808
2093,1281,1947
2064,1079,1930
2146,1079,1853
2105,1151,1906
2077,1158,1984
2073,1107,1942
2098,1121,1852
2128,1250,1899
2133,1168,2003
2128,1057,1970
2076,1143,1858
2093,1129,1837
2112,1203,1945
2087,1217,1878
2082,1107,1839
2124,1047,1878
2086,1243,1968
2047,1141,1971
2068,963,1822
2086,1106,1898
2079,1222,2005
2030,1191,1962
2032,1051,1771
2071,1173,1872
2017,1172,1903
2003,1045,1824
2022,1043,2032
2046,1159,2211
2016,1183,2146
2016,1077,1857
2026,1055,1630
2028,973,1679
1931,1129,1813
1930,1129,1791
1957,1003,1616
1969,1081,1715
1993,1327,1909
1938,1021,1856
1961,929,1703
1959,1021,1680
1986,1113,1840
1957,1123,1808
1989,1156,1841
2028,1315,1759
1990,1280,1737
1945,972,1743
1975,983,1733
2071,1109,1763
2001,1253,1788
1905,1130,1777
1949,1169,1806
2031,1265,1842
1999,1191,1842
1994,1201,1817
2019,1203,1776
2030,1227,1764
2032,1307,1851
2032,1318,1851
2064,1274,1792
2073,1246,1827
2043,1245,1933
2063,1391,1907
2068,1296,1806
2065,1278,1812
2055,1342,1946
2096,1337,1824
2064,1399,1823
1998,1319,1809
2055,1315,1934
2043,1326,1885
2067,1325,1803
2055,1420,1911
2032,1419,1996
2020,1327,1919
2033,1378,1775
2044,1472,1793
2013,1436,1885
2022,1364,1870
2055,1323,1776
2064,1421,1789
2029,1457,2004
2021,1414,1962
2064,1455,1766
2069,1451,1855
2007,1441,1895
1996,1469,1831
2007,1426,1758
2021,1574,1795
2000,1555,1861
2014,1459,1902
2034,1369,1730
2061,1414,1798
2000,1505,1966
1975,1584,1872
2032,1716,1842
2032,1533,1754
2002,1408,1840
2058,1595,1895
2069,1586,1790
2037,1491,1904
2021,1601,1985
2038,1621,1882
2032,1651,1761
2030,1556,1766
2017,1605,1904
2031,1712,1933
2042,1510,1826
2058,1623,1858
2028,1657,1949
2029,1648,1878
2064,1671,1792
2087,1745,1903
2020,1691,1965
1989,1552,1863
2007,1566,1837
2093,1734,1888
2091,1835,1917
2032,1695,1822
2045,1775,1781
1991,1669,1863
1966,1605,1938
1987,1595,1839
2037,1654,1796
2066,1794,1778
2005,1843,1988
1998,1709,1884
2022,1613,1836
2038,1680,1863
2003,1776,1933
2006,1741,1904
2065,1744,1825
2047,1841,1856
1989,1834,1939
1983,1757,1921
2043,1735,1851
2034,1758,1903
2005,1783,1917
1986,1693,1894
2011,1702,1815
2046,1786,1845
2006,1894,1929
2001,1845,1906
2018,1894,1840
2006,1811,1840
1965,1728,1901
1966,1712,1865
2012,1761,1813
2011,1813,1782
1962,1779,1868
1983,1932,1872
2065,1861,1808
2023,1712,1797
1921,1776,1902
1894,1779,1917
2025,1706,1866
2015,1779,1779
1959,1871,1834
1916,1765,1824
1955,1794,1758
1971,1851,1808
1953,1846,1925
1955,1869,1853
1978,1742,1763
2032,1762,1792
1978,1824,1905
1943,1813,1853
1981,1735,1715
1994,1712,1723
1904,1776,1920
2004,1903,1835
1927,1792,1726
1937,1803,1779
1914,1813,1872
1913,1791,1848
1968,1757,1716
1963,1787,1777
1921,1839,1903
1904,1732,1894
1935,1771,1771
1936,1838,1755
1872,1840,1830
1936,1793,1776
1957,1840,1795
1973,1707,1856
1831,1679,1776
1791,1689,1719
1845,1709,1670
1862,1776,1690
1821,1808,1802
1815,1729,1767
1840,1719,1788
1819,1743,1639
1766,1691,1680
1803,1719,1703
1791,1648,1607
1774,1662,1680
1683,1728,1783
1765,1757,1745
1775,1631,1712
1739,1585,1629
1677,1658,1627
1678,1678,1642
1743,1695,1647
1761,1766,1710
1686,1821,1757
1726,1518,1634
1747,1504,1515
1674,1580,1581
1584,1649,1680
1644,1692,1661
1687,1693,1605
1703,1651,1633
1663,1743,1712
1694,1685,1661
1713,1567,1535
1744,1579,1579
1790,1655,1692
1680,1685,1728
1771,1760,1680
1753,1744,1711
1774,1810,1723
1821,1742,1755
1812,1611,1743
1781,1846,1682
1758,1728,1728
1797,1794,1751
1833,1738,1711
1835,1725,1726
1790,1779,1803
1807,1888,1809
1843,1756,1739
1824,1782,1748
1823,1882,1899
1851,1847,1810
1897,1805,1670
1903,1806,1727
1844,1973,1921
1826,1867,1875
1878,1790,1745
1938,1909,1935
1872,1934,1951
1841,1911,1885
1909,1834,1827
1951,1933,1910
1933,2117,2032
1963,2079,1914
1990,1886,1775
2001,1856,1843
2001,1984,2005
1983,2022,1979
2095,2064,1903
2021,2007,1877
1998,1945,2013
1989,1930,1926
1983,1952,1891
1978,1963,1986
1979,1983,1932
1983,2081,1893
1983,1985,1867
1994,1971,1970
1968,2019,1999
1953,1903,1907
1968,1867,1855
2030,1916,1931
1904,2131,2029
1943,2247,1951
2033,1861,1842
1883,1743,1860
1886,1914,1989
1870,2028,2011
1984,1994,1830
1984,1979,1871
1946,2003,2007
1995,1984,1920
1975,1972,1916
1969,1990,2385
1863,1834,2365
1904,1857,1957
1964,1897,1867
1989,2010,1838
1933,2094,1930
1974,2010,1933
1979,2003,1847
1941,1868,1894
1894,1943,1955
1888,2064,1964
1998,2130,1901
2063,2026,1826
1919,1695,1907
1878,1836,1955
1967,1974,1901
1971,2122,1909
1919,2031,1939
1919,1904,1889
2010,1889,1855
1990,1903,1899
1963,1947,1997
1914,2086,1921
1965,1966,1874
1927,1973,1881
1924,1870,1919
1957,1910,1967
1953,1976,1852
1909,1977,1874
2022,2185,2031
1902,1957,2027
1967,1898,1836
2005,1915,1775
1882,1943,1925
1962,1951,1947
2004,1936,1856
1824,2183,1999
1921,1943,2117
1897,1814,1845
1886,1874,1750
1925,1994,1847
1878,1866,1968
1905,1897,1941
1966,1933,1922
1946,2086,2011
1859,2069,2002
1881,2102,2027
1934,1981,1782
1906,1732,1765
1893,1871,1955
1898,1933,2013
1927,1925,1861
1912,2013,1883
1879,2021,1966
1884,1850,1917
1919,1873,1920
1915,1994,1948
1851,2013,2071
1864,2036,1930
1902,1904,1822
1887,1891,1884
1839,2094,2032
1871,1965,1946
1950,1775,1946
1889,1911,2071
1829,2001,1920
1877,2032,1842
1975,1861,1776
1920,1991,1875
1847,1941,1955
1884,1811,1875
1955,1787,1795
1968,1939,1877
1911,2064,2033
1890,1935,1876
1951,1805,1748
1973,1873,1856
1905,1891,1870
1901,1871,1843
1973,2006,1791
1989,1902,1834
1936,1850,1925
1920,1866,1882
1936,1904,1837
1958,1899,1878
1903,1871,1899
1933,1989,1971
1964,1981,1840
1954,1783,1765
1888,1836,1825
1956,1854,1875
1963,1867,1818
1888,1935,1775
1872,1865,1901
1914,1894,1894
2013,1919,1873
1968,2044,1840
1854,1840,1890
1869,1759,1898
1957,1872,1819
1971,1950,1777
1901,1872,1872
1888,1806,1840
1930,1821,1776
1948,1981,1843
1905,1930,1917
1986,2030,1920
1913,1872,1722
1823,1617,1753
1839,1783,1917
1904,1938,1911
1933,1774,1770
1919,1853,1814
1909,1959,1965
1926,1981,1838
1909,1749,1702
1873,1730,1795
1872,1890,1910
1919,1985,1922
1947,1938,1805
1919,1776,1766
1911,1791,1872
1885,1872,1913
1933,1867,1803
1899,1835,1843
1875,1891,2018
1889,2015,2007
1898,1893,1794
1916,1854,1765
1898,1808,1865
1881,1754,1850
1899,1813,1824
1915,1901,1908
1917,1977,2003
1874,1904,1914
1891,1737,1722
1920,1898,1843
1914,2052,1968
1875,1797,1807
1872,1664,1708
1899,1761,1810
1936,1937,1920
1895,2069,1897
1862,1791,1793
1859,1753,1861
1861,1839,1886
1904,1869,1815
1907,1865,1727
1898,1889,1791
1869,1942,1923
1873,1872,1855
1886,1743,1813
1882,1798,1870
1862,1790,1870
1866,1776,1769
1901,1778,1771
1922,1914,1934
1891,2032,1917
1855,1818,1799
1898,1727,1757
1917,1781,1823
1856,1951,1907
1870,1968,1837
1902,1667,1764
1926,1740,1856
1887,1963,2062
1861,1861,1863
1914,1751,1741
1918,1830,1776
1873,1943,1901
1872,1839,1861
1876,1765,1826
1917,1877,1840
1872,1882,1863
1863,1777,1855
1872,1735,1781
1895,1859,1818
1874,1942,1955
1885,1913,1798
1878,1834,1754
1858,1744,1850
1821,1811,1898
1857,1956,1825
1910,1840,1775
1888,1772,1815
1855,1819,1995
1858,1865,1936
1882,1865,1728
1890,1775,1779
1839,1855,1899
1840,1839,1857
1895,1857,1776
1915,1870,1857
1825,1763,1942
1830,1872,1806
1903,1830,1731
1962,1878,1845
1841,1982,1921
1774,1715,1807
1870,1756,1834
1904,1808,1855
1840,1824,1865
1799,1839,1776
1860,1759,1750
1892,1840,1903
1846,1921,1914
1850,1867,1791
1901,1811,1747
1886,1792,1806
1810,1878,1894
1831,1862,1857
1891,1808,1792
1909,1818,1835
1837,1829,1992
1811,1863,1861
1882,1840,1714
1888,1800,1786
1830,1904,1880
1824,1975,1859
1870,1745,1811
1866,1808,1847
1831,1867,1903
1842,1863,1813
1899,1744,1797
1893,1776,1829
1822,1854,1871
1835,1842,1825
1903,1831,1756
1904,1860,1841
1798,1841,1904
1791,1851,1850
1873,1798,1790
1888,1878,1806
1861,1922,1883
1869,1936,1879
1904,1856,1838
1872,1770,1796
1779,1835,1805
1815,1771,1844
1903,1843,1814
1904,1883,1808
1838,1877,1853
1844,2013,1862
1917,1993,1811
1883,1709,1806
1835,1776,1885
1835,1749,1843
1883,1828,1759
1889,1936,1838
1856,1963,1959
1914,1889,1887
1881,1693,1734
1840,1769,1750
1807,1784,1878
1814,1849,1840
1889,1842,1780
1897,1921,1847
1850,2061,1970
1840,1834,1840
1859,1641,1719
1857,1755,1778
1821,1841,1876
1854,1817,1879
1897,1827,1855
1871,1883,1822
1802,1931,1867
1807,1840,1833
1895,1902,1830
1889,1875,1843
1822,1808,1859
1798,1754,1809
1858,1812,1798
1893,1882,1887
1861,1970,1891
1818,1979,1855
1860,1776,1822
1865,1739,1843
1829,1869,1873
1840,1873,1834
1866,1874,1793
1855,1756,1824
1828,1827,1921
1815,1835,1903
1857,1777,1746
1854,1808,1777
1830,1853,1875
1844,1856,1882
1872,1841,1818
1868,1971,1854
1808,1879,1867
1827,1877,1825
1870,1783,1782
1853,1803,1808
1779,1850,1888
1851,1885,1877
1920,1909,1828
1876,1869,1886
1810,1738,1971
1808,1804,1822
1862,1875,1815
1872,1848,1855
1838,1907,1945
1871,1886,1858
1887,1968,1801
1837,1710,1851
1814,1690,1901
1826,1776,1850
1857,1862,1780
1873,1917,1920
1882,1845,1966
1830,1861,1874
1872,1843,1790
1867,1822,1850
1846,1807,1955
1833,1782,1869
1882,1850,1799
1914,1775,1869
1853,1873,1968
1840,1845,1914
