1809,1830,1823
1846,1808,1761
1827,1914,1878
1836,1907,1925
1819,1835,1779
1850,1797,1794
1898,2011,1925
1874,1899,1950
1829,1783,1781
1850,1763,1739
1889,1879,1873
1857,1894,1902
1855,1835,1828
1920,1854,1837
1904,1813,1879
1838,1852,1846
1835,1781,1759
1850,1801,1795
1859,1936,1952
1819,1839,1878
1827,1856,1817
1840,1831,1765
1875,1812,1858
1887,2016,1918
1843,1776,1814
1835,1690,1761
1846,1907,1919
1833,1891,1931
1840,1841,1822
1887,1798,1744
1919,1936,1887
1818,1836,1907
1819,1787,1729
1857,1776,1744
1875,1954,1930
1849,1926,1941
1810,1841,1739
1811,1837,1744
1860,1866,1888
1866,1911,1975
1838,1787,1789
1858,1789,1792
1871,1884,1879
1850,1919,1846
1843,1903,1805
1858,1856,1808
1879,1840,1872
1853,1860,1902
1813,1790,1809
1856,1820,1811
1873,1885,1901
1886,1931,1926
1957,1906,1834
1806,1787,1744
1819,1879,1829
1833,1936,1849
1805,1772,1776
1821,1751,1759
1867,1919,1879
1843,1904,1930
1840,1803,1845
1877,1853,1756
1885,1944,1871
1936,1878,1929
1851,1795,1858
1840,1935,1750
1797,1872,1841
1769,1790,1856
1807,1773,1762
1904,1797,1794
1871,1913,1949
1833,1941,1925
1831,1932,1734
1829,1793,1751
1863,1874,1967
1855,1876,1921
1865,1863,1808
1878,1974,1773
1862,1858,1875
1817,1807,1893
1805,1775,1738
1856,1870,1772
1861,1872,1859
1851,1879,1866
1869,1855,1776
1885,1813,1788
1921,1912,2019
1942,2032,1939
1776,1904,1767
1763,1681,1744
1841,1790,1831
1860,1857,1849
1851,1842,1773
1911,1931,1824
1936,2128,1961
1839,1868,1944
1779,1697,1713
1819,1776,1712
1872,1894,1870
1869,1906,1904
1840,1855,1793
1856,1842,1786
1872,1919,1902
1865,1923,1909
1845,1860,1799
1855,1865,1775
1882,1906,1949
1862,1911,1918
1840,1910,1751
1861,1831,1741
1881,1868,1887
1859,1890,1913
1846,1840,1802
1881,1872,1805
1899,1903,1923
1867,1840,1909
1840,1831,1789
1878,1858,1792
1904,1902,1905
1887,1888,1914
1871,1808,1783
1859,1872,1800
1887,1938,1939
1875,1895,1936
1846,1877,1801
1873,1869,1811
1906,1905,1936
1883,1904,1931
1853,1811,1813
1872,1820,1808
1910,1888,1927
1893,1871,1926
1872,1749,1815
1893,1822,1819
1910,1942,1932
1884,1914,1933
1879,1825,1829
1909,1820,1812
1936,1862,1917
1920,1823,1939
1882,1805,1818
1906,1776,1808
1941,1809,1921
1946,1924,1942
1936,1807,1847
1923,1744,1806
1925,1803,1968
1920,1788,1887
1922,1717,1794
1946,1728,1844
1970,1795,1905
1959,1763,1933
1942,1687,1802
1969,1742,1810
1999,1786,1920
2003,1751,1928
2000,1675,1887
2002,1636,1906
1990,1760,1935
1958,1745,1846
1960,1670,1775
1999,1666,1781
2033,1713,1927
2001,1713,1926
1983,1631,1804
2014,1650,1793
2039,1711,1943
2023,1705,1957
2003,1634,1776
2034,1635,1766
2065,1707,1932
2047,1695,1945
2026,1627,1831
2053,1633,1815
2077,1687,1923
2064,1676,1872
2062,1627,1859
2077,1634,1834
2105,1671,1929
2111,1667,1934
2097,1623,1791
2075,1634,1834
2077,1693,1938
2076,1685,1926
2075,1626,1821
2106,1644,1839
2129,1712,1936
2112,1712,1936
2097,1664,1837
2113,1671,1818
2140,1738,1943
2119,1745,1942
2096,1718,1778
2121,1727,1840
2142,1806,1943
2127,1802,1901
2097,1754,1835
2125,1778,1811
2150,1846,1922
2135,1891,1970
2118,1846,1833
2145,1865,1854
2167,1919,1933
2141,1951,1935
2121,1901,1846
2134,1907,1807
2150,1923,1968
2128,1903,1951
2114,1855,1827
2142,1882,1834
2168,2031,1930
2154,2170,1961
2112,2017,1777
2108,1770,1791
2135,1803,1879
2124,1855,1903
2106,1884,1824
2135,1907,1838
2145,1985,1927
2112,1975,1906
2091,1923,1798
2126,1963,1821
2146,2031,1936
2121,2005,1928
2105,1935,1814
2127,1963,1837
2138,2022,1929
2128,2017,1905
2096,1945,1793
2116,1957,1792
2137,2017,1916
2113,2015,1921
2114,1936,1806
2144,1950,1831
2177,2020,1921
2157,2015,1904
2093,1946,1807
2113,1965,1805
2163,2011,1840
2146,1996,1899
2128,1936,1840
2162,1968,1826
2192,2031,1941
2175,1978,1904
2147,1908,1774
2167,1946,1798
2192,2014,1927
2165,1995,1906
2137,1911,1793
2164,1925,1802
2176,1982,1887
2162,1981,1914
2143,1925,1790
2175,1938,1812
2192,1995,1891
2171,1979,1950
2139,1900,1783
2171,1923,1727
2192,2020,1904
2169,1974,1919
2140,1903,1803
2161,1915,1855
2187,1957,1891
2163,1935,1862
2134,1893,1759
2162,1884,1803
2191,1964,1904
2171,1942,1885
2141,1885,1746
2177,1876,1771
2207,1917,1924
2176,1903,1853
2132,1839,1729
2195,1874,1782
2257,1946,1916
2235,1927,1919
2192,1861,1801
2224,1870,1791
2278,1933,1916
2265,1927,1878
2243,1867,1758
2271,1876,1778
2318,1939,1963
2318,1927,1920
2281,1853,1791
2295,1867,1796
2336,1935,1939
2313,1913,1905
2267,1839,1735
2303,1837,1780
2359,1902,1863
2341,1885,1899
2288,1807,1756
2307,1840,1735
2383,1927,1925
2357,1906,1898
2288,1810,1731
2304,1822,1766
2365,1902,1867
2324,1879,1901
2242,1791,1729
2275,1799,1807
2351,1883,1872
2315,1859,1875
2212,1779,1727
2231,1818,1748
2303,1898,1881
2288,1851,1926
2203,1733,1713
2224,1763,1717
2304,1874,1881
2288,1868,1882
2198,1768,1721
2229,1796,1743
2331,1913,1919
2318,1914,1925
2224,1808,1759
2250,1829,1786
2352,1939,1963
2338,1936,1966
2227,1823,1789
2238,1847,1778
2336,1965,1959
2339,1952,1981
2249,1839,1801
2247,1847,1806
2322,1968,1969
2295,1931,1967
2209,1819,1798
2233,1845,1807
2304,1945,1949
2284,1935,1949
2199,1840,1809
2225,1861,1838
2301,1978,1985
2261,1940,1966
2187,1841,1810
2209,1858,1824
2270,1957,1963
2257,1955,1949
2143,1862,1794
2181,1859,1802
2189,1923,1954
2185,1909,1957
2101,1839,1809
2130,1855,1813
2195,1936,1937
2221,1930,1927
2162,1841,1807
2121,1869,1810
2174,1949,1950
2160,1943,1949
2109,1862,1808
2096,1860,1800
2158,1947,1931
2097,1958,1934
2063,1856,1808
2062,1872,1806
2128,1963,1931
2097,1931,1907
2030,1869,1789
2073,1953,1807
2101,1937,1923
2075,1879,1915
2031,1808,1808
2055,1852,1810
2112,1938,1920
2038,1939,1921
1995,1891,1808
1999,1901,1817
2071,1935,1935
2033,1935,1925
2007,1891,1808
1997,1904,1840
2085,1969,1943
2062,1968,1921
1984,1903,1819
2002,1920,1836
2053,1963,1933
2018,1936,1915
1983,1905,1821
2003,2003,1835
2030,1963,1934
1984,1896,1917
1954,1846,1799
1965,1878,1808
2000,2000,1926
1978,1968,1943
1967,1845,1820
1961,1847,1813
2011,1933,1922
2026,1936,1909
1904,1879,1814
1966,1897,1820
1939,1949,1915
1982,1934,1907
1875,1861,1803
1943,1893,1813
1967,1949,1924
1902,1919,1909
1889,1841,1803
1904,1856,1803
1894,1918,1900
1957,1914,1889
1867,1839,1801
1886,1841,1813
1909,1919,1906
1887,1904,1890
1856,1817,1785
1867,1817,1791
1841,1885,1894
1850,1881,1902
1882,1866,1807
1863,1856,1794
1904,1834,1897
1843,1831,1891
1822,1792,1776
1840,1824,1779
1870,1891,1909
1851,1862,1911
1841,1799,1813
1871,1826,1815
1885,1890,1909
1850,1866,1905
1824,1814,1798
1803,1814,1808
1835,1846,1901
1808,1827,1894
1937,1787,1802
1809,1777,1792
1846,1846,1887
1840,1825,1913
1824,1755,1808
1803,1777,1801
1840,1861,1901
1834,1835,1893
1791,1758,1791
1805,1804,1795
1845,1843,1904
1817,1806,1904
1768,1744,1769
1789,1755,1787
1824,1829,1902
1802,1828,1883
1771,1774,1779
1797,1770,1783
1815,1834,1891
1761,1824,1890
1749,1761,1776
1847,1771,1782
1776,1855,1898
1796,1841,1897
1840,1766,1778
1771,1778,1781
1841,1855,1880
1789,1844,1910
1750,1780,1808
1803,1812,1806
1883,1856,1903
1808,1828,1903
1769,1762,1791
1776,1807,1798
1865,1914,1902
1799,1897,1895
1749,1745,1776
1808,1735,1776
1792,1835,1893
1791,1854,1895
1742,1790,1782
1770,1813,1783
1786,1881,1900
1799,1871,1887
1728,1797,1776
1760,1818,1794
1808,1899,1908
1746,1888,1895
1755,1817,1776
1760,1829,1793
1808,1904,1904
1771,1890,1891
1727,1830,1785
1774,1856,1808
1849,1918,1909
1747,1887,1904
1741,1821,1776
1759,1849,1794
1776,1927,1901
1754,1878,1895
1700,1810,1784
1708,1845,1789
1856,1906,1890
1777,1901,1883
1671,1830,1769
1728,1858,1776
1776,1933,1888
1759,1903,1888
1703,1821,1776
1737,1822,1774
1711,1904,1898
1755,1904,1890
1693,1841,1764
1727,1889,1798
1774,1930,1891
1753,1871,1872
1703,1814,1773
1724,1856,1776
1758,1931,1872
1733,1921,1866
1691,1858,1759
1719,1874,1766
1776,1936,1883
1749,1947,1869
1695,1893,1746
1719,1883,1758
1769,1942,1877
1746,1941,1869
1681,1898,1744
1702,1879,1743
1758,1958,1872
1749,1973,1881
1694,1902,1760
1712,1883,1754
1776,1965,1877
1755,1963,1872
1691,1889,1744
1714,1906,1755
1777,1995,1888
1749,1987,1882
1682,1889,1746
1708,1898,1755
1766,1971,1877
1749,1968,1878
1674,1876,1737
1694,1919,1741
1770,2013,1890
1763,1966,1895
1692,1896,1755
1708,1871,1744
1776,1947,1885
1760,1959,1879
1686,1886,1750
1699,1886,1751
1763,1970,1873
1747,1968,1874
1680,1884,1741
1701,1893,1753
1767,1968,1878
1745,1962,1869
1674,1898,1747
1699,1887,1755
1757,1933,1873
1760,1931,1886
1697,1858,1759
1699,1894,1765
1763,1957,1883
1745,1972,1872
1670,1849,1748
1686,1824,1753
1744,1936,1872
1742,1920,1857
1663,1845,1735
1680,1870,1745
1742,1947,1863
1730,1936,1858
1667,1841,1730
1682,1861,1742
1745,1959,1870
1729,1936,1873
1677,1805,1735
1680,1808,1728
1741,1905,1851
1728,1923,1859
1669,1867,1735
1689,1862,1733
1744,1884,1855
1733,1873,1857
1698,1923,1757
1715,1911,1751
1739,1897,1846
1711,1859,1844
1681,1792,1734
1717,1964,1754
1762,2096,1886
1705,1753,1825
1668,1648,1701
1709,1771,1729
1749,1824,1851
1729,1831,1850
1685,1799,1738
1711,1827,1738
1745,1901,1856
1717,1874,1843
1683,1805,1726
1712,1859,1735
1744,1909,1857
1712,1846,1833
1675,1825,1712
1728,1918,1758
1758,1831,1872
1730,1728,1855
1696,1709,1731
1717,1763,1730
1744,1846,1851
1726,1845,1847
1703,1798,1759
1730,1813,1754
1769,1881,1859
1730,1836,1843
1698,1767,1731
1744,1807,1753
1783,1856,1867
1759,1859,1855
1727,1794,1745
1744,1807,1754
1776,1868,1862
1755,1863,1854
1728,1802,1744
1757,1808,1755
1794,1875,1865
1764,1861,1863
1744,1802,1755
1768,1813,1773
1785,1840,1857
1760,1814,1846
1733,1776,1744
1757,1787,1757
1781,1854,1858
1773,1826,1853
1744,1767,1743
1767,1754,1758
1782,1841,1859
1760,1863,1841
1737,1797,1730
1757,1799,1742
1767,1825,1846
1741,1797,1825
1719,1762,1737
1762,1786,1767
1776,1793,1849
1743,1780,1822
1731,1745,1743
1776,1776,1783
1791,1830,1873
1773,1824,1872
1759,1770,1774
1771,1785,1776
1791,1840,1872
1777,1840,1875
1764,1777,1781
1779,1777,1776
1794,1841,1870
1795,1852,1877
1789,1803,1785
1795,1783,1804
1809,1841,1891
1797,1867,1888
1776,1762,1785
1793,1856,1793
1806,1822,1882
1802,1881,1902
1793,1817,1811
1805,1799,1807
1815,1867,1886
1795,1821,1885
1793,1845,1793
1795,1791,1804
1804,1890,1889
1791,1801,1901
1792,1829,1817
1808,1805,1822
1814,1988,1904
1792,1867,1886
1770,1648,1776
1791,1786,1790
1808,1758,1905
1798,1809,1907
1792,1785,1817
1810,1815,1825
1829,1993,1936
1808,2032,1933
1762,1642,1772
1778,1642,1776
1808,1729,1898
1804,1819,1908
1803,1774,1808
1811,1807,1811
1817,1851,1906
1810,1872,1907
1802,1809,1810
1817,1811,1801
1810,1821,1887
1798,1823,1905
1803,1804,1831
1829,1835,1835
1828,1881,1907
1808,1882,1894
1807,1847,1821
1799,1739,1791
1814,1810,1887
1814,1821,1904
1808,1778,1815
1819,1814,1812
1815,1871,1906
1803,1840,1885
1806,1846,1815
1814,1752,1824
1814,1822,1901
1791,1838,1881
1789,1781,1781
1808,1829,1793
1814,1947,1904
1808,1930,1893
1806,1762,1799
1821,1857,1801
1822,1824,1879
1793,1851,1879
1802,1771,1789
1801,1594,1757
1810,1680,1856
1813,1771,1872
1826,1803,1813
1837,1758,1798
1845,1775,1862
1859,1786,1877
1903,1863,1806
1887,1830,1777
1861,1829,1851
1840,1692,1839
1840,1627,1751
1900,1774,1781
1904,1776,1842
1856,1698,1818
1848,1643,1763
1879,1854,1770
1895,1907,1851
1871,1637,1808
1861,1619,1722
1898,1867,1773
1902,1778,1842
1877,1714,1807
1882,1653,1727
1898,1712,1755
1911,1839,1855
1897,1847,1843
1897,1753,1756
1920,1846,1774
1904,1728,1827
1878,1641,1810
1875,1673,1742
1907,1734,1755
1915,1766,1825
1895,1808,1840
1904,1823,1759
1935,1888,1778
1930,1850,1855
1885,1702,1819
1874,1680,1717
1911,1744,1744
1903,1687,1805
1884,1697,1822
1899,1699,1754
1932,1773,1776
1936,1851,1871
1920,1809,1865
1903,1830,1760
1910,1759,1759
1923,1843,1855
1909,1582,1822
1917,1570,1740
1953,1719,1776
1927,1863,1850
1921,1745,1838
1951,1676,1797
2083,1776,1749
1947,1931,1894
1834,1933,1943
1938,1902,1749
1874,1706,1701
1849,1616,1858
1882,1756,1968
1904,1683,1778
1920,1669,1839
1919,1741,1935
1907,1715,1898
1891,1745,1654
1920,1862,1693
1904,1840,1823
1904,1968,1905
1872,1706,1757
1875,1577,1719
1889,1718,1845
1909,1776,1897
1940,1741,1810
1943,1747,1831
1878,1820,1847
1821,1665,1798
1823,1719,1757
1824,1776,1797
1813,1913,1883
1790,1875,1851
1742,1758,1748
1690,1649,1734
1687,1730,1879
1726,1717,1872
1680,1744,1776
1639,1725,1778
1650,1803,1893
1633,1751,1929
1617,1771,1758
1643,1845,1718
1619,1822,1807
1582,1653,1808
1595,1703,1738
1609,1699,1749
1596,1861,1840
1567,1859,1842
1563,1734,1759
1583,1778,1731
1603,1897,1830
1573,1893,1808
1535,1698,1681
1533,1625,1703
1568,1715,1843
1553,1778,1926
1535,1840,1740
1584,1778,1731
1535,1771,1781
1520,1779,1775
1535,1821,1718
1582,1817,1756
1578,1823,1845
1556,1840,1826
1532,1697,1731
1535,1686,1725
1563,1843,1842
1535,1787,1783
1535,1675,1714
1600,1821,1776
1597,1950,1842
1535,1713,1822
1535,1616,1719
1578,1712,1723
1605,1801,1840
1613,1847,1852
1591,1791,1735
1621,1735,1733
1589,1838,1829
1535,1843,1851
1535,1715,1741
1597,1803,1771
1776,1872,1824
1746,1842,1801
1741,1763,1751
1567,1694,1734
1473,1684,1809
1483,1724,1925
1523,1787,1818
1622,1920,1887
1619,1791,2019
1581,1705,1814
1577,1673,1648
1625,1727,1772
1707,2063,2111
1713,2072,1751
1712,1520,1555
1790,1443,2019
1477,1726,1874
1535,2041,1680
1691,1959,1584
1650,1793,1677
1591,1680,1858
1620,1754,1863
1759,1915,1775
1729,1894,1751
1606,1921,1827
1503,1723,1799
1513,1837,1729
1595,1862,1782
1573,1928,1877
1520,2107,1961
1575,1941,1735
1486,1771,1771
1433,1888,1910
1471,2106,1789
1600,2064,1648
1424,1883,1679
1280,1873,1931
1351,1830,1813
1488,1991,1711
1438,2221,1765
1370,2075,1826
1315,1889,1776
1355,2076,1825
1453,2174,1871
1617,2203,1856
1361,1937,1800
1365,1938,1732
1300,2081,1715
1287,2269,1820
1232,2010,1840
1267,2116,1883
1250,2093,1711
1198,2013,1807
1202,2030,1929
1219,1959,1797
1296,2102,1780
1424,2096,1744
1175,2145,1832
1123,2116,1808
1211,2195,1783
1223,2007,1840
1163,1958,1850
1242,2000,1755
1317,2043,1822
1232,2237,1856
1193,2165,1882
1216,2160,1831
1250,2151,1782
1200,1923,1846
1200,1959,1907
1338,2113,1781
1314,2096,1791
1299,2238,1881
1247,2062,1866
1260,1937,1769
1242,2076,1770
1237,2125,1871
1231,2167,1891
1273,2176,1836
1312,2017,1793
1299,2104,1879
1339,2005,1895
1333,2199,1888
1358,2107,1793
1327,2043,1797
1296,2192,1791
1342,2129,1798
1415,1903,1856
1344,1997,1937
1296,2160,1918
1326,2138,1776
1387,2019,1787
1414,2061,1968
1360,2030,2022
1361,2033,1776
1408,2130,1744
1427,2115,1889
1435,2014,1932
1381,2015,1791
1334,2111,1777
1363,2245,2010
1451,2096,1991
1296,1856,1701
1290,1945,1761
1329,2112,1938
1360,2165,1946
1342,1972,1790
1403,1949,1863
1376,2043,1941
1316,2147,1887
1363,2003,1759
1401,1967,1824
1362,2030,1948
1366,1998,1941
1369,2057,1873
1358,1930,1894
1380,2063,1887
1398,2156,1883
1410,2005,1844
1435,2032,1950
1457,2027,1895
1425,1963,1847
1365,1862,1841
1469,1910,1882
1457,2113,2022
1381,2065,1882
1385,1929,1738
1520,1983,1827
1566,2093,1966
1442,1967,1891
1403,1895,1809
1475,2093,1907
1535,2064,1957
1530,2087,1893
1509,1940,1795
1570,1899,1873
1589,1965,1946
1463,2009,1938
1463,2014,1836
1503,1833,1790
1555,1855,1901
1625,1928,1961
1603,2000,1955
1585,1983,1895
1619,2080,2011
1612,1985,1904
1515,1971,1782
1507,1891,1835
1616,2163,1968
1613,1888,1925
1584,1793,1827
1680,1947,1923
1663,1991,2007
1599,1969,1869
1666,2065,1801
1712,1861,1746
1719,1715,1872
1629,2001,1917
1600,1895,1787
1633,1968,1854
1719,1994,1975
1668,1862,1939
1643,1851,1747
1643,1952,1808
1675,1865,1919
1735,1949,2029
1783,2047,1885
1721,1968,1821
1648,1821,1843
1706,1835,1872
1659,1930,1808
1697,1894,1858
1791,1953,1969
1723,1758,1895
1698,1720,1760
1728,1904,1874
1819,1911,2031
1799,1887,1953
1748,1892,1716
1791,2096,1833
1820,2017,1897
1826,1747,1808
1731,1683,1779
1758,1917,1850
1763,1902,1934
1781,1935,1984
1840,1786,1836
1834,1954,1856
1774,2099,1951
1797,1813,1886
1813,1853,1798
1829,1856,1881
1853,1807,1872
1860,1921,1878
1766,1856,1765
1778,1773,1840
1823,1868,1975
1865,1921,1949
1893,1745,1842
1852,1981,1871
1851,1959,1974
1867,1712,1918
1811,1712,1733
1885,1841,1841
2023,2053,1971
1907,1917,1973
1810,1777,1781
1791,1793,1798
1847,1991,1959
1911,1969,1955
1872,1769,1818
1903,1759,1860
1907,1808,1902
1902,1877,1851
1888,1837,1757
1997,2032,1873
2074,2045,1947
1847,1680,1924
1819,1641,1822
1906,1808,1762
1935,1875,1893
1997,1915,1907
1998,1843,1851
1957,2096,1927
1913,1886,1940
1957,1662,1808
1967,1715,1814
1904,1840,1886
1853,1886,1951
1886,1867,1949
1945,1845,1841
2009,1997,1883
1953,1871,1932
1930,1762,1891
1936,1842,1842
1987,1823,1891
1973,1777,1962
1981,1897,1898
2038,1776,1765
2014,1898,1785
2027,1917,1984
1891,1839,2009
1873,1793,1730
1918,1759,1851
1951,1791,1962
1968,1910,1904
1977,1835,1711
1993,1802,1853
2001,1820,1887
1983,1967,1982
1981,1866,1894
2027,1744,1799
2032,1963,1907
1920,1699,1865
1929,1716,1769
2014,1855,1835
2027,1829,1971
1984,1862,1940
1986,1938,1814
2112,1914,1789
1978,1780,1853
1925,1715,1868
2011,1749,1807
2009,1804,1840
1977,1929,2000
2060,1941,1907
2083,1883,1855
1979,1735,1856
1978,1837,1850
1983,1879,1853
2001,1827,1765
1982,1779,1836
1999,1757,1962
2031,1927,1977
2077,2106,1989
2042,1702,1756
1974,1707,1755
1998,1801,1877
2032,1765,1793
2058,1830,1922
2036,1918,1874
1979,1959,1872
2055,1728,1762
2037,1836,1803
2007,1975,1968
1989,1792,1936
2001,1824,1789
2023,1755,1827
2075,1909,1925
2023,2013,1889
2013,1875,1828
2053,1679,1739
2127,1757,1853
2000,1859,1900
1984,1929,1841
1973,1725,1782
1997,1875,1911
2002,1846,1907
2009,1933,1842
2026,1793,1840
2059,1915,1954
2074,1963,1967
2045,1853,1827
2068,1885,1821
2003,1648,1819
1998,1718,1842
2013,1731,1819
2112,1887,1836
2097,1919,1865
2138,1936,1897
1984,1762,1807
1908,1874,1815
1917,1810,1881
1987,1825,1949
2029,1857,1772
2035,1856,1811
2032,1955,1958
2086,1898,1904
2012,1681,1718
2017,1779,1787
2058,1935,1942
2077,1901,1968
2057,1813,1769
2055,1751,1772
1998,1841,1869
2045,1892,1887
2014,1822,1856
2026,1775,1856
2071,1905,1931
2085,1914,1894
2002,1773,1799
1973,2007,1809
2032,1867,1911
1972,1600,1863
2107,1711,1781
2081,1807,1871
2031,1904,1904
1993,1918,1852
2044,1808,1763
1998,2039,1886
2000,2013,1985
2020,1661,1829
1922,1589,1743
1985,1780,1787
2071,1977,1919
2064,1901,1886
1983,1779,1818
2034,1840,1803
2030,1818,1874
2031,1822,1924
1972,1799,1776
2003,1825,1766
1979,1941,1870
1979,1857,1904
2069,1822,1834
2032,1936,1810
1973,1966,1903
1947,1777,1840
1995,1685,1799
2028,1763,1837
2075,1962,1936
1995,2001,1949
1963,1699,1734
1986,1974,1770
1994,1829,1847
2000,1680,1853
2047,1662,1808
2128,1934,1835
2006,1947,1911
2062,1957,1947
1937,1917,1842
2019,1950,1873
2018,1787,1863
1933,1743,1759
1916,1616,1690
1990,1744,1766
2039,1886,1945
1981,1999,1935
2094,2017,1840
2022,1740,1853
1903,1833,1849
1949,1853,1808
2012,1794,1776
2059,1861,1834
2062,1800,1941
1988,1903,1939
1955,1913,1753
1917,1815,1745
1951,1787,1876
1959,1924,1854
2053,1840,1773
2058,1761,1796
2005,1894,1968
1983,1958,1947
2058,1776,1738
1968,1777,1763
1941,1918,1900
2017,1877,1901
2016,1802,1773
2031,1840,1792
1971,1874,1887
2052,1947,1871
1993,1907,1863
1935,1825,1841
2043,1889,1887
1974,1849,1807
1947,1821,1770
2096,1808,1824
2035,1856,1911
2031,1941,1882
2062,1905,1778
2015,1903,1829
1993,2043,1909
1931,1751,1863
1978,1631,1765
2035,1831,1794
2015,1945,1945
1965,1923,1897
1997,1826,1827
2044,1825,1825
1985,2037,1879
1956,1936,1860
1910,1815,1793
2061,1874,1835
2071,1941,1920
1949,1883,1873
1983,1826,1774
1999,1858,1809
1999,1901,1874
1959,1930,1899
2069,1889,1869
2063,1758,1796
2090,1957,1830
1855,1936,1877
1810,1773,1813
2005,1839,1831
2030,1953,1900
1967,1858,1855
1878,1947,1807
1952,2041,1840
1985,1895,1882
1953,1893,1871
1950,1805,1872
1937,1744,1850
1969,1852,1875
1968,1936,1825
1957,1866,1729
1985,1955,1805
2047,2109,1923
2073,1776,1878
1840,1711,1776
1906,1805,1849
1970,1931,1929
1961,1951,1805
2016,1872,1744
1894,1849,1787
1887,1873,1930
1917,1973,1898
1981,2000,1791
1967,1841,1808
1949,1934,1888
2001,1791,1872
1969,1755,1812
1928,1931,1776
1978,2001,1895
1970,1891,1886
1937,1735,1770
1996,1847,1791
1984,2042,1923
1911,1863,1860
1920,1840,1791
1981,1902,1806
1921,1873,1871
1953,2046,1923
1936,1861,1855
1887,1753,1744
1925,1941,1885
1986,1851,1917
1915,1791,1790
2003,1841,1808
1951,2123,1956
1879,2009,1845
1835,1667,1699
1878,1744,1790
1954,1984,1975
1925,1901,1857
1911,1849,1751
1995,1856,1751
1968,2032,1951
1911,1907,1914
1919,1863,1803
1979,1878,1842
1929,1904,1906
1983,1883,1815
1865,1777,1723
1878,1875,1808
1956,2003,1904
1999,1971,1866
1862,1803,1735
1853,1822,1761
1935,1925,1883
1982,1883,1895
1909,1866,1805
1902,1827,1800
1904,1920,1923
1902,1929,1895
1895,1971,1831
1904,1855,1776
1905,1990,1818
1925,1926,1831
1886,1777,1797
1906,1775,1791
1889,1804,1852
1955,1891,1867
1922,1949,1853
1922,1942,1831
1901,1883,1902
1903,1859,1829
1938,1917,1776
1930,1923,1789
1874,1947,1906
1931,1935,1889
1885,1819,1777
1854,1821,1767
1904,1863,1914
1869,1895,1903
1864,1895,1799
1898,1857,1819
1911,1929,1885
1905,1895,1843
1915,2010,1792
1920,2060,1829
1869,1772,1822
1872,1792,1872
1920,1808,1730
1866,1835,1799
1919,1968,1914
1984,1878,1862
1901,1903,1802
1873,1913,1779
1891,1919,1862
1893,1959,1897
1822,1801,1791
1833,1741,1747
1885,1929,1899
1930,1897,1930
1919,1851,1762
1900,1853,1742
1855,1959,1859
1854,2027,1894
1874,1843,1791
1895,1755,1788
1894,1845,1872
1911,1888,1872
1820,1839,1745
1855,1959,1812
1910,1886,1904
1895,1840,1885
1866,1851,1779
1952,2006,1890
1938,1918,1936
1969,1863,1881
1885,1859,1760
1842,1946,1786
1814,1902,1879
1823,1881,1930
1870,1824,1808
1903,1980,1744
1872,1852,1847
1879,1819,1867
1935,1901,1825
1903,1911,1837
1895,1934,1872
1867,1830,1811
1875,1821,1742
1889,1903,1779
1908,1888,1921
1943,1983,1903
1894,1893,1786
1994,1868,1777
1862,1867,1869
1846,1861,1875
1914,1872,1843
1899,1920,1829
1840,1965,1904
1819,1862,1947
1861,1862,1808
1877,1904,1747
1904,1950,1885
1888,1806,1875
1909,1891,1797
1960,2055,1819
1917,1920,1894
1841,1775,1825
1813,1770,1761
1853,1926,1837
1936,2069,1933
1933,1923,1957
1847,1763,1791
1890,1828,1774
1915,1933,1879
1871,1890,1922
1828,1877,1786
1906,1984,1813
1898,1859,1888
1890,1840,1875
1904,1894,1761
1829,1840,1748
1835,1871,1894
1847,1872,1887
1897,1839,1819
1979,1872,1840
1872,1867,1867
1792,1968,1858
1829,1860,1785
1904,1890,1842
1963,1931,1935
1838,1836,1853
1808,1830,1779
1878,1987,1840
1893,1971,1894
1877,1830,1813
1874,1778,1767
1847,1818,1823
1879,1951,1971
1876,1904,1942
1872,1776,1791
1869,1860,1793
1907,1934,1819
1952,2000,1899
1938,1823,1831
1804,1791,1797
1779,1904,1851
1844,1827,1833
1847,1833,1795
1869,1953,1837
1884,1937,1866
1872,1943,1821
1853,1909,1821
1843,1804,1805
1845,1723,1858
1872,1753,1818
1883,1843,1770
1889,1955,1929
1965,2028,1938
1951,2003,1835
1809,1713,1721
1762,1714,1826
1834,1936,1966
1866,1920,1890
1869,1781,1775
1892,1842,1770
1875,1875,1842
1840,1897,1867
1889,1866,1854
1908,1921,1806
1843,1895,1872
1857,2160,1870
1840,1835,1785
1869,1733,1766
1883,1754,1868
1981,1882,1839
1936,1872,1769
1818,1838,1879
1840,1946,1949
1866,2039,1895
1866,1746,1791
1853,1854,1799
1887,1967,1899
1857,1808,1866
1829,1829,1783
1841,1842,1808
1863,1840,1973
1888,2010,1882
1904,1853,1719
1840,1823,1763
1875,1937,1879
1906,1936,1910
1819,1902,1830
1810,1728,1815
1871,1783,1917
1891,1895,1936
1851,1926,1820
1853,1875,1788
1863,1974,1861
1895,1850,1904
1871,1863,1829
1863,1927,1843
1822,1852,1853
1863,1763,1810
1883,1802,1742
1834,1818,1808
1895,1959,1923
1925,1904,1876
1856,1945,1856
1831,1827,1865
1835,1923,1894
1894,2042,1870
1856,1866,1763
1815,1766,1770
1827,1831,1936
1838,1827,1930
1887,1844,1750
1904,1942,1799
1890,2019,1915
1829,1824,1904
1905,1771,1784
1865,1914,1859
1798,1887,1905
1781,1797,1857
1830,1827,1790
1876,1922,1844
1885,1861,1888
1858,1840,1845
1923,1899,1773
1872,1996,1832
1851,1840,1895
1816,1834,1914
1863,1847,1872
1834,1868,1806
1828,1825,1853
1840,1733,1920
1853,1940,1825
1863,1954,1777
1873,1917,1950
1858,2034,1901
1838,1759,1726
1843,1737,1776
1854,1898,1939
1887,1977,1921
1903,1823,1765
1867,1819,1799
1918,2010,1936
1847,1914,1887
1796,1748,1711
1868,1747,1779
1840,1861,1920
1823,1945,1929
1853,1913,1808
1872,1840,1866
1899,1819,2019
1825,1872,1842
1933,1983,1737
1903,1923,1792
1776,1895,1915
1765,1805,1849
1850,1780,1798
1898,1826,1839
1872,1937,1903
1877,2061,1917
1839,1776,1762
