1814,1823,2031
1851,1707,1759
1913,1707,1604
1943,2058,1797
1891,1870,1926
1846,1637,1775
1904,1771,1760
1936,1973,1942
1881,1803,1869
1862,1703,1722
1907,1673,1708
1929,1844,1835
1894,1875,1879
1904,1904,1827
1922,1734,1745
1943,1783,1914
1896,1888,1855
1854,1823,1783
1906,1819,1721
1953,1808,1841
1851,1791,1894
1843,1888,1840
1943,1719,1775
1959,1731,1872
1913,1866,1957
1905,2065,1760
1877,1744,1674
1872,1707,1840
1890,1882,1920
1893,1888,1836
1952,1730,1830
1955,1775,1857
1894,1841,1827
1872,1802,1811
1892,1764,1763
1940,1826,1778
1883,1879,1888
1862,1885,1869
1910,1808,1785
1904,1730,1856
1899,1785,2005
1904,1919,1808
1942,1823,1700
1930,1730,1794
1893,1974,1909
1846,1793,1830
1883,1735,1737
1898,1781,1795
1897,1861,1978
1943,1915,2007
1947,2094,1792
1871,1751,1763
1823,1666,1827
1857,1663,1786
1951,1754,1757
1920,1872,1856
1894,2003,1974
1950,2135,2044
1926,1853,1645
1840,1569,1648
1817,1669,1911
1869,1808,1869
1929,1787,1744
1936,1819,1807
1856,1872,1926
1868,1859,1862
1980,2090,1793
1974,1959,1919
1840,1822,1919
1831,1648,1840
1890,1637,1685
1920,1895,1801
1859,1849,1878
1871,1758,1844
1923,1828,1857
1939,1887,1874
1936,2074,2007
1855,1853,1799
1887,1696,1698
1887,1757,1843
1861,1861,1898
1888,1827,1824
1983,1913,1808
1958,1901,1853
1831,1797,1908
1840,1743,1856
1914,1797,1820
1917,1839,1819
1886,1873,1905
1893,1872,1865
1935,1860,1790
1922,1913,1904
1881,1869,2058
1872,1807,1790
1921,1798,1708
1932,1931,1859
1890,1933,1955
1872,1763,1842
1929,1751,1771
1934,1853,1870
1901,1910,1945
1891,1857,1851
1936,1872,1807
1953,1877,1895
1911,1933,1942
1903,1901,1855
1959,1827,1776
1954,1938,1846
1910,1856,1972
1909,1856,1893
1968,1878,1817
1961,1872,1899
1923,1930,1963
1925,1895,1872
1971,1853,1799
1968,1904,1873
1935,1921,1968
1937,1842,1889
1993,1861,1805
1989,1847,1872
1942,1866,1968
1936,1828,1881
1987,1776,1815
1999,1808,1879
1954,1863,1961
1947,1840,1889
1984,1753,1809
1994,1808,1893
1961,1832,1969
1959,1744,1887
2016,1717,1821
2015,1750,1888
1968,1783,1968
1968,1696,1870
2011,1714,1808
2007,1776,1909
1964,1755,1984
1971,1703,1902
2018,1676,1829
2006,1692,1906
1973,1715,1979
1981,1677,1898
2029,1636,1836
2022,1698,1913
1969,1716,1979
1967,1622,1886
2015,1659,1824
2010,1679,1907
1968,1694,1979
1979,1645,1917
2021,1558,1840
2011,1654,1922
1968,1710,1984
1962,1597,1891
2001,1578,1829
2000,1660,1904
1968,1675,1995
1955,1596,1895
2001,1658,1835
2002,1648,1911
1951,1695,1968
1958,1681,1898
2006,1624,1834
2005,1684,1904
1957,1645,1969
1947,1649,1875
2000,1657,1815
2019,1631,1917
1971,1719,1983
1967,1745,1891
2000,1654,1835
2007,1684,1917
1962,1732,1975
1962,1726,1877
1999,1643,1813
2014,1717,1907
1968,1739,1968
1954,1697,1870
2010,1679,1819
2004,1729,1903
1967,1761,1973
1954,1712,1875
1998,1695,1807
2001,1703,1895
1966,1756,1967
1965,1728,1874
1997,1693,1802
2000,1792,1882
1968,1779,1951
1968,1731,1876
2017,1708,1830
2014,1745,1901
1958,1770,1951
1954,1728,1857
1953,1716,1799
1943,1701,1890
1937,1878,1936
1962,1762,1855
2014,1729,1808
2006,1799,1888
1961,1829,1959
1951,1781,1873
1995,1744,1803
1997,1806,1879
1964,1845,1952
1958,1786,1858
1995,1761,1793
1987,1808,1872
1937,1839,1936
1955,1777,1856
2002,1808,1807
1984,1881,1879
1925,1840,1920
1929,1759,1829
1981,1757,1787
1986,1808,1874
1937,1856,1936
1937,1750,1825
1975,1722,1764
1964,1836,1863
1938,1856,1951
1942,1817,1861
1973,1766,1778
1968,1839,1858
1920,1854,1921
1923,1827,1834
1971,1765,1781
1973,1811,1863
1939,1838,1920
1941,1830,1834
1984,1739,1783
1968,1879,1854
1918,1883,1916
1910,1826,1827
1951,1824,1771
1953,1904,1851
1913,1898,1909
1917,1841,1833
1961,1813,1776
1958,1929,1852
1916,1913,1935
1917,1844,1840
1963,1847,1781
1970,1902,1867
1924,1920,1927
1921,1867,1850
1975,1883,1801
1963,1946,1875
1919,1923,1922
1907,1856,1831
1968,1826,1783
1975,1958,1881
1936,1933,1938
1927,1861,1853
1967,1858,1779
1962,1929,1856
1930,1933,1922
1920,1890,1839
1967,1831,1786
1954,1846,1877
1918,1937,1935
1920,1904,1839
1963,1855,1790
1973,1917,1872
1922,1920,1930
1922,1949,1840
1963,1887,1777
1947,1936,1867
1906,1953,1923
1908,1885,1831
1951,1856,1776
1951,1941,1869
1919,1984,1931
1919,1869,1827
1941,1823,1767
1934,1882,1856
1907,1939,1936
1916,1903,1852
1950,1878,1787
1947,1924,1863
1906,1953,1929
1911,1910,1835
1961,1902,1792
1951,1968,1872
1917,1966,1930
1906,1893,1845
1952,1884,1791
1953,1927,1872
1917,1966,1934
1911,1936,1845
1965,1891,1781
1948,1917,1857
1907,1953,1919
1917,1909,1856
1961,1895,1794
1949,1938,1871
1903,1984,1926
1907,1930,1845
1959,1899,1803
1952,1925,1883
1905,1936,1928
1901,1879,1823
1946,1872,1782
1966,1935,1871
1920,1958,1936
1910,1904,1842
1943,1889,1781
1945,1937,1870
1911,1949,1927
1904,1897,1843
1959,1901,1799
1954,1931,1872
1904,1966,1926
1911,1904,1850
1951,1872,1795
1929,1917,1856
1904,1957,1921
1923,1911,1847
1953,1879,1792
1943,1931,1860
1911,1979,1927
1923,1901,1843
1953,1858,1777
1945,1889,1855
1904,1913,1906
1910,1876,1842
1965,1859,1799
1955,1920,1872
1904,1965,1919
1903,1878,1831
1935,1823,1776
1936,1855,1849
1891,1897,1904
1898,1870,1835
1936,1849,1779
1935,1899,1849
1904,1936,1918
1902,1902,1840
1943,1868,1792
1936,1879,1856
1892,1888,1897
1893,1855,1812
1946,1839,1771
1949,1904,1873
1904,1926,1937
1894,1870,1843
1933,1858,1783
1937,1875,1855
1900,1903,1921
1903,1858,1835
1936,1837,1782
1943,1879,1872
1915,1914,1942
1917,1889,1843
1936,1857,1778
1931,1872,1863
1897,1887,1926
1904,1845,1835
1940,1839,1780
1926,1876,1867
1893,1901,1927
1904,1847,1841
1949,1838,1807
1947,1880,1897
1905,1909,1936
1902,1850,1840
1943,1819,1786
1936,1860,1870
1895,1905,1929
1891,1886,1847
1934,1826,1812
1945,1843,1899
1897,1861,1936
1894,1840,1847
1934,1805,1792
1939,1877,1877
1902,1879,1923
1903,1835,1845
1929,1779,1792
1932,1808,1861
1903,1854,1934
1911,1830,1857
1949,1824,1807
1937,1852,1875
1896,1854,1918
1898,1808,1819
1937,1797,1774
1921,1828,1853
1889,1854,1926
1905,1825,1839
1936,1797,1776
1934,1826,1854
1891,1816,1910
1902,1782,1830
1945,1781,1789
1929,1840,1859
1886,1843,1907
1904,1801,1839
1949,1788,1796
1936,1833,1871
1893,1855,1910
1895,1809,1833
1942,1788,1776
1930,1857,1859
1893,1856,1922
1889,1763,1834
1939,1745,1790
1924,1797,1866
1872,1808,1909
1889,1780,1833
1936,1762,1798
1927,1798,1881
1887,1790,1925
1885,1745,1840
1925,1744,1785
1919,1771,1862
1890,1793,1915
1892,1749,1837
1929,1719,1776
1921,1776,1871
1881,1798,1961
1890,1708,1808
1933,1708,1779
1918,1770,1847
1873,1802,1931
1891,1825,1849
1933,1689,1776
1914,1690,1904
1875,1743,1910
1875,1715,1810
1926,1712,1808
1931,1766,1857
1875,1772,1981
1884,1727,1853
1924,1721,1776
1929,1774,1867
1888,1794,1918
1891,1735,1846
1933,1718,1834
1921,1765,1862
1877,1776,1901
1876,1729,1838
1923,1743,1783
1917,1787,1876
1863,1763,1909
1872,1710,1840
1920,1707,1744
1911,1766,1897
1874,1798,1886
1895,1813,1833
1934,1727,1785
1919,1739,1838
1873,1771,1933
1872,1743,1826
1921,1735,1786
1919,1779,1835
1872,1801,1909
1872,1760,1838
1922,1746,1799
1919,1797,1882
1870,1830,1931
1872,1750,1825
1904,1741,1781
1900,1759,1861
1864,1790,1918
1875,1754,1829
1920,1747,1752
1910,1794,1836
1858,1814,1918
1860,1782,1816
1897,1758,1789
1899,1808,1826
1866,1854,1946
1874,1793,1821
1907,1755,1748
1901,1794,1853
1859,1820,1899
1872,1853,1850
1917,1895,1749
1902,1753,1825
1840,1723,1907
1855,1742,1831
1921,1787,1770
1916,1840,1873
1873,1888,1893
1877,1890,1838
1904,1748,1793
1898,1754,1856
1868,1806,1924
1876,1798,1857
1919,1799,1795
1918,1903,1892
1876,1937,1910
1868,1767,1835
1906,1727,1770
1904,1808,1869
1878,1872,1928
1887,1881,1837
1920,1862,1777
1907,1899,1883
1857,1851,1923
1873,1823,1840
1906,1758,1762
1883,1771,1850
1856,1850,1916
1870,1830,1754
1906,1813,1874
1904,1881,1907
1865,1851,1945
1863,1820,1789
1902,1823,1776
1895,1871,1854
1856,1883,1887
1858,1808,1835
1905,1817,1791
1900,1869,1902
1869,1904,1814
1865,1851,1823
1905,1820,1781
1883,1877,1855
1859,1925,1935
1863,1864,1850
1904,1819,1785
1898,1839,1830
1853,1877,1882
1856,1857,1842
1896,1853,1835
1890,1879,1872
1851,1892,1909
1863,1856,1838
1904,1851,1781
1895,1894,1850
1844,1895,1907
1853,1856,1840
1897,1854,1762
1899,1885,1895
1856,1898,1932
1858,1866,1863
1891,1861,1755
1885,1846,1910
1835,1888,1878
1840,1866,1811
1904,1869,1859
1892,1900,1907
1838,1904,1951
1843,1853,1799
1891,1833,1835
1879,1875,1756
1840,1903,1889
1847,1873,1808
1887,1853,1741
1867,1893,1841
1828,1883,1872
1849,1873,1817
1894,1878,1776
1892,1893,1862
1840,1906,1917
1837,1855,1786
1886,1840,1788
1891,1852,1857
1865,1879,1945
1844,1936,1838
1878,1891,1823
1867,1910,1853
1815,1904,1879
1835,1895,1824
1899,1839,1753
1890,1859,1856
1831,1886,1899
1823,1859,1818
1907,1917,1811
1922,2032,1879
1818,1873,1920
1778,1787,1802
1837,1808,1643
1847,1877,1839
1808,1919,1901
1826,1936,1872
1871,1887,1649
1856,1867,1861
1808,1938,1952
1819,1865,1825
1861,1831,1754
1855,1964,1889
1815,1991,1904
1822,1773,1803
1890,1792,1761
1863,1903,1830
1808,2163,1916
1798,1823,1809
1871,1694,1771
1903,1805,1830
1814,2005,1873
1812,1943,1818
1903,1859,1783
1904,1869,1872
1811,2122,1950
1761,1802,1798
1823,1859,1769
1831,1925,1841
1808,1861,1886
1908,2054,1807
1984,1743,1678
1911,1811,1785
1748,1921,1891
1797,1912,1812
1856,1842,1762
1893,1908,1838
1905,2029,1868
1815,1821,1841
1823,1987,1828
1773,1841,1849
1712,1711,1881
1789,1791,1808
1824,1932,1799
1843,2033,1856
1758,1814,1891
1809,1809,1824
1845,1884,1863
1811,1912,1869
1723,1861,1831
1865,2026,1800
1940,1891,1765
1970,1895,1847
1856,1953,1842
1632,1708,1808
1727,1631,1847
1776,1914,1859
1824,2150,1872
1761,2005,1926
1776,1646,1687
1776,1753,1744
1709,1901,1798
1735,1962,1759
1830,1950,1768
1783,1781,1839
1738,1993,1879
1771,1920,1771
1799,1712,1729
1811,1705,1792
1904,1997,1840
1798,1911,1797
1871,1885,1813
1840,1904,1839
1927,1802,1731
1865,1836,1684
1740,1728,1711
1703,1818,1850
1678,1845,1879
1781,1910,1792
1808,1825,1728
1799,1825,1811
1767,1936,1942
1786,2063,1867
1794,1962,1711
1786,1936,1733
1735,1808,1869
1808,1674,1776
1763,1646,1633
1797,1929,1774
1808,2059,1888
1840,1793,1811
1758,1690,1751
1753,1808,1801
1697,1894,1815
1742,1845,1776
1942,1808,1693
1809,1786,1715
1768,2075,1899
1811,1872,1777
1664,1718,1712
1626,1601,1819
1674,1741,1808
1680,1819,1680
1771,1845,1697
1795,1954,1849
1725,1735,1867
1670,1666,1805
1783,1858,1725
1765,2016,1755
1740,1854,1803
1751,1805,1787
1808,1636,1645
1801,1809,1831
1840,2037,1841
1775,1658,1680
1801,1691,1659
1774,1942,1786
1573,1739,1838
1612,1677,1745
1808,1826,1757
1724,1631,1828
1678,1744,1859
1680,1729,1706
1728,1823,1730
1762,1966,1789
1732,1790,1847
1685,1738,1713
1688,1601,1621
1762,1847,1747
1721,1751,1856
1759,1752,1774
1754,1674,1663
1634,1796,1831
1635,1859,1902
1741,1947,1806
1687,1517,1660
1744,1795,1829
1681,1827,1913
1685,1587,1680
1873,1661,1638
1838,1914,1739
1632,1838,1979
1771,1627,1795
1738,1741,1763
1668,1791,1791
1648,1824,1840
1680,1818,1803
1744,1934,1770
1723,1730,1875
1657,1660,1775
1753,1808,1686
1630,1631,1686
1699,1535,1785
1663,1786,1860
1743,1747,1790
1699,1737,1755
1840,1829,1803
1835,1975,1872
1694,1864,1828
1616,1533,1703
1682,1707,1777
1722,1923,1872
1729,1733,1715
1638,1679,1709
1629,1889,1808
1706,1834,1872
1712,1586,1740
1691,1535,1664
1677,1783,1925
1699,1904,1973
1727,1894,1696
1776,1836,1690
1654,1653,1778
1795,1961,1900
1629,1631,1700
1660,1567,1715
1677,1850,1803
1743,1969,1819
1662,1591,1746
1869,1936,1887
1723,1898,1883
1696,1759,1823
1725,1661,1700
1716,1650,1789
1806,1853,1933
1649,1798,1843
1634,1831,1680
1653,1751,1692
1829,2070,1891
1791,1854,1923
1579,1471,1724
1654,1647,1715
1835,1966,1879
1671,1728,1865
1522,1920,1799
1759,1787,1776
1806,1692,1741
1657,1852,1872
1709,1676,1801
1687,1722,1847
1697,1861,1878
1607,1901,1862
1661,1975,1742
1699,1612,1728
1821,1722,1851
1723,1754,1887
1673,2005,1853
1793,2149,1869
1785,1678,1808
1598,1470,1827
1604,1701,1751
1755,1811,1678
1773,1761,1867
1729,1894,1974
1717,1840,1843
1799,1850,1743
1744,1699,1798
1616,1648,1868
1605,1762,1840
1762,1879,1829
1750,1850,1919
1697,1872,1859
1702,1830,1855
687,1808,1761
0,1935,1867
882,1827,1846
1959,1712,1825
2108,1712,1872
1915,1901,1905
1807,1962,1890
1786,1671,1759
1837,1911,1849
1840,1826,1888
1829,1727,1927
423,1679,1742
2258,1775,1754
2306,1879,1939
1956,1863,1945
1759,1869,1842
1840,1961,1825
1890,1751,1893
1862,1818,1895
1831,1872,1799
1825,1803,1780
1831,1795,1845
1831,2010,1968
1837,1919,1866
1834,1701,1809
1829,1776,1847
1829,1858,1889
1829,1775,1814
1833,1808,1776
1835,1999,1924
1830,1984,1972
1840,1677,1807
1781,1759,1787
1682,1998,1879
1616,1881,1936
1630,1670,1851
1739,1730,1856
1861,2068,1952
1806,1978,1906
1781,1815,1835
1827,1934,1866
1837,1684,1849
1767,1823,1917
1755,1897,1849
1818,1947,1830
1882,1850,1935
1835,2000,1975
1833,1801,1808
1845,1732,1762
1882,1865,1882
1802,1925,1980
1894,2066,1983
2000,2075,1770
1919,1794,1809
1707,1630,1863
1788,1677,1863
1959,1867,1834
1871,1985,1942
1786,1979,1984
1806,1811,1888
1937,1748,1803
1888,1899,1837
1866,1926,1895
1836,1989,1890
1936,1887,1894
1905,1741,1936
1853,1922,1958
1814,1859,1818
1856,1718,1833
1856,1909,1856
1923,2086,1914
1867,1821,1818
1893,1856,1839
1858,1838,1910
1895,1835,1939
1942,2002,1833
1986,1841,1774
1834,1830,1903
1813,1963,1986
1791,1776,1920
1863,1779,1799
1882,2029,1841
1875,1933,1968
1925,1856,1867
2012,1911,1819
1929,1897,1887
1787,2097,1936
1755,1722,1817
1917,1806,1875
1903,1894,1873
1795,1819,1956
1842,1920,1901
1904,1920,1749
1834,1927,1829
1834,1891,1958
1859,1858,1841
1914,2011,1803
1984,1892,1839
1896,1934,1895
1773,1786,1854
1879,1750,1826
1859,1808,1951
1777,1863,1973
1789,2093,1771
1852,1890,1773
1835,1926,1871
1797,1873,1935
1917,1809,1840
1909,1691,1810
1843,1766,1883
1855,2065,1914
1863,2158,1890
1781,1761,1792
1792,1795,1895
1856,1870,2022
1823,1762,1742
1954,2042,1750
1775,1940,1870
1709,1860,1936
1776,1758,1883
1872,2043,1901
1872,1994,1894
1815,1686,1827
1920,1840,1791
1956,2059,1862
1831,2078,2017
1733,1648,1978
1808,1639,1915
1833,1791,1862
1809,2021,1904
1777,1894,1900
1849,1788,1847
1795,1862,1925
1815,2194,1894
1840,1811,1871
1833,1901,1808
1786,1930,1823
1799,1841,1879
1762,1735,1870
1787,1802,1795
1864,1982,1843
1891,1962,1946
1824,1856,1871
1783,1793,1776
1872,1855,1819
1918,2038,1891
1712,1803,1878
1680,1659,1754
1865,1870,1796
1840,1981,1941
1744,1881,1969
1778,1727,1795
1789,1763,1719
1773,1875,1861
1790,2037,1915
1778,1872,1776
1793,1675,1750
1820,1919,1891
1799,2075,1932
1814,1773,1761
1838,1774,1770
1732,2047,1889
1667,1699,1904
1713,1706,1806
1820,1938,1776
1871,1966,1840
1889,1854,1883
1733,1778,1851
1818,1853,1835
1775,1808,1830
1717,1852,1881
1744,1902,1776
1839,2014,1793
1793,1991,1937
1686,1621,1898
1753,1712,1827
1891,1866,1747
1813,1951,1851
1712,1971,1859
682,1765,1787
1245,1829,1825
1830,1908,1885
1902,1898,1905
1847,1733,1796
1822,1677,1784
1767,1904,1859
1769,2022,1952
1733,1769,1777
1797,1739,1744
1890,1917,1855
1874,1961,1903
1789,1841,1805
1745,1792,1790
1769,1809,1854
1815,1896,1871
1871,1827,1776
1799,1794,1847
1767,1895,1879
1783,1740,1872
1766,1758,1743
1815,1874,1757
1827,1919,1904
1857,2231,2033
1713,1737,1831
1748,1757,1712
1818,1920,1813
1749,1728,1850
1786,1687,1821
1900,1872,1867
1837,2144,1897
1729,1766,1837
1738,1664,1753
1863,1761,1774
1849,1979,1917
1804,2168,2023
1747,1739,1767
1793,1801,1775
1807,1943,1902
1781,1760,1859
1903,1887,1815
1772,1873,1807
1712,1606,1873
1792,1911,1936
1857,1867,1791
1872,1744,1741
1869,1919,1845
1779,1891,1920
1673,1705,1905
1731,1761,1781
1839,2176,1873
1814,1882,1882
1728,1750,1802
1773,1679,1763
1759,1783,1906
1744,1929,1938
1781,1902,1821
1872,1903,1837
1790,2015,1856
1758,1744,1837
1724,1657,1733
1786,1872,1798
1805,1812,1967
1803,1903,1913
1869,1981,1813
1791,1872,1810
1822,1824,1886
1889,1841,1839
1659,1758,1755
1678,1714,1794
1757,1999,1917
1817,1991,1871
1817,1901,1823
1822,1668,1765
1747,1791,1904
1831,1958,2043
1840,1999,1755
1744,1739,1749
1710,1687,1919
1743,1888,1936
1841,1936,1765
1898,1966,1712
1733,1904,1883
1665,1722,1899
1831,1869,1845
2013,1724,1823
1747,1909,1910
1636,1871,1881
1759,1930,1776
1847,1791,1759
1778,1771,1882
1741,1999,1895
1796,2069,1894
1862,1660,1818
1825,1777,1834
1807,1895,1904
1731,1872,1840
1762,1935,1813
1805,1826,1873
1845,2119,1871
1772,1798,1756
1795,1833,1813
1765,1932,1872
1728,1840,1863
1803,1730,1802
1891,1791,1837
1895,2000,1887
1707,1855,1877
1674,1697,1769
1761,1845,1773
1841,2000,1941
1837,2027,1968
1776,1648,1790
1749,1723,1691
1769,1957,1872
1789,2099,1927
1852,1709,1810
1777,1780,1825
1795,1902,1901
1754,1746,1862
1839,2080,1829
1872,1922,1728
1764,1652,1821
1694,1783,1894
1850,1894,1862
1905,1905,1810
1849,1977,1855
1697,1758,1879
1735,2032,1840
1792,1703,1786
1827,1717,1899
1807,1872,1878
1785,1825,1791
1824,1776,1817
1833,1875,1886
1762,1898,1845
1808,1905,1755
1930,1975,1827
1859,2102,1942
1691,1680,1872
1717,1649,1817
1808,1913,1795
1854,1849,1875
1763,1847,1968
1808,1838,1787
1832,1793,1727
1753,1765,1872
1778,1889,1966
1866,1840,1790
1882,2054,1792
1758,2010,1945
1713,1789,1889
1808,1663,1773
1845,1814,1764
1810,1869,1853
1788,1880,1941
1843,2057,1889
1810,1791,1731
1805,1762,1843
1792,2096,1937
1837,1913,1808
1913,1764,1781
1799,1727,1842
1744,1903,1869
1858,1894,1864
1798,1693,1811
1748,1714,1917
1794,2000,1921
1842,2112,1838
1839,1868,1778
1767,1769,1891
1738,1799,1887
1798,1808,1767
1874,1974,1776
1969,1975,1877
1810,1788,1878
1694,1834,1859
1800,1758,1797
1794,1796,1873
1787,1878,1904
1792,1911,1811
1905,1984,1804
1922,1856,1876
1813,1955,1927
1808,1843,1873
1812,1815,1757
1751,1747,1803
1789,1807,1883
1857,1797,1813
1861,2054,1854
1834,1838,1925
1795,1737,1887
1840,1841,1792
1848,1885,1801
1815,2095,1906
1867,1936,1973
1871,1787,1808
1831,1668,1749
1817,1798,1825
1778,1853,1904
1847,1883,1811
1891,2072,1801
1824,1927,1846
1789,1952,1915
1816,1721,1835
1840,1614,1793
1808,1853,1886
1839,2042,1982
1842,1874,1834
1930,1744,1711
1840,1904,1874
1786,1927,1942
1776,1850,1808
1819,1765,1712
1870,1794,1843
1855,1919,1922
1903,1945,1834
1865,1888,1801
1783,1983,1971
1726,1761,1936
1744,1643,1730
1842,1712,1754
1895,1865,1889
1847,2146,1988
1825,2082,1791
1902,1808,1744
1815,1667,1858
1815,1805,1914
1798,1787,1828
1863,1817,1833
1859,1966,1917
1850,1994,1925
1774,1810,1766
1798,1808,1711
1891,1858,1856
1825,1791,1872
1746,1786,1781
1814,1817,1814
1873,1915,1931
1885,2079,1966
1829,2106,1858
1959,1696,1807
1807,1718,1831
1730,1757,1882
1815,1838,1822
1929,2064,1777
1889,2031,1904
1777,1675,1930
1776,1670,1800
1949,1903,1712
1900,1943,1853
1801,1877,1955
1735,1740,1822
1837,1814,1815
1888,2069,1894
1827,1870,1843
1722,1698,1743
1814,1749,1761
1939,1939,1939
1891,2395,1965
1753,1718,1722
1733,1475,1744
1809,1706,1903
1894,1895,2000
1879,1876,1866
1889,2041,1734
1844,1875,1838
1798,1989,1827
1713,1658,1787
1838,1719,1764
1875,1890,1935
1776,2021,1921
1783,1855,1811
1902,1881,1741
1894,1783,1833
1857,1738,1965
1825,1844,1937
1805,1941,1797
1839,1871,1904
1799,1799,1854
1845,1820,1730
1888,1887,1750
1860,2020,1901
1749,1718,1869
1810,1744,1856
1982,2063,1822
1851,1816,1920
1789,1869,1871
1738,1786,1839
1841,1791,1789
1932,1875,1831
1777,1873,1872
1759,1808,1818
1840,1744,1777
1911,1982,1878
1849,2093,1859
1850,1868,1902
1986,1600,1797
1855,1712,1759
1762,1943,1859
1744,1856,1841
1835,1936,1783
1890,1979,1901
1792,1854,1856
1801,1673,1791
1850,1694,1779
1920,1871,1878
1791,1914,1965
1755,1818,1809
1857,1850,1761
1968,2011,1953
1804,1935,1904
1792,1857,1742
1849,1906,1803
1863,1830,1873
1774,1711,1859
1796,1708,1754
1879,1844,1735
1833,1862,1893
1831,2032,1929
1852,1917,1808
1860,1744,1775
1850,1934,1893
1809,1808,1904
1809,1727,1791
1874,1776,1771
1820,1825,1897
1802,1904,1872
1900,2044,1874
1923,2000,1776
1828,1855,1894
1755,1776,1973
1806,1781,1807
1867,1811,1817
1853,1949,1815
1818,2007,1851
1849,1681,1859
1883,1696,1763
1863,1882,1901
1810,1867,1965
1841,2023,1872
1888,1901,1731
2000,1952,1866
1919,2105,1879
1758,1632,1770
1757,1615,1842
1837,1809,1899
1890,1933,1920
1938,1909,1809
1883,1967,1875
1872,1947,2096
1930,2083,1926
1831,1712,1677
1769,1711,1747
1797,1812,1872
1836,1905,1951
1962,2031,1918
1926,2054,1859
1872,1835,1871
1798,1803,1885
1858,1793,1843
1872,1814,1806
1843,1908,1952
1872,2171,1971
1875,1852,1830
1882,1637,1856
1825,1839,1887
2010,2035,2015
1890,2026,1860
1819,1818,1821
1829,1695,1855
1796,1818,1919
1874,2001,1907
1981,1891,1893
1841,1815,1925
1787,1847,1916
1860,1981,1819
1975,2216,1840
1872,1823,1838
1794,1818,1901
1872,1958,1904
1953,1968,1799
1930,1789,1878
1879,1857,1878
1799,1666,1729
1829,1762,1822
1872,1904,1937
1921,2146,2024
1953,1966,1927
1861,1751,1795
1830,1930,1917
1879,1847,1904
1836,1773,1837
1915,1966,1778
1859,1963,1892
1747,1755,1902
1819,1895,1851
1911,1931,1939
1939,1935,1959
1839,1941,1835
1823,1903,1756
1897,1931,1810
1882,1680,1890
1831,1667,1941
1968,2015,1873
1972,2109,1803
1865,1744,1775
1771,1715,1882
1755,1807,1808
1831,1941,1821
1877,2022,1937
1839,1830,1972
1915,1943,1856
1877,1813,1713
1918,1891,1881
1837,1872,1894
1808,1869,1841
1859,1797,1797
1856,1789,1933
1845,2060,1980
1831,1947,1851
1857,1701,1723
1850,1785,1789
1843,1934,1920
1867,1959,1811
1840,1776,1751
1968,1793,1840
1873,1958,1865
1779,1948,1752
1832,1856,1791
1871,1810,1878
1845,1781,1904
1835,1840,1817
1891,1921,1842
1822,1845,1923
1849,1983,1921
1867,1954,1723
1879,1687,1717
1904,1731,1850
1777,1707,1884
1767,1968,1776
1847,1799,1776
1937,1939,1878
1847,1895,1931
1796,1952,1823
1875,1889,1792
1886,1686,1935
1827,1833,1903
1879,1968,1754
1847,1785,1712
1821,1858,1853
1801,1851,1904
1856,1862,1780
1903,1813,1770
1870,2064,1936
1823,1829,1846
1819,1661,1761
1872,1744,1827
1862,1835,1939
1831,1946,1985
1849,1861,1705
1936,1793,1692
1863,1872,1859
1754,1937,1926
1802,1942,1840
1875,1855,1772
1893,1794,1845
1864,1839,1891
1813,1735,1835
1925,1843,1775
1858,1949,1907
1831,1987,2012
1856,1845,1706
1984,1677,1646
1830,1747,1867
1749,2007,1936
1881,2143,1798
1938,1790,1767
1856,1629,1802
1726,1646,1877
1855,1829,1838
1867,1941,1828
1886,2030,1872
1856,1664,1839
1815,1670,1785
1917,1840,1806
1956,2022,1939
1877,2108,1856
1834,1893,1712
1870,1853,1789
1813,1712,1920
1894,1968,1931
1774,1870,1744
1794,1616,1735
1840,1869,1949
1856,1862,1946
1845,1786,1773
1857,1725,1725
1899,1872,1853
2017,2097,1936
1895,2355,1801
1856,1618,1706
1727,1523,1792
1701,1676,1892
1833,1807,1866
1919,1891,1787
1911,1929,1836
1822,1991,1946
1811,1914,1833
1842,1871,1789
1906,1991,1963
1792,1748,1881
1856,1801,1825
1963,2118,1722
1974,1970,1879
1741,1507,1844
1785,1651,1747
1835,1800,1831
1875,1909,1919
1808,2010,1879
1806,1767,1758
1879,1648,1761
1986,1936,1852
1744,1968,1918
1821,1977,1840
1926,1862,1776
1827,1683,1822
1798,1750,1882
1904,1840,1799
1893,1914,1819
1904,1966,1898
1818,1791,1852
1867,2019,1823
1909,1931,1793
1899,1743,1869
1771,1664,1901
1935,2208,1858
1919,1941,1739
1760,1535,1758
1783,1738,1876
1789,1764,1802
1890,1910,1808
1868,2003,1895
1917,2157,1907
1808,1715,1799
1933,1598,1778
1855,1715,1811
1755,1777,1840
1824,1907,1851
1972,1972,1836
1841,1885,1916
1728,1774,1858
1808,1741,1776
1889,1762,1777
1936,1936,1907
1944,2014,1937
1886,1871,1819
1835,1898,1771
1817,1732,1871
1841,1898,1862
1862,1699,1807
1918,1904,1858
1863,1791,1838
1840,1684,1808
1779,1899,1811
1886,2154,1847
1792,1633,1920
1789,1625,1900
1829,1882,1775
1872,1794,1792
1919,1753,1872
1820,1878,1860
1795,1874,1797
1824,1904,1750
1904,1974,1898
1877,1692,1878
1803,1614,1886
1776,1892,1811
1927,2181,1867
1885,1827,1831
1825,1826,1776
1807,1634,1760
1798,1749,1904
1838,2065,1910
1937,1968,1750
1968,1712,1744
1877,1694,1888
1728,1674,1872
1829,1689,1791
1906,1884,1823
1879,2103,1983
1813,2106,1867
1936,1706,1731
1814,1505,1658
1791,1687,1811
1767,1864,1920
1850,1830,1823
1934,1877,1830
1869,2169,1968
1744,1885,1862
1777,1577,1770
1859,1715,1701
1859,1847,1831
1853,1921,1920
1846,1889,1831
1895,2047,1796
1856,1835,1865
1831,1676,1886
1915,1535,1723
1842,1732,1723
1894,1968,1939
1933,2065,1920
1808,1899,1836
1835,1664,1714
1803,1703,1809
1835,1785,1891
1877,1935,1855
1946,2187,1827
1872,1808,1840
1693,1666,1894
1792,1656,1763
1866,1840,1754
1869,1911,1883
2000,1986,1904
1758,1894,1857
1712,1938,1883
1865,1742,1803
1733,1712,1863
