2109,1667,1936
2094,1647,1903
2071,1600,1775
2095,1620,1824
2091,1680,1914
2075,1665,1903
2071,1638,1808
2081,1665,1824
2085,1723,1920
2070,1700,1866
2065,1651,1789
2081,1714,1811
2079,1746,1903
2063,1696,1872
2066,1663,1782
2084,1710,1827
2083,1763,1905
2064,1735,1873
2070,1699,1791
2087,1730,1836
2075,1792,1909
2058,1782,1776
2057,1749,1835
2080,1758,1799
2076,1798,1903
2053,1781,1831
2061,1745,1742
2082,1777,1873
2076,1840,1895
2063,1819,1843
2074,1776,1771
2094,1808,1801
2096,1872,1887
2085,1840,1873
2096,1786,1806
2113,1821,1825
2118,1878,1904
2097,1863,1894
2102,1825,1799
2121,1846,1815
2117,1892,1901
2115,1871,1868
2125,1837,1791
2131,1864,1822
2122,1904,1885
2119,1872,1850
2128,1840,1782
2160,1872,1814
2143,1926,1899
2141,1914,1866
2149,1914,1785
2154,1872,1801
2147,1904,1887
2143,1909,1865
2159,1897,1782
2160,1913,1807
2157,1959,1889
2146,1943,1871
2166,1901,1787
2192,1920,1817
2192,1962,1893
2160,1927,1854
2176,1887,1782
2211,1923,1839
2206,1958,1904
2185,1918,1855
2196,1876,1785
2195,1904,1809
2198,1945,1899
2213,1926,1889
2267,1878,1806
2219,1899,1813
2226,1935,1895
2236,1912,1867
2266,1866,1781
2220,1885,1822
2233,1931,1880
2170,1907,1870
2186,1855,1790
2261,1885,1823
2273,1926,1894
2240,1897,1859
2139,1857,1793
2190,1878,1829
2185,1929,1906
2238,1899,1872
2183,1861,1786
2206,1882,1817
2188,1888,1892
2175,1861,1874
2189,1822,1809
2189,1850,1834
2179,1891,1914
2179,1879,1874
2138,1791,1796
2145,1807,1831
2207,1910,1907
2155,1883,1886
2146,1818,1803
2166,1837,1825
2160,1875,1892
2103,1856,1879
2193,1815,1802
2179,1836,1840
2165,1886,1907
2131,1869,1872
2128,1818,1807
2160,1845,1849
2113,1877,1926
2128,1854,1882
2112,1818,1792
2167,1847,1827
2139,1877,1899
2084,1853,1862
2110,1821,1802
2129,1853,1842
2113,1903,1921
2093,1865,1884
2036,1812,1794
2093,1841,1824
2081,1899,1926
2095,1870,1889
2055,1798,1803
2075,1820,1837
2071,1887,1903
2031,1867,1869
2107,1815,1791
2059,1846,1823
2027,1891,1903
2022,1870,1878
2064,1829,1792
2099,1845,1811
2071,1903,1918
2039,1874,1888
2018,1834,1799
2041,1856,1821
2047,1918,1907
2043,1877,1878
2082,1837,1794
2010,1849,1824
2064,1891,1907
2069,1877,1865
2030,1838,1781
2054,1866,1834
2046,1897,1911
2013,1880,1858
2032,1842,1792
2057,1873,1826
2035,1919,1898
2020,1897,1874
2028,1859,1792
2032,1886,1823
2006,1927,1901
2035,1906,1869
1969,1860,1783
2014,1885,1825
1979,1936,1915
1968,1926,1872
2030,1867,1789
2000,1878,1802
1991,1924,1878
1977,1918,1856
2014,1889,1789
1984,1909,1821
1961,1943,1886
1984,1915,1856
1975,1872,1789
2006,1891,1812
1983,1957,1889
1981,1935,1860
2000,1893,1791
2003,1917,1821
1999,1953,1879
1987,1945,1870
1997,1919,1801
1989,1956,1834
2039,1958,1904
1936,1887,1843
2023,1858,1773
2055,1903,1819
2033,1963,1907
1934,1995,1872
1991,1926,1792
1968,1873,1811
1959,1918,1882
2006,1913,1841
2064,1890,1776
1996,1921,1806
1999,1985,1895
1913,1931,1862
1989,1885,1783
1984,1924,1808
2043,1957,1899
1951,1932,1857
2037,1888,1775
1950,1911,1806
1962,1968,1898
2001,1939,1860
1957,1888,1772
1969,1905,1794
1994,1952,1904
1969,1935,1873
1984,1903,1797
1939,1918,1811
1993,1955,1887
1936,1939,1859
1971,1890,1783
1970,1913,1816
1968,1947,1879
1951,1931,1861
1955,1882,1793
1968,1902,1819
1949,1962,1901
1915,1917,1865
1957,1872,1780
1969,1911,1815
1963,1930,1904
1945,1894,1871
1962,1879,1795
1939,1899,1823
1908,1930,1892
1919,1911,1852
1991,1873,1782
1961,1893,1817
1971,1933,1899
1935,1898,1854
1947,1853,1775
2047,1890,1833
1996,1937,1907
1963,1911,1873
1967,1879,1785
1979,1870,1799
1972,1901,1885
1954,1879,1857
1965,1834,1770
1979,1872,1800
1969,1936,1925
1966,1901,1888
1953,1834,1780
1965,1866,1807
1958,1918,1910
1940,1883,1872
1953,1840,1786
1962,1855,1806
1947,1898,1872
1946,1881,1867
1966,1840,1797
1970,1857,1819
1936,1902,1892
1926,1873,1859
1937,1839,1776
1953,1856,1808
1954,1899,1901
1937,1871,1861
1936,1840,1763
1949,1857,1808
1925,1876,1896
1920,1854,1866
1936,1818,1796
1950,1843,1819
1936,1888,1887
1917,1860,1845
1934,1821,1783
1942,1847,1809
1936,1891,1892
1913,1858,1856
1919,1814,1780
1929,1847,1808
1924,1899,1881
1920,1874,1872
1925,1831,1779
1937,1850,1809
1926,1881,1887
1917,1862,1858
1930,1838,1803
1933,1841,1808
1925,1879,1903
1925,1855,1872
1938,1822,1790
1941,1855,1820
1924,1874,1895
1923,1851,1870
1932,1808,1777
1942,1827,1797
1943,1888,1897
1923,1849,1861
1935,1815,1778
1936,1853,1810
1926,1894,1887
1904,1856,1840
1919,1811,1771
1936,1835,1814
1941,1882,1901
1927,1856,1848
1923,1827,1773
1936,1856,1822
1919,1872,1903
1907,1843,1852
1905,1806,1760
1925,1823,1799
1910,1870,1885
1903,1854,1850
1928,1811,1791
1947,1838,1823
1937,1879,1891
1902,1845,1838
1914,1801,1766
1920,1839,1807
1920,1877,1887
1906,1839,1845
1911,1789,1767
1916,1824,1810
1920,1869,1894
1906,1845,1852
1907,1797,1770
1925,1820,1815
1911,1862,1901
1898,1849,1856
1895,1796,1774
1907,1812,1799
1901,1853,1883
1901,1840,1859
1904,1803,1779
1914,1821,1803
1897,1852,1885
1889,1830,1849
1886,1785,1775
1899,1809,1806
1899,1847,1878
1890,1825,1862
1892,1783,1783
1898,1803,1805
1893,1856,1903
1874,1828,1858
1888,1776,1781
1895,1801,1809
1886,1844,1873
1872,1823,1843
1889,1783,1786
1909,1805,1808
1895,1849,1882
1883,1817,1850
1904,1770,1776
1910,1797,1808
1911,1844,1900
1885,1815,1857
1897,1766,1775
1915,1797,1813
1907,1846,1891
1904,1828,1846
1913,1776,1766
1923,1783,1792
1923,1856,1899
1918,1841,1875
1919,1776,1777
1926,1791,1798
1910,1840,1872
1901,1819,1840
1932,1792,1776
1936,1827,1815
1931,1872,1893
1905,1831,1857
1916,1785,1779
1930,1830,1809
1921,1873,1910
1918,1853,1904
1933,1815,1773
1951,1829,1815
1936,1883,1929
1914,1849,1813
1925,1808,1722
1953,1838,1815
1957,1872,1959
1930,1859,1853
1936,1824,1714
1942,1850,1764
1939,1889,1856
1936,1889,1866
1962,1867,1826
1953,1847,1819
1937,1856,1841
1936,1849,1819
1945,1823,1765
1963,1920,1825
1965,1851,1906
1954,1872,1841
1946,1806,1759
1959,1891,1799
1955,1904,1877
1942,1845,1857
1947,1835,1777
1962,1824,1808
1951,1871,1885
1936,1889,1846
1943,1830,1766
1968,1920,1815
1959,1875,1904
1936,1867,1872
1947,1805,1795
1965,1843,1818
1942,1946,1889
1922,1899,1859
1942,1908,1793
1952,1890,1822
1943,1891,1902
1927,1887,1859
1919,1861,1770
1938,1910,1820
1940,1957,1922
1933,1933,1872
1918,1870,1783
1933,1915,1821
1926,1987,1904
1917,1931,1872
1923,1907,1808
1934,1911,1827
1914,1967,1887
1901,1894,1853
1914,1930,1783
1937,1953,1826
1922,1988,1901
1894,1979,1856
1904,1904,1792
1917,1918,1820
1908,1959,1885
1894,1940,1843
1898,1857,1767
1915,1930,1809
1899,1989,1895
1898,1914,1857
1898,1886,1793
1903,1904,1830
1887,1924,1877
1872,1937,1836
1886,1889,1759
1904,1917,1807
1890,1963,1877
1870,1967,1833
1874,1867,1766
1875,1861,1808
1866,1994,1887
1847,1911,1843
1862,1839,1770
1873,1901,1804
1872,2032,1893
1853,1983,1855
1856,1968,1771
1870,1898,1799
1862,1935,1883
1847,1942,1856
1843,1889,1778
1871,1939,1804
1861,1981,1878
1839,2066,1861
1824,1923,1755
1840,1893,1791
1841,1963,1873
1830,2060,1844
1839,1983,1780
1856,2000,1810
1841,1996,1889
1837,1979,1855
1840,1953,1763
1840,1966,1797
1837,2010,1889
1824,2009,1856
1826,1962,1781
1839,1965,1811
1819,2017,1885
1815,1979,1851
1824,1990,1774
1835,2039,1810
1821,2012,1888
1809,1897,1871
1823,1925,1815
1827,2019,1815
1809,2043,1872
1790,2027,1837
1806,2059,1771
1830,2095,1815
1820,2096,1895
1789,2029,1846
1791,1970,1773
1827,1993,1837
1822,2039,1904
1802,2008,1845
1808,1974,1776
1817,2006,1833
1808,2055,1901
1798,2002,1866
1801,1915,1758
1813,2032,1792
1809,2035,1915
1789,2027,1889
1792,1975,1751
1808,1869,1781
1806,1966,1873
1788,1992,1845
1803,1818,1766
1813,1933,1802
1808,2113,1901
1781,1929,1850
1794,1897,1773
1809,2021,1812
1804,2032,1878
1791,1967,1855
1807,1904,1807
1815,1859,1801
1792,1959,1872
1793,1904,1854
1814,1863,1787
1815,1923,1813
1789,1974,1874
1776,1936,1846
1785,1859,1780
1805,1889,1820
1805,1946,1901
1792,1941,1867
1791,1882,1776
1802,1916,1805
1803,1971,1895
1783,1923,1861
1776,1872,1765
1791,1878,1808
1779,1957,1889
1767,1911,1862
1791,1879,1808
1806,1874,1827
1795,1929,1926
1775,1875,1859
1762,1829,1757
1799,1927,1827
1798,1967,1902
1777,1922,1871
1776,1829,1791
1808,1859,1824
1803,1888,1914
1774,1937,1862
1774,1822,1787
1793,1869,1823
1785,1935,1913
1776,1892,1854
1792,1908,1791
1803,1967,1829
1783,1939,1903
1774,1815,1865
1787,1854,1779
1806,1863,1829
1792,1904,1902
1774,1877,1861
1793,1825,1785
1796,1885,1814
1785,1894,1897
1780,1872,1875
1791,1827,1806
1793,1847,1827
1795,1933,1906
1778,1919,1842
1782,1823,1792
1815,1990,1855
1810,1970,1936
1771,1746,1829
1767,1711,1759
1790,1777,1810
1797,1821,1897
1778,1837,1862
1802,1844,1797
1829,2035,1856
1793,1945,1900
1751,1648,1835
1765,1638,1761
1801,1775,1810
1813,1886,1918
1797,1970,1889
1791,1779,1772
1798,1791,1792
1818,1999,1918
1783,1793,1834
1801,1680,1751
1821,1852,1805
1825,1941,1870
1801,1744,1811
1808,1830,1763
1794,1644,1783
1787,1681,1875
1795,1808,1877
1881,1859,1808
1890,1954,1762
1837,1851,1854
1781,1596,1813
1885,1825,1733
1842,1682,1764
1739,1619,1840
1831,1855,1843
1808,2066,1779
1812,1519,1734
1757,1472,1811
1791,1840,1811
1754,1643,1715
1757,1493,1731
1773,1719,1843
1776,1723,1830
1769,1700,1743
1822,1773,1835
1757,1535,1860
1750,1571,1727
1727,1562,1601
1744,1575,1712
1747,1645,1811
1761,1873,1813
1739,1481,1684
1743,1481,1741
1749,1648,1838
1759,1809,1812
1782,1497,1747
1781,1386,1877
1786,1566,1776
1730,1649,1657
1757,1585,1627
1711,1590,1743
1684,1584,1896
1675,1578,1785
1776,1370,1695
1782,1520,1743
1623,1507,1827
1535,1517,1735
1706,1564,1734
1652,1616,1785
1569,1428,1817
1533,1341,1854
1502,1399,1725
1569,1473,1690
1487,1535,1801
1469,1789,1840
1472,1564,1728
1458,1342,1709
1503,1505,1797
1410,1665,1758
1313,1590,1794
1310,1666,1844
1322,1671,1834
1329,1899,1759
1314,1590,1649
1392,1505,1723
1267,1648,1810
1259,1665,1776
1254,1712,1726
1296,1822,1790
1313,2039,1856
1329,1631,1729
1213,1526,1667
1158,1725,1735
1168,1856,1853
1196,1803,1840
1215,1806,1808
1178,1735,1885
1168,1807,1808
1215,1968,1698
1218,1935,1678
1055,1646,1727
1019,1773,1853
1010,1699,1805
1019,1744,1734
1031,1776,1781
999,1891,1875
944,1883,1825
911,1755,1712
967,1949,1760
953,1745,1808
905,1629,1775
922,1675,1758
966,1774,1821
950,1919,1921
881,1833,1834
869,1671,1709
907,1741,1770
944,1823,1863
914,1702,1839
918,1631,1800
962,1723,1802
951,1910,1874
967,1828,1805
1182,1797,1708
1061,1814,1776
832,1850,1951
859,1671,1915
976,1878,1833
1086,1680,1809
1003,1698,1869
976,1622,1923
993,1602,1810
937,1723,1824
937,1890,1910
1008,2033,1867
1053,1575,1717
1046,1559,1759
979,1729,1957
962,1615,1897
1018,1607,1809
1086,1759,1822
1168,2021,1863
1079,1783,1863
961,1711,1822
967,1584,1891
1022,1584,1936
1087,1642,1779
1121,1715,1716
1157,1951,1789
1067,1690,1887
1043,1723,1943
1109,1671,1851
1195,1715,1937
1163,1777,1931
1105,1881,1826
1199,1782,1761
1244,1533,1802
1110,1711,1839
1049,1655,1795
1083,1625,1743
1207,1687,1785
1200,1850,1911
1182,1842,1968
1196,1715,1878
1258,1717,1883
1313,1817,1867
1218,1685,1790
1165,1619,1797
1307,1653,1903
1256,1879,1929
1232,1845,1799
1238,1677,1710
1358,1790,1885
1296,1822,1946
1190,1603,1883
1221,1622,1746
1347,1836,1839
1357,2015,2022
1303,1766,1886
1343,1525,1808
1392,1756,1756
1363,1892,1900
1326,1839,1777
1412,1650,1755
1406,1762,1862
1376,1775,1922
1361,1757,1878
1390,1706,1851
1387,1779,1891
1391,1837,1891
1410,1871,1872
1459,1813,1802
1456,1838,1829
1430,1743,1947
1443,1805,1911
1489,1825,1831
1508,1802,1824
1505,1883,1919
1516,1903,1903
1557,1739,1757
1515,1719,1765
1476,1872,1978
1535,1851,1989
1489,1831,1862
1488,1840,1808
1514,1937,1871
1530,1747,1830
1410,1824,1790
1375,1792,1875
1407,1872,1942
1454,1920,1919
1609,1965,1793
1479,1945,1865
1359,1733,1903
1327,1744,1845
1413,1815,1849
1469,1934,1873
1445,1978,1965
1463,1903,1854
1450,1859,1808
1472,1937,1824
1483,1922,1919
1449,1740,1902
1454,1742,1814
1483,1879,1893
1591,2083,1965
1569,1999,1920
1517,1838,1871
1495,1816,1891
1487,1929,1999
1491,1904,1815
1535,1952,1730
1583,1993,1887
1535,1898,2096
1510,1854,1810
1535,1927,1604
1596,1967,1789
1616,2085,2001
1583,1919,1872
1573,1844,1711
1648,1917,1937
1785,2009,2096
1698,2025,2011
1568,1936,1753
1611,1898,1872
1723,1987,2114
1666,1915,1930
1623,1942,1809
1781,2142,1850
1829,2154,2007
1723,1897,1821
1463,1782,1674
1554,1975,1851
1687,2216,1975
1690,1868,1928
1662,1922,1925
1663,1775,1769
1677,1870,1799
1717,2110,1818
1730,2101,1849
1730,1925,1843
1730,1926,1936
1696,1817,1904
1712,1840,1776
1773,2000,1854
1931,2011,1902
1834,1981,1841
1627,1985,1920
1668,1985,1878
1723,1907,1925
1758,1901,2000
1764,2006,1879
1812,2003,1846
1787,1989,1885
1763,1920,1927
1750,1945,1808
1845,2039,1879
1863,2031,1840
1771,1840,1812
1781,1701,1809
1856,1849,1805
1797,2035,1946
1794,2224,1927
1785,1973,1891
1835,1870,1953
1854,1896,1953
1836,1904,1794
1815,1824,1735
1872,1904,1922
1950,1985,1906
1840,1878,1845
1895,1936,1738
1966,2123,1815
1821,2128,2021
1760,1911,1985
1785,1668,1798
1870,1872,1807
1968,2160,1855
1873,1926,1892
1818,1713,1808
1904,2022,1763
2043,1981,1861
1899,1825,1885
1979,1834,1905
1904,1949,1867
1975,2242,1920
1830,1877,1826
1807,1675,1809
1941,1936,1830
2001,2208,1945
2021,1950,1840
1838,1662,1778
1866,1769,1890
1965,1921,1936
1997,2000,1855
1968,2021,1811
1930,1949,1920
2053,2057,1903
1894,1805,1844
1852,1646,1774
1967,1935,1838
2117,2082,1911
1986,1966,1853
1857,1770,1797
1939,1835,1963
2099,2032,1968
2046,1899,1857
1884,1682,1741
2091,1877,1837
2030,2031,1897
1900,1791,1841
1994,1793,1823
2091,2032,1901
1951,1953,1938
1953,1838,1909
1975,1756,1747
2078,1994,1842
2097,2170,2042
2079,1923,1936
1983,1670,1745
2025,1653,1840
2114,2077,1914
2000,1645,1783
2003,1776,1777
2021,1904,1841
2149,1753,1837
2096,1769,1920
1941,1846,1854
2144,2026,1835
2153,1839,1875
1965,1857,1933
2015,1761,1798
1927,1782,1803
1957,1920,1937
2002,1863,1870
2047,1811,1746
2067,1769,1810
2055,1814,1918
2017,1730,1949
2037,1920,1802
2112,1974,1815
2112,2096,1926
2129,1603,1839
1998,1535,1766
2113,1710,1783
2102,1917,1911
2085,2101,1949
2035,1884,1759
2000,1745,1799
2032,1829,1895
2034,1923,1877
2081,1686,1731
2110,1742,1793
2065,1830,1895
2130,1873,1904
2160,2026,1802
2112,1910,1778
2057,1798,1968
2096,1946,1872
2058,1743,1758
2115,1790,1825
2089,1777,1884
2099,1781,1856
2175,1793,1725
2149,1883,1904
2084,1925,1917
2027,1954,1840
2062,1953,1843
2165,1811,1802
2117,1823,1872
2112,1831,1828
2063,1809,1797
2022,1986,1927
2063,1879,1857
2085,2111,1901
2069,1809,1774
2096,1635,1755
2099,1931,1887
2086,1941,1872
2066,1730,1798
2086,1761,1921
2176,1961,1949
2163,1983,1790
2138,1874,1690
2107,1957,1851
2143,1932,1972
2069,1993,1871
2102,1789,1738
2025,1807,1811
2064,1943,1920
2085,1955,1861
2112,2017,1801
2130,1925,1840
2129,1994,1936
2094,1923,1905
2089,1835,1775
2108,1908,1739
2138,2069,1854
2151,1993,1904
2148,1842,1821
2138,1958,1996
2096,2192,1905
2080,1963,1714
2119,1813,1683
2247,1841,1805
2069,1981,1957
2208,2058,1901
2071,2081,1774
2107,1915,1811
1981,1963,1898
2083,1969,1895
2131,2099,1895
2128,1982,1807
2079,2009,1903
2123,2045,1875
2129,2150,1787
2059,1967,1823
2027,1890,1879
2098,1952,1860
2079,1971,1892
2101,2126,1828
2060,2096,1825
2019,1931,1821
2058,1923,1780
2113,2131,1878
2160,2063,1865
1974,1862,1833
1995,1857,1774
2139,1985,1831
2135,2143,1954
2022,2054,1872
2041,1968,1866
2071,1961,1882
2064,2167,1857
2096,2242,1901
2045,1927,1763
1995,1872,1768
2085,1971,1890
2014,2044,1879
2102,2027,1947
2042,2080,1826
2039,1876,1807
1968,2028,1817
2064,1943,1792
2095,1962,1818
2057,2094,1931
2038,2046,1959
2038,2011,1840
2128,1968,1789
2107,1920,1831
1968,1941,1852
2005,1918,1855
2084,2007,1899
2032,2100,1922
2015,2077,1897
2013,1974,1744
2022,1926,1765
2084,2122,1914
2065,2021,1885
1984,1907,1826
1991,1902,1940
1995,1954,1927
1984,1951,1801
2001,2055,1772
2035,1949,1831
2112,2017,1918
2171,2055,1871
1934,1943,1827
1929,1883,1793
1920,1924,1887
1982,1941,1937
2022,2002,1840
2044,1968,1767
2095,1931,1847
2039,1985,1899
2035,2001,1863
2039,1990,1866
1997,2111,1913
2000,1886,1810
2005,1781,1723
1998,1891,1819
2006,1995,1949
2004,2011,1901
2016,1920,1774
2025,2082,1873
1963,1986,1968
1936,1835,1855
2007,1865,1759
2061,1958,1791
1987,1951,1847
1934,1982,1835
1935,1962,1774
1992,1998,1844
2031,2057,1973
1982,1953,1839
1921,1792,1785
1955,1904,1858
1978,1953,1947
1984,1966,1866
2069,2031,1823
2031,2112,1847
1942,2093,1954
1920,1864,1808
1941,1770,1697
1955,1811,1776
1947,1921,1930
1962,1951,1887
2009,1933,1809
1990,2037,1817
2002,2083,1918
1974,1904,1936
1922,1840,1799
1943,1924,1802
1967,2001,1870
1955,2025,1869
1975,1936,1808
1983,1842,1795
1969,1902,1872
1952,1978,1840
1968,1929,1894
1953,1878,1844
1954,1947,1845
2001,2025,1810
2011,1925,1798
1984,1908,1912
1949,1869,1906
1888,1779,1771
1956,1885,1811
1956,1895,1837
1962,1925,1887
1919,1904,1885
1943,2016,1840
1984,1957,1854
1954,1820,1857
1939,1898,1877
1977,1953,1861
1974,1879,1795
1975,1883,1828
1935,1920,1834
1978,1905,1830
2005,2005,1865
1967,1886,1925
1895,1731,1887
1913,1828,1791
1970,1987,1850
1983,1888,1917
1910,1874,1863
1984,1846,1783
1973,1860,1838
1939,2000,1955
1933,1990,1909
1938,1830,1776
1930,1824,1754
1939,1954,1917
1982,1909,1922
1941,1959,1808
1904,1856,1775
1923,1847,1871
1936,1819,1933
1946,1842,1867
1959,1926,1835
1934,1936,1888
1964,1872,1847
1979,1936,1847
1999,1818,1788
1994,1793,1872
1923,1869,1879
1878,1937,1785
1936,1823,1808
1957,1840,1902
1943,1901,1908
1907,1801,1815
1938,1867,1805
1937,1927,1927
1922,1885,1969
1943,1846,1751
1931,1862,1738
1913,1893,1862
1927,1950,1861
1969,1741,1847
2003,1840,1850
1974,1901,1920
1947,1790,1853
1869,1750,1728
1883,1834,1823
1910,1972,1927
1919,1907,1881
1905,1787,1762
1936,1843,1815
1949,1965,1942
1928,1988,1943
1923,1834,1778
1920,1813,1769
1909,1837,1875
1910,1851,1860
1935,1801,1786
1937,1808,1833
1981,1983,2082
2058,1937,1964
1945,1761,1654
1895,1707,1703
1856,1818,1890
1825,1841,1888
1882,1840,1851
1929,1862,1808
1927,1921,1909
1925,1988,1950
1920,1808,1757
1928,1757,1745
1925,1904,1873
1901,1877,1861
1908,1773,1850
1937,1790,1808
1918,1835,1856
1903,1807,1838
1932,1803,1887
1953,1821,1798
1899,1872,1833
1886,1984,1935
1945,1886,1829
1938,1872,1796
1901,1925,1914
1868,1753,1843
1881,1699,1753
1930,1806,1830
1922,1951,1859
1889,1866,1857
1893,1639,1788
1915,1788,1830
1939,2096,1951
1948,1895,1818
1890,1616,1700
1871,1743,1776
1872,1811,1914
1865,1860,1904
1839,1807,1807
1889,1829,1902
1929,2029,1835
1873,2023,1843
1873,1712,1792
1902,1755,1834
1904,1759,1850
1893,1862,1890
1873,1805,1862
1882,1841,1788
1901,1839,1830
1934,1869,1888
1917,1837,1849
1936,1955,1829
1877,1825,1858
1850,1767,1896
1906,1808,1778
1871,1863,1808
1866,1968,1890
1855,1846,1862
1885,1669,1753
1886,1845,1813
1895,1974,1933
1876,1865,1857
1872,1674,1757
1893,1808,1806
1907,1869,1922
1890,1833,1859
1936,1840,1819
1921,1923,1826
1894,1786,1953
1898,1766,1817
1815,1807,1787
1837,1879,1856
1857,1968,1858
1891,1804,1867
1905,1680,1775
1891,1677,1835
1863,1879,1891
1866,1980,1843
1871,1865,1776
1904,1899,1893
1899,1885,1927
1856,1819,1878
1881,1792,1776
1886,1883,1794
1898,1847,1843
1844,1664,1829
1863,1737,1776
1895,1808,1851
1902,1929,1932
1888,1831,1842
1890,1834,1768
1886,1746,1808
1846,1854,1936
1830,2000,1889
1918,1815,1776
1871,1909,1835
1865,1810,1953
1831,1765,1822
1854,1739,1725
1857,1861,1808
1899,1806,1907
1856,1897,1952
1856,1878,1827
1873,1841,1744
1907,1909,1862
1841,1823,1876
1892,1718,1783
1919,1815,1842
1872,1925,1941
1840,1985,1913
1835,1761,1751
1863,1714,1797
1906,1856,1904
1859,1855,1854
1866,1876,1806
1907,1905,1809
1861,1875,1895
1847,1833,1857
1871,1840,1795
1885,1916,1879
1858,1759,1905
1863,1746,1777
1873,1759,1731
1862,1873,1820
1865,1911,2059
1856,1831,1906
1902,1744,1717
1887,1841,1813
1858,1809,1930
1813,1887,1823
1857,1953,1789
1879,1759,1846
1866,1791,1879
1853,1847,1835
1873,1793,1818
1906,1866,1887
1885,2000,1968
1904,1904,1750
1818,1870,1767
1817,1786,1861
1845,1872,1920
1856,1941,1841
1869,1744,1814
1907,1921,1903
1850,1920,1901
1821,1851,1860
1858,1902,1827
1868,1922,1787
1855,1898,1842
1851,1902,1843
1872,1847,1801
1894,1931,1825
1886,1859,1910
1815,1851,1856
1827,1794,1754
1882,1815,1790
1915,1895,1883
1888,1982,1955
1826,1831,1883
1829,1800,1832
1838,1899,1825
1834,1798,1840
1900,1799,1773
1857,1799,1830
1811,1948,1910
1835,1897,1915
1878,1979,1878
1862,1856,1779
1845,1760,1897
1827,1802,1806
1854,1856,1744
1883,1924,1821
1862,1904,1903
1840,2004,1876
1831,1791,1797
1831,1605,1791
1857,1719,1846
1908,1872,1883
1882,1765,1801
1917,1906,1836
1904,2015,1940
1776,1924,1876
1747,1725,1723
1836,1783,1797
1840,1910,1919
1822,1945,1871
1840,1815,1785
1872,1741,1808
1879,1901,1917
1859,1827,1883
1846,1871,1890
1843,2037,1854
1825,1834,1859
1829,1743,1780
1866,1678,1744
1870,1827,1818
1861,1925,1917
1840,1809,1911
1915,2023,1808
1882,1740,1787
1824,1825,1903
1776,1840,1857
1861,1710,1799
1855,1810,1792
1856,2002,1931
1825,1941,1827
1805,1857,1745
1859,1849,1867
1846,1815,1938
1841,1903,1879
1904,1830,1770
1851,1840,1840
1804,1847,1898
1837,1844,1861
1901,1949,1804
1840,1934,1801
1803,1926,1927
1826,1781,1899
1854,1651,1767
1882,1825,1762
1870,1902,1906
1871,1891,1898
1828,1963,1825
1841,1932,1824
1845,1947,1845
1868,1855,1803
1855,1670,1785
1808,1763,1889
1830,1934,1968
1824,1898,1815
1840,1861,1750
1875,1936,1846
1878,1883,1911
1827,1795,1827
1831,1880,1821
1862,2093,1872
1839,1776,1872
1854,1805,1882
1847,1889,1731
1855,1872,1840
1898,1937,1936
1821,1719,1893
1811,1875,1814
1856,1924,1782
1776,1821,1849
1796,1776,1856
1839,1827,1826
1872,1862,1871
1886,1904,1873
1837,1871,1825
1819,1890,1792
1858,1820,1859
1854,1922,1901
1847,2013,1846
1853,1818,1793
1856,1758,1807
1831,1957,1889
1808,1834,1872
1840,1759,1818
1859,1850,1796
1867,2077,1915
1891,1931,1911
1842,1716,1808
1855,1849,1828
1878,1945,1858
1861,1861,1845
1811,1757,1767
1809,1863,1807
1894,2021,1936
1808,1830,1916
1783,1685,1818
1828,1807,1770
1859,1928,1861
1867,2063,1909
1861,1889,1814
1840,1693,1808
1840,1821,1943
1863,1961,1894
1911,1994,1773
1881,1766,1837
1835,1814,1862
1802,1824,1823
1825,1842,1802
1887,1840,1856
1918,1904,1879
1849,2002,1847
1787,1801,1770
1813,1849,1856
1853,1901,1911
1850,1824,1884
1868,1869,1818
1857,1804,1819
1866,1883,1879
1843,1972,1873
1841,1726,1781
1856,1781,1792
1903,1885,1909
1877,1975,1905
1872,1909,1875
1813,1805,1818
1808,1889,1899
1861,1936,1858
1873,2080,1782
1917,1792,1878
1806,1743,1866
1783,1818,1808
1835,1766,1779
1883,1853,1821
1854,1925,1904
1856,2029,1924
1862,1998,1840
1841,1792,1765
1862,1776,1862
1809,1808,1851
1803,1788,1776
1855,1889,1857
1866,1856,1917
1840,1885,1887
1909,1957,1762
1914,1842,1803
1809,1856,1905
1798,1881,1929
1812,1819,1766
1853,1859,1801
1855,1869,1906
1874,1872,1840
1872,1850,1789
1865,1947,1810
1854,1885,1908
1861,1904,1907
1852,1849,1799
1847,1794,1781
1848,1914,1895
1875,1909,1897
1887,1759,1814
1856,1859,1840
1810,1951,1935
1826,2064,1936
1850,1895,1787
1857,1774,1813
1881,1819,1930
1849,1793,1853
1872,1808,1751
1941,2042,1896
1859,2007,1940
1808,1788,1834
1840,1751,1763
1862,1849,1805
1867,1951,1909
1862,1936,1987
1879,1875,1861
1899,1862,1789
1885,1894,1847
1824,1898,1900
1823,1777,1830
1846,1811,1848
1858,1909,1890
1904,1910,1861
1897,1928,1873
1873,1887,1882
1920,1861,1935
1836,1906,1902
1774,1791,1681
1850,1761,1745
1887,1871,1895
1846,1872,1941
1872,1874,1818
1878,1865,1770
1847,1967,1903
1870,2065,2092
1907,1875,1830
1903,1793,1699
1817,1744,1746
1775,1753,1843
1840,1783,1870
1866,1854,1907
1868,1925,1952
1853,1967,1841
1909,2037,1823
1892,1837,1877
1825,1731,1946
1831,1808,1781
1889,1950,1776
1945,1857,1810
1855,1904,1870
1818,1919,1861
1823,1901,1802
1856,1873,1891
1865,1776,1947
1843,1823,1817
1839,1854,1793
1872,1791,1838
1852,1919,2037
1819,1881,1837
1853,1799,1712
1905,1905,1863
1899,2037,1918
1829,1826,1826
1825,1728,1761
1866,1885,1879
1879,1986,1969
1895,1825,1799
1971,1850,1744
1838,1808,1804
1747,1839,1901
1761,1903,1905
1834,1920,1829
1866,1860,1775
1839,1781,1877
1840,1845,1747
1828,1923,1764
1837,1879,1830
1856,1892,1913
1862,1753,1903
1861,1856,1808
1887,1847,1787
1897,1858,1825
1850,1831,1840
1773,1798,1769
1833,1935,1878
1866,1968,1940
1835,1791,1903
1833,1712,1737
1868,1822,1722
1878,2059,1892
