1913,1883,1854
1871,1945,1883
1881,1931,1830
1899,1857,1813
1871,1915,1856
1855,1914,1874
1872,1825,1827
1904,1839,1826
1909,1917,1898
1869,1847,1887
1872,1872,1830
1879,1856,1808
1869,1875,1858
1866,1867,1887
1873,1851,1821
1885,1831,1793
1885,1891,1862
1868,1895,1883
1872,1869,1835
1893,1853,1808
1888,1870,1859
1857,1872,1874
1872,1832,1830
1886,1855,1801
1885,1864,1865
1872,1885,1889
1882,1869,1843
1903,1869,1826
1867,1840,1843
1847,1870,1863
1869,1840,1818
1891,1840,1811
1885,1882,1867
1872,1883,1894
1886,1872,1845
1905,1872,1826
1863,1868,1847
1840,1858,1866
1862,1844,1814
1891,1856,1803
1894,1867,1866
1873,1892,1895
1882,1847,1835
1904,1856,1810
1879,1882,1856
1865,1883,1877
1872,1850,1821
1887,1850,1802
1877,1904,1863
1871,1868,1883
1872,1877,1830
1883,1819,1807
1875,1902,1865
1861,1903,1877
1869,1840,1811
1887,1846,1802
1885,1857,1871
1869,1836,1889
1891,1853,1842
1900,1861,1807
1881,1902,1857
1873,1897,1885
1876,1867,1833
1895,1853,1803
1886,1885,1850
1866,1853,1872
1887,1873,1835
1891,1872,1808
1872,1895,1854
1863,1827,1873
1869,1872,1827
1888,1861,1814
1904,1893,1874
1879,1903,1891
1888,1862,1832
1902,1863,1817
1879,1882,1867
1865,1872,1878
1872,1847,1817
1916,1872,1819
1905,1897,1872
1858,1865,1865
1867,1967,1809
1890,1872,1808
1904,1887,1874
1878,1911,1902
1881,1989,1838
1907,1890,1818
1889,1872,1871
1872,1907,1889
1885,1857,1836
1893,1949,1808
1889,1886,1872
1884,1779,1904
1870,1856,1828
1895,1856,1807
1901,1897,1872
1879,1902,1898
1872,1857,1837
1908,1870,1823
1882,1876,1857
1875,1874,1894
1885,1867,1837
1855,1818,1765
1874,1830,1850
1880,1841,1882
1889,1839,1836
1909,1871,1822
1902,1889,1871
1872,1855,1888
1879,1907,1837
1904,1902,1810
1895,1943,1872
1874,1859,1898
1879,1921,1838
1901,1907,1819
1907,1925,1886
1898,1970,1906
1877,1858,1819
1883,1842,1787
1898,1875,1862
1893,1888,1904
1903,1856,1859
1877,1808,1789
1872,1858,1840
1878,1856,1901
1882,1861,1829
1870,1835,1785
1885,1868,1859
1875,1915,1899
1883,1835,1842
1905,1857,1827
1890,1879,1871
1869,1889,1891
1875,1935,1838
1895,1859,1812
1902,1889,1875
1882,1898,1903
1875,1763,1850
1883,1866,1808
1875,1873,1857
1871,1872,1895
1870,1851,1831
1897,1854,1813
1900,1904,1882
1905,1955,1936
1899,1875,1861
1862,1821,1786
1847,1818,1827
1856,1882,1882
1877,1825,1840
1904,1841,1823
1890,1877,1873
1863,1877,1886
1868,1802,1825
1879,1829,1808
1883,1874,1873
1870,1887,1898
1868,1833,1840
1872,1845,1808
1871,1875,1872
1856,1876,1894
1869,1851,1836
1889,1851,1815
1886,1872,1872
1862,1885,1887
1871,1853,1825
1895,1866,1828
1893,1889,1877
1869,1882,1899
1860,1840,1821
1867,1827,1789
1853,1852,1840
1858,1867,1881
1872,1856,1840
1877,1846,1809
1873,1872,1856
1871,1872,1893
1873,1858,1841
1885,1850,1810
1878,1877,1862
1856,1873,1873
1856,1841,1817
1881,1849,1808
1887,1883,1872
1873,1883,1890
1878,1870,1838
1894,1851,1817
1867,1859,1852
1858,1868,1883
1874,1859,1842
1889,1857,1811
1876,1874,1859
1856,1867,1871
1861,1849,1820
1887,1851,1817
1872,1886,1858
1855,1872,1883
1872,1857,1825
1895,1856,1811
1890,1889,1867
1865,1883,1887
1863,1853,1840
1889,1855,1820
1873,1873,1866
1870,1883,1899
1888,1877,1854
1879,1846,1811
1878,1872,1872
1847,1872,1889
1854,1841,1827
1875,1840,1803
1875,1872,1872
1851,1879,1894
1843,1842,1819
1869,1843,1803
1879,1892,1876
1853,1883,1899
1863,1855,1838
1871,1840,1795
1867,1872,1851
1847,1872,1879
1861,1848,1824
1881,1851,1808
1874,1891,1871
1855,1889,1884
1854,1853,1824
1898,1872,1826
1876,1878,1866
1840,1861,1871
1843,1843,1818
1867,1842,1793
1870,1872,1852
1853,1878,1887
1873,1867,1850
1888,1858,1813
1847,1859,1847
1840,1872,1872
1853,1840,1823
1873,1854,1808
1882,1889,1872
1849,1871,1887
1842,1833,1809
1872,1840,1797
1887,1886,1875
1862,1882,1898
1863,1855,1831
1875,1864,1808
1890,1893,1875
1867,1895,1904
1849,1834,1812
1855,1822,1785
1868,1879,1863
1857,1874,1891
1857,1841,1823
1872,1840,1808
1875,1878,1875
1863,1883,1903
1863,1856,1843
1895,1865,1822
1876,1879,1869
1849,1879,1889
1858,1849,1825
1890,1860,1821
1904,1909,1894
1845,1873,1883
1837,1827,1810
1870,1827,1793
1887,1883,1871
1887,1907,1921
1857,1846,1820
1865,1837,1790
1867,1865,1844
1851,1878,1885
1865,1857,1831
1879,1849,1809
1887,1890,1872
1850,1877,1890
1858,1854,1839
1872,1855,1806
1872,1883,1862
1856,1898,1895
1872,1874,1843
1872,1854,1799
1872,1881,1861
1843,1872,1890
1838,1833,1814
1860,1851,1798
1889,1906,1881
1874,1903,1904
1851,1843,1821
1858,1825,1785
1869,1867,1847
1849,1878,1873
1845,1857,1819
1872,1853,1799
1877,1886,1859
1863,1890,1890
1867,1861,1834
1878,1850,1799
1882,1885,1857
1869,1907,1901
1872,1883,1843
1892,1873,1825
1898,1905,1877
1850,1890,1879
1838,1854,1808
1862,1854,1809
1872,1885,1857
1873,1904,1902
1885,1879,1850
1872,1854,1774
1870,1877,1837
1847,1876,1885
1856,1849,1831
1871,1843,1810
1865,1883,1884
1853,1883,1920
1850,1855,1813
1872,1857,1836
1888,1893,1835
1877,1903,1939
1861,1857,1821
1871,1840,1763
1867,1859,1887
1850,1863,1899
1857,1853,1809
1888,1855,1824
1883,1872,1855
1863,1882,1899
1862,1855,1840
1891,1856,1810
1893,1882,1886
1852,1866,1907
1850,1840,1828
1872,1829,1818
1879,1876,1856
1867,1890,1867
1877,1872,1897
1899,1859,1803
1872,1863,1869
1858,1876,1875
1883,1867,1838
1887,1853,1807
1869,1859,1850
1852,1874,1897
1865,1857,1872
1899,1863,1819
1871,1883,1843
1846,1872,1902
1851,1842,1815
1887,1849,1808
1893,1885,1901
1885,1914,1936
1869,1865,1873
1878,1854,1795
1879,1891,1872
1858,1888,1891
1872,1863,1851
1892,1857,1815
1881,1885,1815
1869,1899,1860
1863,1866,1832
1869,1840,1803
1882,1881,1872
1845,1875,1881
1850,1841,1817
1883,1854,1815
1872,1881,1854
1856,1881,1922
1855,1842,1862
1866,1849,1775
1875,1871,1872
1859,1872,1871
1873,1843,1819
1898,1857,1797
1891,1876,1869
1848,1859,1893
1856,1845,1818
1874,1840,1804
1870,1865,1867
1858,1883,1895
1856,1853,1831
1866,1847,1792
1871,1888,1867
1861,1891,1918
1846,1853,1840
1872,1863,1789
1878,1887,1854
1870,1886,1899
1867,1869,1846
1883,1863,1818
1895,1901,1883
1861,1892,1900
1856,1857,1829
1870,1846,1798
1888,1901,1808
1869,1891,1904
1845,1850,1851
1877,1854,1808
1887,1889,1888
1845,1887,1843
1856,1857,1808
1901,1872,1867
1882,1881,1877
1837,1863,1868
1840,1841,1824
1878,1842,1808
1890,1887,1876
1869,1889,1887
1889,1878,1841
1892,1858,1810
1867,1861,1859
1850,1871,1884
1857,1851,1825
1879,1853,1792
1879,1876,1857
1871,1891,1905
1887,1873,1915
1865,1835,1790
1850,1851,1837
1842,1871,1899
1866,1856,1808
1887,1855,1846
1889,1883,1871
1870,1891,1898
1874,1855,1819
1889,1850,1776
1877,1871,1903
1856,1883,1904
1862,1854,1824
1874,1847,1805
1888,1885,1894
1867,1898,1872
1856,1856,1824
1870,1840,1728
1877,1871,1833
1886,1905,1893
1861,1839,1862
1855,1823,1794
1867,1866,1861
1873,1901,1900
1877,1870,1849
1875,1853,1851
1858,1867,1786
1850,1874,1875
1858,1843,1826
1879,1840,1802
1879,1878,1862
1867,1889,1902
1868,1854,1817
1882,1840,1810
1894,1885,1905
1879,1889,1808
1867,1854,1840
1875,1850,1811
1878,1879,1867
1869,1898,1897
1890,1891,1872
1890,1862,1840
1850,1861,1839
1844,1877,1883
1870,1869,1837
1873,1846,1792
1876,1878,1901
1860,1892,1902
1854,1855,1838
1869,1839,1795
1872,1888,1851
1868,1903,1937
1846,1844,1826
1862,1834,1825
1872,1877,1909
1867,1889,1923
1870,1856,1829
1874,1845,1808
1872,1873,1872
1859,1877,1901
1875,1871,1853
1886,1857,1814
1875,1879,1855
1850,1872,1873
1849,1842,1821
1876,1850,1811
1872,1872,1861
1854,1871,1888
1860,1842,1829
1879,1848,1809
1902,1902,1893
1869,1901,1904
1839,1837,1814
1859,1838,1791
1864,1870,1849
1851,1875,1893
1863,1859,1840
1885,1851,1803
1881,1882,1867
1859,1877,1877
1872,1859,1839
1875,1835,1795
1860,1867,1840
1872,1888,1886
1855,1851,1840
1893,1829,1792
1886,1871,1857
1872,1879,1894
1847,1856,1840
1857,1853,1802
1837,1889,1865
1829,1887,1891
1829,1854,1840
1906,1854,1808
1834,1888,1862
1890,1887,1887
1873,1872,1843
1900,1856,1813
1827,1875,1860
1854,1889,1879
1904,1856,1826
1850,1851,1807
1884,1898,1869
1865,1918,1913
1851,1861,1840
1856,1840,1794
1847,1856,1839
1840,1870,1877
1855,1856,1831
1915,1853,1808
1864,1899,1871
1844,1891,1889
1915,1851,1829
1906,1857,1810
1879,1890,1866
1857,1883,1890
1872,1864,1839
1926,1867,1809
1830,1878,1847
1856,1885,1884
1862,1855,1827
1872,1853,1805
1866,1878,1854
1873,1904,1905
1845,1862,1840
1872,1825,1786
1879,1856,1828
1847,1886,1887
1872,1883,1853
1868,1851,1796
1869,1878,1857
1851,1882,1873
1856,1859,1833
1873,1854,1807
1846,1883,1871
1869,1893,1903
1873,1857,1837
1893,1841,1806
1836,1870,1849
1856,1875,1890
1872,1868,1846
1920,1878,1826
1883,1935,1904
1837,1904,1909
1782,1821,1792
1852,1808,1760
1877,1871,1855
1877,1882,1889
1833,1867,1846
1878,1872,1811
1871,1872,1851
1836,1895,1897
1894,1872,1856
1830,1846,1807
1842,1872,1847
1855,1885,1879
1870,1859,1831
1888,1866,1810
1905,1920,1887
1848,1904,1887
1810,1831,1798
1839,1825,1776
1863,1871,1856
1852,1883,1885
1850,1854,1830
1868,1845,1806
1861,1872,1853
1847,1875,1890
1840,1854,1845
1875,1845,1811
1781,1869,1863
1831,1873,1890
1836,1846,1831
1882,1851,1815
1870,1886,1872
1875,1907,1909
1841,1856,1840
1840,1814,1787
1850,1858,1856
1886,1874,1893
1840,1840,1820
1851,1835,1795
1854,1870,1855
1840,1872,1887
1850,1847,1830
1875,1856,1809
1875,1884,1875
1845,1878,1898
1857,1862,1839
1863,1847,1802
1885,1872,1862
1818,1879,1902
1845,1863,1840
1893,1878,1835
1873,1911,1878
1776,1841,1859
1775,1811,1803
1907,1830,1803
1769,1872,1868
1845,1884,1902
1873,1870,1856
1846,1859,1823
1822,1864,1840
1710,1851,1854
1840,1840,1834
1853,1845,1814
1839,1878,1865
1904,1882,1893
1823,1854,1839
1840,1856,1805
1891,1891,1862
1861,1904,1909
1837,1873,1856
1889,1873,1827
1854,1872,1850
1857,1876,1882
1849,1845,1829
1856,1843,1802
1872,1887,1863
1866,1903,1903
1841,1870,1839
1872,1854,1808
1861,1872,1852
1866,1895,1904
1855,1863,1841
1863,1856,1807
1863,1881,1855
1873,1893,1899
1841,1861,1839
1873,1854,1812
1878,1893,1873
1866,1905,1903
1861,1866,1840
1911,1844,1789
1841,1865,1845
1840,1866,1872
1862,1857,1834
1867,1859,1808
1882,1899,1859
1875,1904,1904
1862,1859,1840
1872,1855,1809
1797,1883,1872
1879,1914,1925
1877,1874,1851
1885,1871,1807
1872,1890,1855
1852,1885,1882
1866,1871,1839
1899,1856,1812
1873,1872,1850
1851,1879,1886
1863,1866,1850
1879,1858,1818
1870,1869,1856
1857,1873,1878
1865,1865,1842
1898,1859,1826
1904,1894,1874
1871,1897,1900
1882,1873,1856
1903,1874,1825
1895,1901,1869
1863,1890,1890
1872,1869,1853
1900,1866,1819
1872,1866,1847
1857,1884,1899
1867,1861,1850
1874,1861,1813
1878,1881,1873
1841,1858,1875
1856,1851,1839
1881,1854,1808
1872,1878,1855
1864,1891,1894
1862,1855,1839
1872,1840,1803
1867,1868,1857
1862,1881,1899
1867,1856,1843
1883,1848,1806
1883,1879,1867
1860,1895,1905
1871,1872,1842
1869,1833,1798
1867,1871,1858
1858,1879,1899
1854,1842,1839
1891,1846,1825
1904,1897,1899
1841,1870,1892
1840,1831,1823
1872,1833,1801
1874,1872,1867
1863,1885,1904
1869,1861,1853
1872,1850,1805
1874,1872,1859
1857,1889,1904
1857,1856,1840
1869,1851,1803
1885,1886,1872
1863,1904,1904
1849,1854,1834
1873,1840,1795
1881,1877,1856
1856,1884,1889
1871,1863,1843
1907,1889,1843
1872,1878,1863
1822,1857,1863
1840,1849,1828
1877,1845,1808
1895,1895,1881
1855,1886,1887
1855,1853,1825
1862,1850,1795
1874,1885,1858
1861,1889,1891
1857,1866,1841
1873,1853,1808
1877,1888,1871
1867,1904,1915
1870,1873,1863
1863,1845,1803
1877,1891,1869
1869,1903,1904
1853,1854,1829
1872,1858,1802
1894,1904,1878
1853,1875,1875
1839,1845,1823
1873,1850,1806
1899,1899,1872
1875,1904,1904
1859,1856,1838
1872,1842,1797
1886,1885,1868
1856,1883,1889
1855,1856,1840
1874,1861,1808
1882,1894,1869
1859,1891,1892
1846,1846,1828
1869,1840,1801
1877,1879,1856
1859,1882,1883
1855,1849,1840
1874,1846,1808
1874,1892,1870
1856,1903,1894
1845,1842,1826
1865,1847,1805
1875,1884,1866
1850,1889,1891
1856,1861,1840
1883,1853,1808
1889,1899,1872
1845,1873,1879
1843,1851,1827
1878,1851,1810
1889,1892,1872
1879,1903,1906
1876,1861,1843
1863,1829,1789
1873,1859,1846
1866,1878,1895
1885,1878,1853
1911,1877,1831
1872,1861,1843
1845,1854,1862
1855,1846,1826
1875,1851,1808
1881,1878,1861
1862,1886,1891
1877,1869,1853
1886,1847,1811
1878,1869,1856
1866,1885,1893
1872,1861,1837
1891,1878,1821
1898,1903,1881
1862,1879,1893
1840,1834,1808
1872,1837,1789
1881,1867,1859
1867,1903,1893
1871,1859,1838
1878,1847,1808
1889,1881,1873
1879,1887,1905
1881,1873,1865
1905,1867,1839
1878,1867,1860
1862,1887,1891
1873,1865,1851
1887,1851,1812
1879,1845,1858
1859,1854,1886
1864,1813,1841
1872,1838,1806
1887,1917,1871
1865,1866,1901
1859,1894,1842
1878,1922,1809
1904,1902,1887
1856,1842,1895
1825,1819,1810
1857,1840,1787
1873,1899,1862
1862,1900,1899
1860,1872,1856
1889,1893,1826
1887,1868,1877
1844,1882,1886
1842,1803,1825
1865,1828,1806
1872,1859,1859
1858,1875,1894
1867,1803,1841
1881,1840,1814
1887,1881,1873
1866,1895,1901
1866,1856,1855
1887,1871,1813
1881,1856,1863
1859,1840,1895
1855,1807,1840
1878,1793,1811
1888,1915,1871
1871,1895,1904
1861,1883,1840
1874,1874,1808
1881,1888,1862
1885,1919,1914
1869,1871,1851
1872,1851,1802
1902,1894,1872
1849,1901,1877
1841,1808,1829
1873,1879,1809
1904,1888,1878
1870,1866,1911
1858,1853,1843
1872,1855,1802
1878,1913,1867
1871,1926,1906
1863,1855,1845
1873,1849,1799
1887,1905,1854
1883,1915,1900
1891,1921,1858
1886,1808,1805
1872,1854,1842
1859,1911,1892
1881,1856,1861
1916,1899,1827
1891,1865,1862
1863,1853,1883
1863,1887,1827
1883,1840,1801
1897,1910,1872
1872,1925,1894
1878,1879,1853
1904,1841,1819
1875,1869,1856
1856,1872,1883
1872,1856,1836
1877,1808,1794
1882,1874,1854
1863,1894,1897
1873,1869,1847
1893,1861,1805
1887,1885,1857
1867,1889,1889
1888,1898,1866
1891,1867,1815
1866,1863,1840
1849,1873,1871
1871,1867,1835
1905,1888,1823
1883,1876,1858
1859,1868,1877
1866,1808,1833
1877,1794,1808
1891,1920,1869
1873,1894,1903
1875,1853,1835
1888,1953,1798
1883,1979,1861
1871,1890,1904
1888,1801,1857
1898,1865,1809
1898,1892,1866
1887,1958,1909
1877,1872,1843
1882,1847,1801
1881,1860,1850
1845,1865,1876
1856,1841,1834
1887,1857,1820
1897,1883,1872
1872,1889,1891
1870,1856,1837
1892,1853,1808
1898,1828,1873
1878,1890,1904
1872,1845,1840
1883,1813,1808
1889,1910,1872
1875,1890,1904
1888,1878,1843
1904,1866,1825
1875,1871,1847
1849,1840,1871
1863,1864,1835
1899,1882,1819
1906,1825,1872
1874,1875,1888
1863,1809,1831
1865,1831,1781
1873,1855,1846
1869,1897,1888
1851,1807,1815
1878,1836,1798
1886,1867,1863
1869,1877,1904
1867,1890,1851
1890,1854,1811
1890,1877,1859
1872,1891,1897
1870,1859,1840
1887,1841,1811
1923,1920,1903
1869,1888,1898
1840,1871,1821
1871,1831,1806
1872,1871,1872
1868,1887,1905
1872,1815,1851
1872,1845,1803
1871,1858,1845
1865,1890,1904
1872,1868,1855
1889,1874,1819
1879,1872,1869
1860,1845,1884
1866,1939,1843
1884,1914,1819
1883,1866,1863
1859,1898,1895
1866,1872,1849
1889,1739,1808
1882,1871,1855
1875,1893,1904
1872,1873,1855
1871,1846,1797
1871,1859,1841
1861,1890,1899
1867,1854,1840
1887,1845,1810
1883,1883,1859
1861,1877,1888
1867,1857,1839
1887,1851,1812
1888,1888,1867
1878,1898,1907
1853,1840,1826
1867,1840,1791
1874,1873,1851
1863,1889,1898
1861,1863,1851
1883,1859,1808
1899,1905,1879
1871,1892,1891
1856,1856,1827
1881,1847,1800
1891,1891,1873
1869,1894,1898
1872,1874,1856
1862,1856,1801
1871,1879,1858
1869,1904,1905
1866,1863,1849
1875,1851,1807
1875,1876,1856
1863,1887,1889
1872,1872,1856
1899,1868,1833
1878,1874,1867
1840,1872,1879
1857,1867,1847
1885,1862,1816
1888,1895,1875
1860,1877,1895
1849,1851,1839
1872,1845,1806
1859,1863,1853
1856,1877,1891
1862,1860,1851
1873,1841,1808
1872,1862,1857
1859,1888,1894
1872,1857,1842
1876,1851,1796
1879,1881,1862
1861,1885,1895
1857,1845,1835
1868,1842,1804
1887,1886,1874
1861,1877,1897
1853,1841,1826
1887,1845,1805
1898,1893,1875
1873,1897,1908
1834,1818,1810
1858,1810,1783
1872,1872,1855
1863,1883,1903
1849,1847,1829
1859,1827,1791
1875,1863,1854
1866,1884,1904
1862,1850,1844
1876,1843,1808
1897,1883,1872
1870,1895,1891
1860,1861,1834
1877,1855,1798
1889,1885,1856
1871,1888,1899
1872,1863,1841
1883,1853,1809
1888,1873,1863
1875,1889,1895
1878,1871,1841
1886,1846,1806
1884,1888,1866
1868,1895,1892
1873,1873,1849
1876,1840,1803
1872,1873,1858
1863,1882,1887
1842,1825,1812
1854,1822,1787
1872,1872,1863
1856,1872,1887
1857,1856,1839
1871,1841,1802
1868,1871,1850
1851,1878,1879
1840,1844,1835
1874,1841,1808
1869,1872,1858
1858,1889,1892
1851,1857,1846
1872,1836,1801
1872,1871,1858
1871,1904,1904
1872,1885,1858
1867,1840,1798
1847,1855,1840
1843,1859,1879
1855,1842,1840
1873,1853,1808
1872,1872,1858
1856,1883,1895
1846,1856,1840
1865,1853,1801
1885,1893,1866
1861,1883,1889
1856,1845,1830
1872,1842,1793
1881,1888,1861
1873,1904,1903
1865,1863,1841
1871,1850,1806
1872,1879,1859
1857,1883,1899
1853,1851,1841
1870,1851,1808
1893,1891,1873
1877,1905,1910
1841,1851,1829
1844,1833,1782
1869,1866,1849
1861,1878,1894
1869,1867,1853
1887,1858,1814
1867,1863,1845
1840,1869,1877
1849,1854,1840
1875,1851,1812
1872,1876,1867
1856,1882,1895
1856,1847,1838
1867,1840,1803
1877,1879,1859
1849,1877,1891
1853,1850,1840
1872,1850,1808
1883,1887,1879
1878,1904,1919
1876,1879,1858
1863,1831,1791
1850,1846,1835
1854,1882,1887
1862,1853,1850
1871,1838,1790
1879,1872,1857
1865,1891,1902
1871,1863,1851
1882,1846,1799
1877,1878,1850
1847,1875,1870
1854,1853,1847
1886,1853,1774
1872,1863,1821
1845,1874,1862
1858,1854,1849
1885,1855,1799
1896,1897,1847
1875,1918,1921
1830,1833,1813
1847,1822,1777
1877,1886,1853
1869,1895,1924
1854,1854,1861
1869,1842,1833
1889,1898,1920
1850,1885,1870
1847,1845,1829
1872,1840,1793
1880,1883,1861
1858,1887,1898
1850,1845,1829
1887,1856,1815
1885,1877,1887
1853,1882,1892
1852,1854,1831
1866,1834,1781
1867,1871,1873
1844,1879,1886
1857,1865,1847
1853,1841,1791
1862,1870,1857
1850,1887,1875
1866,1877,1872
1866,1838,1803
1856,1861,1841
1846,1872,1886
1855,1850,1840
1886,1843,1808
1879,1873,1855
1856,1878,1889
1866,1858,1844
1875,1851,1805
1883,1902,1866
1842,1872,1849
1838,1841,1819
1866,1845,1799
1856,1870,1845
1839,1869,1856
1854,1854,1851
1889,1857,1791
1873,1872,1840
1854,1886,1919
1862,1856,1887
1884,1842,1840
1897,1884,1872
1883,1914,1902
1867,1873,1855
1870,1842,1759
1853,1852,1787
1840,1863,1867
1858,1855,1862
1888,1854,1801
1882,1872,1865
1856,1870,1861
1851,1845,1856
1887,1857,1849
1904,1903,1872
1841,1871,1840
1846,1840,1829
1872,1830,1788
1876,1866,1859
1854,1878,1895
1859,1853,1852
1886,1850,1814
1879,1877,1857
1851,1879,1886
1855,1853,1833
1875,1847,1808
1877,1890,1866
1870,1910,1904
1854,1853,1840
1854,1811,1755
1856,1851,1826
1861,1886,1857
1873,1872,1820
1863,1835,1779
1851,1863,1839
1830,1872,1859
1840,1841,1821
1872,1842,1798
1872,1872,1936
1846,1888,1872
1856,1867,1842
1866,1847,1801
1867,1868,1856
1838,1859,1872
1840,1846,1835
1867,1850,1795
1869,1871,1842
1849,1879,1879
1865,1866,1847
1872,1845,1845
1876,1886,1843
1871,1907,1904
1858,1865,1855
1826,1807,1733
1838,1839,1733
1840,1871,1876
1859,1853,1803
1861,1835,1765
1857,1869,1851
1865,1887,1877
1856,1866,1856
1843,1830,1779
1850,1867,1856
1841,1875,1919
1854,1855,1885
1860,1840,1806
1870,1877,1901
1853,1882,1870
1858,1863,1809
1872,1856,1808
1901,1904,1885
1855,1890,1801
1841,1845,1833
1843,1813,1781
1847,1861,1829
1851,1882,1939
1861,1869,1856
1890,1872,1803
1878,1893,1896
1829,1880,1872
1819,1839,1805
1857,1843,1791
1872,1874,1871
1854,1895,1918
1853,1872,1883
1872,1858,1853
1872,1887,1873
1865,1904,1857
1862,1867,1879
1872,1855,1778
1872,1879,1826
1862,1903,1935
1875,1894,1852
1872,1854,1798
1873,1883,1827
1863,1891,1950
1845,1843,1725
1856,1828,1767
1883,1888,1866
1856,1885,1904
1840,1844,1808
1870,1846,1721
1872,1875,1853
1867,1891,1904
1855,1870,1835
1861,1854,1799
1859,1878,1853
1855,1887,1894
1856,1871,1852
1879,1872,1826
1900,1917,1897
1830,1866,1872
1831,1838,1821
1871,1852,1803
1883,1883,1863
1857,1885,1887
1856,1861,1838
1872,1857,1808
1871,1872,1861
1849,1876,1891
1840,1842,1826
1856,1831,1786
1869,1863,1846
1855,1891,1904
1862,1867,1860
1867,1842,1799
1874,1883,1858
1871,1911,1904
1858,1861,1830
1871,1855,1799
1867,1878,1854
1840,1875,1879
1860,1861,1839
1895,1865,1811
1920,1894,1872
1867,1903,1906
1847,1865,1844
1855,1850,1792
1887,1881,1867
1901,1887,1904
1908,1872,1853
1839,1854,1807
1828,1862,1840
1887,1875,1887
1888,1864,1846
1888,1856,1830
1856,1889,1879
1815,1872,1893
1840,1853,1842
1909,1854,1817
1875,1889,1875
1830,1893,1905
1822,1853,1841
1894,1840,1808
1884,1889,1870
1873,1895,1909
1857,1856,1850
1872,1837,1812
1869,1879,1859
1861,1893,1904
1862,1856,1845
1891,1850,1811
1876,1891,1872
1873,1894,1898
1845,1873,1851
1885,1856,1814
1919,1890,1879
1852,1895,1904
1871,1840,1826
1870,1835,1797
1887,1872,1855
1869,1903,1905
1870,1872,1854
1902,1873,1826
1872,1872,1856
1877,1872,1873
1811,1850,1829
1879,1845,1807
1901,1886,1871
1863,1894,1898
1863,1867,1841
1883,1850,1803
1887,1886,1856
1872,1898,1904
1872,1866,1855
1863,1851,1810
1873,1889,1860
1874,1904,1904
1929,1854,1837
1869,1836,1794
1950,1877,1865
1873,1882,1887
1871,1849,1831
1886,1862,1803
1910,1881,1858
1875,1889,1897
1856,1847,1827
1846,1847,1798
1887,1881,1858
1823,1891,1889
1824,1854,1833
1869,1853,1810
1847,1892,1872
1853,1870,1872
1825,1840,1814
1877,1849,1802
1886,1899,1875
1910,1901,1903
1844,1847,1822
1869,1836,1778
1873,1872,1845
1863,1878,1883
1872,1856,1843
1874,1840,1794
1867,1863,1835
1858,1878,1872
1861,1858,1835
1883,1853,1807
1886,1883,1866
1887,1893,1901
1869,1855,1837
1914,1845,1793
1923,1877,1853
1815,1887,1885
1858,1861,1843
1883,1840,1806
1884,1871,1866
1917,1874,1907
1871,1872,1861
1899,1866,1823
1885,1871,1857
1840,1855,1870
1851,1840,1823
1895,1865,1819
1875,1874,1853
1841,1860,1866
1863,1840,1831
1881,1840,1808
1889,1877,1863
1871,1885,1891
1831,1857,1835
1920,1855,1818
1856,1877,1861
1853,1874,1883
1847,1859,1837
1857,1855,1808
1892,1884,1863
1884,1906,1914
1849,1859,1845
1891,1835,1792
1930,1859,1833
1847,1872,1872
1877,1865,1846
1935,1845,1811
1872,1870,1851
1872,1873,1875
1827,1845,1829
1913,1841,1799
1877,1882,1855
1866,1889,1890
1887,1867,1847
1865,1833,1782
1867,1856,1840
1853,1877,1887
1878,1854,1840
1794,1856,1808
1872,1881,1863
1840,1904,1903
1856,1862,1841
1870,1831,1791
1884,1877,1854
1871,1877,1887
1862,1856,1838
1883,1847,1806
1887,1889,1858
1872,1898,1885
1875,1872,1846
1875,1866,1805
1885,1889,1856
1843,1898,1887
1859,1863,1830
1892,1867,1811
1871,1904,1872
1872,1873,1875
1821,1854,1819
1855,1849,1807
1861,1871,1850
1790,1859,1873
1851,1849,1831
1907,1885,1833
1902,1887,1863
1904,1883,1881
1751,1849,1821
1897,1851,1801
1886,1878,1857
1885,1899,1901
1863,1861,1847
1886,1853,1814
1903,1901,1875
1869,1887,1891
1871,1859,1840
1891,1861,1819
1894,1903,1869
1887,1904,1910
1867,1858,1844
1885,1847,1806
1889,1885,1865
1885,1904,1907
1907,1904,1877
1888,1859,1808
1877,1872,1850
1861,1886,1887
1867,1852,1829
1882,1842,1799
1899,1888,1872
1881,1895,1904
1872,1856,1844
1900,1858,1817
1903,1887,1863
1872,1895,1889
1885,1872,1841
1911,1862,1811
1889,1875,1853
1875,1887,1888
1878,1866,1840
1903,1856,1808
1911,1898,1872
1904,1915,1906
1881,1869,1834
1870,1822,1775
1872,1855,1840
1862,1886,1887
1883,1872,1846
1898,1869,1809
1893,1885,1853
1878,1884,1887
1868,1856,1836
1903,1853,1810
1886,1871,1846
1868,1884,1882
1883,1873,1853
1892,1854,1806
1881,1875,1845
1872,1894,1889
1881,1872,1853
1893,1857,1808
1883,1883,1869
1873,1899,1906
1883,1869,1856
1879,1845,1808
1872,1857,1845
1863,1871,1882
1873,1850,1845
1882,1842,1807
1882,1875,1862
1861,1872,1887
1870,1851,1845
1901,1856,1821
1882,1873,1861
1862,1882,1895
1862,1853,1843
1878,1854,1809
1887,1881,1867
1856,1873,1892
1867,1849,1840
1883,1849,1813
1886,1872,1867
1871,1884,1903
1867,1865,1845
1902,1885,1834
1910,1914,1904
1841,1866,1873
1838,1839,1807
1858,1838,1782
1873,1872,1844
1847,1882,1884
1854,1854,1835
1884,1854,1815
1897,1878,1881
1861,1872,1895
1867,1850,1843
1875,1847,1806
1882,1883,1866
1872,1899,1905
1866,1863,1847
1882,1859,1809
1886,1883,1871
1869,1899,1904
1872,1858,1839
1883,1846,1804
1897,1887,1872
1886,1907,1909
1867,1859,1841
1875,1840,1799
1866,1861,1842
1845,1872,1872
1865,1853,1833
1873,1844,1789
1878,1878,1849
1881,1904,1898
1866,1844,1827
1872,1833,1791
1889,1873,1867
1878,1892,1904
1863,1859,1840
1879,1855,1808
1904,1901,1875
1866,1889,1888
1859,1855,1825
1899,1872,1822
1879,1872,1857
1859,1874,1894
1861,1855,1840
1876,1853,1806
1892,1887,1865
