1856,1934,1879
1851,1906,1833
1879,1904,1790
1883,1935,1834
1854,1984,1866
1870,2014,1841
1877,1879,1783
1872,1891,1808
1851,1925,1856
1863,1920,1827
1884,1898,1781
1890,1931,1829
1869,1865,1863
1856,1905,1827
1887,1935,1789
1883,2023,1812
1871,1935,1859
1872,1922,1839
1856,1918,1763
1867,1930,1803
1855,1937,1858
1872,1949,1835
1865,1907,1762
1865,1886,1797
1858,1934,1841
1872,1921,1829
1891,1998,1789
1899,1931,1818
1881,1946,1871
1867,1947,1819
1891,1934,1783
1898,1926,1821
1872,1930,1865
1856,1911,1824
1878,1923,1776
1899,1934,1815
1882,1947,1871
1889,1936,1858
1890,1904,1794
1874,1903,1798
1865,1931,1850
1872,1926,1842
1904,1923,1807
1902,1936,1823
1870,1922,1847
1869,1903,1827
1909,1911,1813
1904,1909,1837
1857,1930,1863
1862,1904,1830
1887,1879,1783
1887,1911,1821
1871,1930,1878
1881,1902,1853
1887,1880,1783
1888,1919,1823
1867,1931,1863
1872,1910,1839
1884,1893,1791
1893,1929,1834
1886,1959,1886
1886,1883,1846
1891,1851,1779
1893,1926,1824
1857,1903,1850
1862,1871,1825
1883,1862,1783
1898,1900,1827
1897,1929,1883
1866,1879,1826
1876,1856,1769
1893,1897,1819
1870,1935,1867
1863,1899,1825
1875,1829,1776
1901,1888,1832
1890,1959,1887
1865,1922,1830
1872,1869,1771
1893,1877,1817
1874,1888,1871
1875,1890,1840
1899,1887,1795
1914,1947,1844
1858,1885,1842
1861,1842,1819
1899,1835,1786
1899,1886,1822
1872,1920,1871
1872,1901,1850
1890,1858,1794
1888,1900,1829
1886,1902,1877
1870,1867,1833
1881,1849,1783
1903,1903,1835
1882,1918,1877
1867,1887,1840
1885,1856,1789
1903,1871,1835
1895,1929,1899
1870,1869,1840
1871,1840,1773
1891,1877,1821
1883,1943,1882
1893,1909,1861
1884,1853,1779
1886,1864,1833
1857,1870,1869
1872,1870,1847
1898,1859,1808
1906,1875,1835
1882,1904,1876
1872,1892,1854
1901,1885,1822
1904,1913,1851
1863,1856,1858
1868,1846,1837
1893,1843,1800
1903,1898,1842
1872,1876,1874
1878,1854,1851
1895,1889,1808
1908,1916,1858
1866,1889,1872
1865,1856,1840
1876,1841,1797
1890,1872,1838
1879,1899,1888
1862,1853,1844
1876,1850,1792
1893,1883,1840
1883,1900,1894
1875,1867,1856
1894,1841,1797
1901,1885,1840
1875,1893,1887
1890,1876,1872
1893,1851,1808
1891,1853,1831
1869,1872,1871
1872,1855,1847
1875,1839,1797
1891,1856,1840
1881,1890,1894
1895,1890,1872
1889,1851,1808
1879,1853,1827
1856,1871,1865
1865,1859,1849
1893,1835,1808
1904,1860,1849
1869,1870,1876
1877,1875,1856
1906,1865,1824
1889,1857,1834
1863,1868,1872
1873,1871,1849
1891,1846,1802
1894,1856,1837
1876,1883,1887
1865,1871,1841
1872,1837,1789
1877,1856,1830
1874,1883,1883
1873,1846,1853
1893,1843,1808
1894,1854,1829
1866,1873,1872
1867,1858,1853
1904,1868,1822
1907,1885,1851
1858,1874,1881
1856,1857,1841
1881,1840,1801
1901,1891,1846
1869,1889,1885
1883,1858,1866
1905,1852,1813
1889,1865,1817
1872,1904,1925
1872,1857,1856
1889,1835,1804
1899,1867,1840
1887,1911,1882
1894,1878,1851
1886,1833,1773
1892,1863,1870
1874,1887,1857
1882,1891,1854
1904,1862,1783
1889,1847,1840
1870,1872,1885
1873,1873,1856
1903,1887,1829
1921,1911,1890
1873,1878,1877
1854,1838,1837
1875,1843,1759
1889,1886,1838
1871,1898,1910
1882,1865,1871
1905,1849,1821
1904,1874,1871
1870,1887,1879
1868,1867,1855
1879,1847,1823
1903,1878,1857
1881,1897,1910
1883,1876,1857
1878,1840,1811
1894,1869,1826
1859,1866,1862
1859,1875,1850
1877,1862,1808
1888,1861,1901
1867,1853,1902
1862,1856,1853
1885,1852,1811
1903,1885,1889
1857,1887,1878
1855,1873,1840
1879,1861,1787
1897,1887,1839
1882,1904,1942
1870,1881,1855
1891,1867,1817
1914,1931,1879
1886,1917,1915
1855,1845,1843
1857,1814,1792
1873,1863,1840
1869,1917,1898
1865,1890,1887
1875,1824,1808
1888,1878,1838
1877,1924,1898
1857,1874,1860
1866,1856,1773
1881,1883,1853
1868,1902,1883
1872,1879,1899
1885,1855,1817
1886,1881,1821
1867,1915,1870
1887,1924,1903
1879,1895,1795
1870,1888,1808
1841,1872,1902
1839,1850,1824
1875,1855,1807
1890,1902,1853
1863,1877,1861
1847,1862,1870
1872,1860,1776
1881,1890,1836
1859,1915,1867
1866,1895,1849
1883,1846,1822
1885,1878,1851
1867,1907,1892
1866,1878,1867
1891,1894,1813
1883,1907,1847
1856,1883,1886
1859,1862,1859
1877,1841,1808
1891,1899,1841
1859,1901,1915
1843,1850,1830
1857,1841,1803
1872,1869,1826
1855,1888,1946
1858,1861,1831
1890,1883,1878
1873,1888,1840
1842,1888,1788
1845,1854,1835
1867,1857,1811
1879,1869,1844
1861,1907,1899
1869,1904,1870
1858,1857,1803
1859,1846,1825
1855,1893,1877
1861,1888,1857
1889,1847,1815
1873,1872,1815
1856,1904,1855
1854,1856,1854
1874,1835,1793
1897,1895,1872
1855,1877,1883
1841,1856,1857
1867,1854,1857
1884,1889,1810
1879,1901,1905
1872,1875,1882
1872,1845,1714
1872,1874,1856
1842,1842,1891
1852,1870,1831
1898,1893,1824
1871,1859,1840
1823,1854,1865
1856,1872,1815
1873,1840,1809
1875,1851,1835
1852,1871,1889
1854,1858,1835
1871,1849,1808
1883,1883,1852
1872,1885,1893
1862,1850,1853
1867,1841,1698
1869,1871,1827
1845,1866,1865
1851,1857,1853
1875,1815,1802
1879,1853,1834
1861,1909,1911
1869,1882,1862
1872,1842,1786
1863,1848,1811
1838,1876,1847
1850,1879,1844
1879,1840,1782
1883,1858,1904
1851,1883,1875
1845,1879,1851
1866,1871,1840
1873,1872,1815
1867,1870,1878
1856,1837,1844
1846,1802,1767
1858,1863,1799
1856,1885,1885
1858,1874,1851
1862,1837,1808
1870,1863,1836
1857,1867,1910
1839,1872,1872
1854,1850,1802
1856,1899,1884
1850,1894,1887
1842,1857,1852
1869,1877,1813
1895,1879,1868
1835,1841,1858
1808,1840,1810
1850,1837,1789
1870,1855,1840
1851,1870,1889
1842,1862,1854
1847,1842,1799
1861,1861,1844
1840,1872,1887
1830,1846,1859
1852,1849,1805
1875,1893,1846
1867,1907,1906
1840,1863,1851
1847,1855,1792
1884,1877,1841
1855,1863,1885
1841,1849,1847
1858,1840,1806
1850,1859,1829
1834,1873,1862
1839,1854,1840
1870,1808,1809
1871,1846,1839
1842,1868,1870
1877,1858,1851
1860,1840,1808
1845,1856,1840
1845,1869,1886
1840,1878,1875
1853,1870,1838
1819,1844,1821
1799,1868,1858
1808,1841,1820
1825,1799,1783
1900,1843,1834
1842,1898,1872
1846,1859,1858
1871,1851,1812
1897,1882,1851
1863,1871,1892
1851,1845,1845
1905,1855,1799
1922,1861,1840
1861,1882,1888
1857,1870,1857
1883,1882,1823
1919,1916,1855
1861,1856,1859
1874,1841,1842
1882,1823,1790
1841,1847,1834
1808,1869,1874
1823,1869,1847
1870,1853,1806
1871,1862,1853
1845,1882,1893
1831,1849,1856
1917,1885,1820
1906,1901,1863
1812,1843,1859
1827,1840,1839
1853,1845,1795
1870,1856,1839
1849,1879,1897
1886,1878,1865
1879,1858,1802
1861,1873,1826
1843,1854,1872
1840,1840,1855
1870,1856,1798
1877,1875,1845
1871,1865,1883
1793,1840,1842
1887,1843,1810
1919,1903,1862
1875,1864,1899
1788,1803,1835
1807,1834,1781
1888,1884,1842
1899,1895,1901
1914,1855,1854
1841,1834,1783
1904,1872,1821
1882,1880,1870
1833,1859,1846
1869,1846,1798
1869,1888,1840
1854,1903,1886
1851,1841,1840
1871,1856,1807
1907,1904,1863
1873,1867,1866
1850,1833,1827
1851,1849,1792
1881,1875,1840
1869,1891,1895
1883,1873,1871
1852,1827,1792
1872,1871,1838
1859,1908,1881
1840,1847,1834
1865,1831,1799
1872,1872,1835
1857,1891,1881
1863,1872,1866
1857,1827,1792
1875,1887,1841
1831,1897,1872
1835,1856,1840
1834,1822,1795
2002,1872,1840
1850,1902,1883
1862,1883,1857
1871,1839,1810
1856,1846,1835
1845,1882,1895
1889,1883,1873
1869,1851,1803
1842,1875,1835
1840,1894,1895
1856,1872,1869
1862,1852,1809
1857,1889,1840
1828,1856,1866
1833,1839,1847
1855,1872,1819
1879,1879,1840
1845,1887,1887
1822,1860,1851
1862,1843,1801
1856,1889,1851
1877,1919,1904
1902,1902,1874
1897,1881,1821
1815,1843,1826
1807,1870,1874
1822,1870,1871
1891,1857,1824
1886,1913,1878
1821,1885,1887
1813,1856,1835
1874,1829,1803
1899,1853,1842
1894,1895,1898
1886,1910,1867
1842,1862,1808
1859,1855,1830
1834,1872,1879
1855,1879,1871
1861,1858,1813
1867,1856,1825
1843,1901,1887
1863,1887,1886
1842,1818,1794
1867,1886,1840
1898,1896,1873
1808,1842,1838
1831,1842,1797
1872,1871,1847
1843,1904,1895
1846,1859,1867
1856,1844,1815
1872,1892,1863
1853,1891,1904
1919,1872,1874
1904,1830,1823
1877,1873,1847
1865,1906,1897
1856,1899,1870
1882,1902,1834
1865,1895,1869
1808,1884,1869
1821,1843,1850
1883,1850,1814
1927,1878,1851
1867,1893,1904
1783,1885,1877
1870,1856,1808
1862,1902,1851
1795,1889,1891
1901,1879,1872
1883,1854,1815
1871,1858,1840
1856,1894,1887
1871,1903,1870
1904,1933,1843
1863,1878,1840
1819,1850,1863
1847,1857,1856
1878,1821,1824
1875,1855,1842
1847,1881,1887
1857,1882,1866
1863,1853,1811
1878,1879,1854
1853,1915,1899
1856,1884,1870
1861,1843,1797
1855,1878,1829
1842,1891,1882
1856,1877,1872
1882,1862,1826
1871,1870,1837
1850,1885,1889
1820,1840,1831
1827,1812,1778
1853,1869,1829
1859,1917,1895
1847,1889,1859
1857,1861,1808
1868,1865,1845
1857,1911,1894
1853,1885,1865
1872,1854,1809
1883,1891,1852
1857,1908,1893
1858,1879,1858
1879,1859,1821
1887,1879,1856
1853,1872,1877
1851,1870,1859
1871,1849,1808
1879,1870,1843
1872,1922,1911
1860,1911,1861
1854,1823,1785
1872,1863,1834
1864,1902,1898
1861,1886,1871
1872,1858,1821
1887,1887,1855
1876,1910,1904
1841,1856,1845
1862,1866,1799
1887,1887,1847
1871,1885,1903
1853,1875,1863
1866,1845,1811
1883,1889,1856
1870,1889,1898
1882,1882,1878
1892,1891,1817
1886,1877,1840
1840,1863,1872
1839,1866,1857
1868,1863,1815
1895,1891,1861
1882,1899,1920
1840,1844,1848
1851,1844,1792
1869,1858,1840
1862,1875,1894
1871,1869,1870
1872,1850,1812
1877,1881,1843
1872,1895,1901
1881,1888,1891
1904,1893,1842
1855,1867,1824
1827,1868,1859
1863,1862,1872
1870,1827,1814
1867,1872,1833
1847,1881,1870
1853,1882,1861
1868,1862,1814
1872,1887,1852
1858,1889,1894
1870,1855,1865
1873,1855,1824
1899,1930,1872
1865,1883,1902
1856,1861,1859
1855,1854,1794
1856,1855,1828
1858,1886,1899
1872,1891,1878
1859,1827,1808
1872,1850,1840
1855,1892,1894
1858,1874,1862
1882,1865,1815
1893,1894,1869
1866,1909,1901
1872,1889,1882
1861,1840,1808
1871,1882,1846
1878,1905,1913
1858,1902,1879
1862,1885,1819
1842,1827,1824
1844,1855,1885
1858,1856,1873
1873,1867,1822
1887,1889,1849
1861,1893,1883
1867,1876,1867
1877,1869,1821
1904,1901,1871
1873,1923,1911
1850,1863,1854
1885,1852,1819
1918,1914,1875
1887,1921,1910
1837,1870,1840
1844,1823,1791
1872,1841,1843
1862,1885,1894
1871,1867,1862
1887,1852,1815
1896,1872,1843
1871,1910,1889
1872,1881,1863
1881,1871,1805
1911,1911,1857
1875,1915,1894
1823,1864,1817
1849,1841,1776
1883,1900,1844
1854,1887,1883
1841,1846,1839
1867,1831,1785
1886,1856,1836
1872,1898,1882
1872,1891,1861
1895,1877,1821
1902,1904,1858
1855,1870,1872
1841,1872,1823
1871,1875,1795
1893,1887,1839
1878,1879,1875
1845,1851,1822
1861,1840,1786
1902,1861,1842
1882,1958,1886
1845,1909,1831
1862,1887,1776
1875,1899,1815
1874,1906,1875
1877,1947,1853
1899,1879,1807
1907,1844,1848
1855,1878,1871
1840,1904,1824
1862,1866,1781
1866,1902,1808
1858,1912,1862
1870,1894,1847
1905,1840,1824
1882,1893,1826
1843,1872,1860
1852,1851,1834
1886,1866,1802
1902,1918,1843
1859,1925,1877
1877,1877,1867
1861,1782,1780
1869,1881,1809
1845,1910,1859
1846,1844,1839
1863,1894,1793
1879,1845,1838
1863,1904,1886
1859,1927,1857
1866,1855,1793
1879,1875,1840
1864,1905,1879
1867,1880,1866
1840,1838,1770
1845,1824,1808
1851,1890,1872
1873,1872,1867
1872,1840,1808
1872,1859,1837
1850,1875,1872
1840,1840,1835
1875,1856,1795
1904,1923,1850
1880,1897,1898
1872,1887,1860
1856,1853,1779
1872,1863,1820
1889,1920,1900
1863,1901,1849
1845,1819,1757
1856,1785,1797
1862,1867,1873
1871,1876,1857
1894,1936,1811
1872,1903,1819
1842,1853,1856
1856,1845,1837
1870,1856,1785
1874,1840,1836
1855,1938,1877
1858,1850,1847
1872,1794,1799
1901,1900,1861
1905,1949,1934
1850,1856,1843
1831,1808,1763
1872,1856,1837
1854,1808,1876
1865,1883,1866
1882,1847,1812
1891,1874,1840
1850,1856,1872
1846,1831,1847
1877,1848,1808
1897,1899,1847
1858,1885,1882
1860,1878,1867
1886,1878,1823
1890,1887,1859
1884,1937,1906
1872,1882,1877
1889,1826,1823
1891,1859,1843
1854,1875,1877
1859,1837,1852
1878,1817,1815
1879,1840,1841
1847,1862,1881
1865,1889,1862
1872,1829,1798
1883,1871,1847
1858,1887,1903
1855,1901,1861
1872,1843,1815
1899,1863,1870
1898,1907,1923
1843,1858,1844
1845,1830,1777
1862,1862,1828
1872,1917,1906
1867,1872,1870
1863,1838,1805
1875,1851,1831
1861,1873,1890
1865,1873,1870
1894,1950,1829
1881,1872,1843
1837,1866,1871
1853,1873,1861
1877,1872,1817
1873,1831,1841
1853,1878,1895
1875,1856,1885
1879,1813,1829
1864,1860,1837
1840,1840,1866
1856,1807,1861
1879,1878,1820
1878,1858,1851
1861,1843,1904
1854,1872,1871
1859,1855,1805
1872,1926,1847
1861,1883,1895
1878,1941,1885
1866,1895,1805
1872,1838,1835
1859,1879,1888
1857,1862,1860
1886,1830,1817
1873,1852,1842
1838,1873,1872
1844,1863,1856
1872,1830,1811
1883,1872,1843
1859,1947,1891
1865,1858,1872
1893,1925,1823
1894,1889,1857
1855,1905,1883
1840,1843,1852
1879,1837,1824
1902,1894,1857
1860,1866,1887
1851,1823,1847
1863,1807,1799
1898,1915,1864
1873,1915,1907
1854,1893,1862
1869,1856,1805
1888,1878,1847
1865,1887,1901
1847,1810,1868
1871,1887,1813
1886,1879,1855
1877,1875,1908
1856,1872,1859
1872,1847,1810
1885,1899,1855
1860,1887,1899
1872,1887,1877
1891,1871,1827
1878,1872,1843
1868,1890,1895
1855,1861,1862
1865,1833,1802
1891,1864,1847
1883,1869,1918
1866,1904,1877
1859,1899,1810
1876,1891,1849
1859,1872,1890
1854,1842,1858
1882,1839,1821
1878,1872,1847
1861,1889,1888
1859,1861,1866
1874,1834,1822
1887,1881,1856
1872,1918,1903
1880,1895,1872
1904,1853,1829
1886,1896,1847
1833,1877,1871
1840,1834,1842
1879,1840,1821
1895,1885,1861
1869,1879,1905
1872,1869,1872
1879,1847,1811
1889,1872,1845
1879,1896,1905
1872,1876,1872
1882,1857,1814
1888,1874,1843
1871,1890,1890
1874,1882,1883
1901,1859,1837
1882,1867,1842
1860,1872,1895
1840,1850,1850
1857,1856,1805
1882,1883,1851
1872,1881,1901
1872,1866,1866
1899,1858,1837
1875,1865,1842
1863,1888,1889
1863,1868,1868
1893,1857,1826
1871,1875,1840
1856,1888,1882
1862,1836,1875
1883,1850,1838
1901,1895,1863
1867,1891,1890
1869,1861,1872
1899,1875,1834
1904,1911,1872
1854,1881,1887
1838,1835,1844
1866,1815,1795
1890,1879,1853
1863,1915,1889
1861,1885,1857
1887,1849,1818
1895,1886,1856
1889,1898,1914
1877,1840,1870
1873,1819,1797
1895,1886,1839
1894,1919,1909
1873,1879,1872
1870,1832,1798
1899,1866,1845
1867,1872,1879
1881,1872,1871
1890,1885,1817
1886,1867,1843
1881,1872,1891
1872,1849,1856
1867,1849,1783
1884,1875,1833
1887,1887,1897
1897,1873,1885
1873,1817,1797
1889,1846,1833
1882,1887,1893
1869,1843,1856
1872,1842,1797
1892,1877,1840
1877,1877,1879
1861,1851,1844
1884,1836,1803
1903,1896,1851
1893,1901,1904
1857,1840,1841
1859,1833,1785
1889,1888,1838
1871,1903,1885
1863,1875,1846
1884,1848,1803
1899,1872,1854
1857,1873,1877
1829,1841,1823
1851,1840,1795
1866,1845,1837
1867,1915,1889
1861,1870,1860
1870,1840,1792
1881,1887,1840
1856,1889,1887
1861,1862,1860
1884,1859,1808
1907,1912,1856
1867,1922,1882
1850,1862,1852
1877,1840,1808
1879,1870,1835
1855,1904,1873
1865,1876,1860
1878,1841,1808
1879,1887,1838
1874,1918,1892
1856,1873,1850
1873,1829,1791
1883,1850,1825
1867,1892,1877
1869,1869,1859
1874,1840,1807
1874,1890,1837
1872,1901,1888
1857,1872,1851
1870,1844,1803
1873,1872,1841
1870,1902,1901
1856,1899,1863
1891,1874,1819
1868,1844,1831
1829,1872,1856
1846,1874,1841
1877,1861,1810
1889,1891,1841
1889,1920,1907
1870,1882,1869
1874,1840,1811
1858,1840,1815
1849,1887,1863
1841,1853,1842
1861,1839,1763
1870,1845,1840
1851,1950,1882
1843,1887,1846
1859,1855,1846
1879,1872,1843
1861,1904,1884
1857,1873,1841
1878,1878,1778
1882,1885,1852
1841,1872,1837
1837,1861,1872
1863,1851,1777
1887,1874,1857
1840,1857,1898
1841,1862,1858
1873,1872,1825
1883,1885,1831
1861,1886,1857
1861,1882,1861
1883,1870,1805
1878,1877,1840
1829,1862,1877
1837,1865,1853
1860,1854,1841
1873,1866,1821
1851,1887,1887
1846,1856,1881
1877,1857,1818
1888,1881,1827
1870,1869,1888
1850,1855,1851
1867,1860,1792
1885,1913,1840
1869,1887,1889
1874,1866,1870
1878,1845,1789
1872,1854,1835
1855,1873,1874
1863,1870,1899
1856,1858,1795
1857,1860,1823
1846,1891,1883
1849,1851,1859
1874,1854,1818
1870,1875,1856
1840,1898,1881
1857,1869,1915
1866,1835,1808
1883,1891,1871
1852,1879,1866
1855,1881,1846
1873,1843,1819
1875,1833,1853
1872,1899,1958
1859,1898,1895
1867,1840,1783
1874,1870,1862
1860,1889,1906
1844,1879,1819
1853,1845,1797
1863,1857,1796
1855,1883,1892
1858,1906,1887
1882,1883,1822
1856,1855,1821
1834,1883,1898
1855,1886,1900
1877,1846,1870
1886,1869,1871
1853,1878,1856
1864,1883,1873
1873,1883,1824
1855,1869,1839
1845,1881,1889
1850,1881,1858
1862,1866,1806
1867,1868,1808
1863,1874,1892
1865,1877,1869
1883,1888,1822
1873,1883,1843
1872,1920,1905
1848,1872,1859
1856,1845,1801
1871,1872,1839
1871,1899,1899
1858,1876,1869
1883,1867,1831
1891,1891,1855
1843,1883,1954
1845,1867,1759
1866,1855,1795
1883,1872,1852
1872,1906,1831
1872,1882,1883
1887,1872,1822
1900,1902,1856
1874,1914,1902
1862,1872,1869
1875,1851,1811
1901,1902,1859
1883,1919,1905
1840,1847,1845
1856,1813,1793
1888,1872,1862
1878,1904,1904
1891,1909,1793
1877,1871,1834
1855,1868,1847
1851,1863,1833
1855,1846,1763
1879,1841,1821
1886,1872,1801
1866,1887,1857
1869,1856,1858
1875,1846,1843
1886,1889,1862
1858,1907,1908
1862,1904,1869
1899,1856,1833
1881,1855,1803
1871,1898,1895
1857,1869,1874
1888,1851,1838
1910,1899,1809
1838,1882,1857
1847,1846,1840
1877,1847,1855
1878,1856,1840
1875,1877,1923
1862,1875,1818
1883,1872,1830
1909,1904,1882
1872,1909,1887
1862,1889,1854
1895,1870,1841
1889,1871,1843
1857,1888,1874
1860,1875,1854
1879,1853,1806
1889,1898,1898
1872,1920,1942
1861,1883,1868
1866,1827,1853
1856,1842,1795
1866,1907,1883
1865,1866,1840
1872,1819,1787
1882,1870,1821
1870,1899,1862
1858,1872,1894
1872,1851,1808
1882,1871,1845
1878,1914,1916
1888,1922,1872
1859,1829,1807
1856,1818,1835
1847,1863,1808
1872,1873,1871
1889,1859,1833
1878,1871,1849
1856,1882,1929
1872,1901,1874
1877,1851,1804
1883,1863,1839
1878,1901,1904
1873,1883,1875
1869,1841,1805
1872,1866,1840
1870,1921,1902
1888,1917,1899
1874,1833,1805
1855,1835,1817
1849,1862,1875
1863,1871,1872
1884,1870,1833
1886,1895,1856
1863,1873,1891
1854,1872,1856
1875,1857,1813
1879,1874,1845
1872,1892,1903
1865,1868,1871
1854,1857,1808
1839,1873,1840
1855,1895,1902
1932,1891,1889
1869,1845,1814
1835,1835,1840
1815,1883,1893
1880,1906,1899
1859,1861,1823
1842,1863,1827
1846,1876,1881
1823,1858,1854
1825,1867,1808
1831,1866,1840
1888,1888,1904
1897,1859,1870
1827,1841,1799
1904,1893,1848
1860,1896,1904
1883,1856,1870
1870,1885,1827
1863,1875,1846
1870,1859,1876
1865,1840,1856
1842,1825,1794
1871,1872,1837
1846,1901,1888
1834,1866,1850
1891,1853,1806
1894,1889,1838
1875,1904,1886
1814,1853,1856
1904,1823,1815
1910,1891,1858
1858,1924,1908
1840,1854,1866
1856,1854,1791
1885,1862,1854
1872,1820,1872
1829,1839,1840
1854,1867,1795
1872,1881,1840
1843,1888,1874
1835,1866,1837
1853,1840,1808
1847,1855,1842
1911,1904,1897
1861,1890,1867
1850,1838,1779
1863,1839,1827
1873,1897,1902
1865,1887,1869
1841,1801,1775
1875,1831,1809
1854,1872,1872
1873,1861,1854
1901,1867,1817
1887,1890,1843
1839,1874,1882
1890,1844,1847
1899,1837,1795
1884,1872,1839
1892,1920,1895
1834,1856,1849
1833,1830,1799
1856,1866,1843
1831,1880,1883
1851,1872,1851
1859,1841,1795
1858,1852,1828
1842,1883,1887
1850,1883,1867
1872,1861,1820
1856,1865,1832
1834,1888,1871
1810,1878,1855
1863,1850,1801
1891,1875,1853
1854,1877,1879
1829,1847,1830
1856,1866,1789
1878,1916,1853
1843,1872,1877
1828,1831,1827
1855,1831,1785
1879,1866,1837
1817,1872,1882
1823,1879,1867
1872,1834,1811
1878,1856,1815
1818,1863,1866
1842,1854,1853
2015,1872,1812
1879,1891,1839
1872,1927,1904
1834,1865,1843
1887,1783,1771
1886,1842,1818
1843,1883,1872
1843,1840,1841
1871,1830,1793
1870,1872,1829
1851,1889,1877
1862,1879,1869
1855,1840,1801
1849,1871,1823
1844,1920,1883
1856,1858,1855
1871,1844,1803
1873,1887,1859
1867,1904,1895
1855,1881,1871
1862,1834,1779
1827,1840,1792
1809,1872,1868
1903,1897,1855
1859,1872,1785
1815,1886,1815
1844,1883,1885
1889,1844,1851
1842,1865,1791
1846,1890,1825
1891,1947,1894
1856,1902,1861
1840,1846,1803
1776,1862,1830
1857,1903,1888
1871,1868,1860
1858,1877,1808
1859,1904,1845
1839,1890,1874
1837,1843,1840
1815,1842,1794
1942,1919,1840
1856,1903,1872
1842,1860,1853
1857,1837,1787
1840,1895,1823
1872,1924,1870
1825,1874,1840
1835,1852,1776
1856,1860,1814
1855,1866,1867
1869,1891,1876
1879,1890,1836
1750,1892,1829
1835,1902,1861
1812,1860,1835
1845,1872,1796
1875,1904,1835
1847,1911,1877
1879,1887,1842
1847,1863,1808
1853,1872,1822
1893,1903,1869
1840,1903,1850
1863,1879,1811
1853,1868,1826
1853,1923,1885
1803,1898,1847
1922,1869,1786
1791,1904,1840
1860,1915,1897
1850,1904,1862
1855,1867,1805
1871,1907,1839
1865,1906,1890
1845,1885,1849
1857,1869,1797
1874,1901,1851
1861,1920,1887
1852,1909,1862
1869,1883,1801
1866,1920,1831
1833,1878,1867
1830,1875,1835
1870,1873,1799
1887,1915,1850
1859,1925,1889
1851,1904,1856
1872,1893,1813
1885,1918,1847
1845,1919,1875
1841,1868,1853
1861,1869,1807
1881,1926,1840
1869,1927,1895
1856,1893,1856
1886,1894,1820
1879,1913,1845
1855,1923,1893
1851,1888,1856
1866,1853,1810
1872,1878,1841
1840,1909,1875
1829,1872,1841
1866,1861,1803
1884,1936,1851
1873,1938,1893
1840,1863,1840
1858,1846,1792
1872,1901,1838
1856,1904,1878
1862,1882,1869
1882,1872,1822
1887,1897,1850
1836,1881,1856
1839,1863,1837
1875,1863,1809
1889,1917,1853
1841,1900,1870
1853,1872,1855
1857,1867,1792
1869,1886,1836
1855,1903,1886
1866,1905,1870
1879,1892,1819
1867,1893,1829
1841,1905,1871
1865,1890,1863
1847,1834,1787
1866,1874,1832
1875,1927,1904
1838,1871,1842
1840,1840,1782
1875,1887,1840
1870,1919,1898
1840,1858,1843
1863,1868,1799
1872,1916,1830
1867,1904,1893
1850,1869,1862
1883,1867,1813
1870,1884,1829
1858,1919,1891
1885,1923,1888
1847,1821,1775
1853,1840,1808
1840,1862,1860
1857,1873,1854
1879,1863,1810
1879,1878,1840
1861,1902,1891
1861,1898,1871
1874,1870,1815
1872,1857,1836
1856,1903,1882
1861,1919,1871
1887,1872,1824
1878,1856,1843
1847,1872,1870
1845,1891,1850
1872,1885,1809
1916,1914,1883
1872,1884,1887
1831,1853,1825
1842,1838,1776
1861,1853,1819
1872,1893,1901
1883,1898,1875
1861,1840,1791
1857,1868,1816
1856,1894,1882
1887,1873,1878
1888,1857,1809
1866,1856,1821
1853,1904,1873
1865,1872,1860
1872,1851,1813
1856,1854,1822
1861,1904,1899
1843,1872,1847
1840,1830,1776
1872,1872,1829
1853,1890,1884
1843,1865,1856
1872,1857,1818
1877,1872,1855
1866,1899,1902
1856,1882,1859
1867,1865,1796
1899,1894,1855
1886,1932,1909
1867,1901,1872
1856,1840,1792
1850,1872,1811
1857,1919,1878
1841,1871,1845
1872,1863,1808
1865,1887,1838
1840,1893,1885
1845,1889,1852
1862,1893,1801
1872,1916,1839
1872,1907,1891
1861,1879,1863
1871,1867,1807
1872,1886,1840
1886,1957,1914
1868,1918,1873
1847,1840,1777
1861,1876,1812
1871,1928,1887
1847,1898,1843
1844,1856,1776
1871,1888,1831
1865,1904,1875
1856,1900,1846
1869,1872,1795
1877,1893,1841
1857,1923,1890
1869,1939,1873
1884,1904,1811
1879,1908,1842
1837,1923,1874
1823,1887,1824
1867,1901,1808
1897,2013,1870
1844,2055,1881
1826,1895,1835
1860,1935,1805
1871,2004,1840
1838,2045,1863
1840,2000,1840
1866,1978,1808
1875,2034,1840
1864,2121,1901
1857,2094,1866
1867,2023,1803
1889,2032,1853
1874,2132,1906
1862,2112,1872
1859,2012,1795
1845,2015,1809
1835,2032,1871
1850,2064,1856
1882,2073,1821
1895,2098,1855
1869,2125,1893
1835,2087,1845
1835,1987,1778
1862,2093,1834
1870,2121,1892
1850,2145,1856
1862,2037,1801
1898,2114,1853
1886,2098,1905
1851,2034,1841
1853,1972,1785
1878,2017,1829
1871,2112,1893
1872,2074,1857
1875,2037,1806
1876,2070,1835
1870,2081,1872
1863,2070,1851
1884,2093,1808
1856,2047,1807
1851,2057,1869
1850,2092,1840
1865,2013,1790
1891,2063,1840
1862,2093,1872
1870,2013,1845
1881,2007,1808
1874,2103,1835
1870,2096,1887
1872,2045,1862
1875,2018,1803
1883,2032,1840
1876,2032,1897
1882,2071,1869
1873,1969,1790
1873,2091,1819
1863,2003,1883
1854,2029,1856
1873,2011,1813
1863,1988,1834
1836,1976,1867
1861,1999,1856
1872,1989,1808
1871,1990,1834
1860,2031,1888
1862,2017,1859
1884,1927,1808
1911,2011,1856
1872,2054,1888
1856,2000,1853
1861,1943,1791
1879,1979,1828
1866,2013,1893
1856,1979,1850
1871,1968,1798
1886,1970,1840
1853,1969,1873
1841,1931,1839
1872,1943,1808
1879,1999,1843
1872,2003,1892
1872,1981,1862
1886,1967,1819
1898,1977,1863
1872,1911,1901
1861,1953,1857
1878,1795,1808
1904,2013,1865
1872,2037,1897
1851,1936,1844
1851,1902,1777
1875,1954,1835
1883,1954,1904
1887,1923,1879
1846,1901,1787
1856,1948,1814
1857,1936,1877
1851,1917,1854
1871,1904,1808
1883,1919,1841
1863,1907,1889
1871,1924,1871
1883,1872,1811
1882,1947,1843
1858,1952,1877
