1857,1877,1852
1863,1858,1802
1875,1878,1834
1840,1887,1830
1857,1887,1850
1866,1859,1850
1872,1869,1829
1867,1887,1899
1865,1882,1846
1901,1886,1836
1933,1933,1899
1827,1856,1833
1813,1823,1795
1855,1836,1770
1887,1879,1833
1872,1910,1894
1856,1886,1858
1873,1871,1810
1894,1904,1853
1879,1917,1895
1869,1885,1847
1856,1855,1790
1854,1872,1817
1847,1895,1871
1869,1893,1872
1910,1898,1872
1872,1869,1825
1834,1862,1872
1834,1849,1824
1875,1857,1808
1889,1883,1827
1875,1917,1917
1872,1894,1840
1879,1878,1776
1886,1888,1823
1872,1904,1859
1847,1863,1801
1874,1847,1799
1899,1894,1891
1858,1888,1843
1854,1865,1833
1872,1853,1840
1879,1878,1842
1886,1919,1916
1858,1871,1850
1859,1842,1799
1902,1904,1850
1881,1911,1899
1839,1849,1818
1857,1831,1810
1874,1870,1826
1878,1915,1893
1851,1858,1851
1874,1855,1806
1904,1903,1863
1857,1885,1875
1850,1869,1850
1861,1855,1799
1877,1872,1830
1892,1919,1914
1868,1882,1872
1889,1882,1831
1862,1856,1785
1851,1868,1878
1875,1900,1904
1856,1844,1795
1855,1847,1808
1872,1892,1890
1893,1901,1904
1887,1868,1830
1866,1873,1785
1847,1878,1855
1856,1883,1855
1893,1889,1842
1891,1884,1855
1863,1893,1889
1856,1872,1866
1871,1861,1822
1891,1898,1871
1875,1903,1899
1869,1888,1871
1867,1857,1807
1871,1871,1839
1867,1890,1901
1884,1904,1920
1871,1850,1820
1871,1863,1851
1875,1903,1904
1862,1869,1899
1850,1833,1797
1879,1872,1827
1859,1873,1872
1853,1867,1782
1866,1855,1792
1878,1875,1872
1871,1894,1946
1862,1883,1851
1865,1859,1820
1872,1872,1854
1861,1893,1919
1863,1872,1863
1891,1887,1854
1872,1883,1857
1843,1871,1879
1861,1866,1914
1872,1844,1793
1899,1889,1833
1858,1888,1889
1856,1869,1831
1879,1866,1830
1906,1885,1872
1855,1859,1949
1858,1855,1862
1869,1840,1819
1901,1894,1792
1866,1887,1895
1843,1861,1858
1871,1842,1824
1899,1890,1872
1901,1911,1919
1863,1867,1849
1875,1846,1793
1879,1875,1842
1870,1891,1874
1867,1878,1865
1874,1869,1857
1886,1878,1882
1861,1874,1904
1851,1862,1859
1897,1882,1818
1899,1890,1907
1878,1895,1891
1872,1876,1891
1904,1872,1859
1899,1872,1847
1879,1883,1894
1905,1906,1889
1909,1874,1839
1882,1866,1840
1871,1895,1893
1879,1883,1874
1901,1871,1840
1915,1905,1874
1860,1881,1883
1855,1871,1850
1882,1858,1818
1908,1891,1870
1869,1887,1893
1867,1873,1867
1904,1873,1838
1927,1923,1878
1861,1893,1886
1830,1833,1834
1872,1837,1807
1903,1873,1856
1885,1894,1900
1862,1869,1863
1875,1849,1816
1897,1891,1866
1886,1915,1907
1863,1858,1862
1883,1850,1811
1887,1877,1840
1818,1898,1886
1909,1872,1861
1838,1856,1810
1873,1903,1872
1862,1897,1884
1839,1859,1836
1840,1840,1795
1851,1872,1842
1885,1899,1900
1846,1866,1867
1901,1849,1810
1916,1871,1839
1881,1922,1914
1863,1904,1889
1872,1828,1787
1846,1866,1809
1856,1889,1878
1820,1850,1850
1802,1827,1793
1856,1856,1831
1840,1879,1877
1850,1872,1862
1851,1840,1805
1863,1867,1840
1867,1901,1897
1868,1872,1851
1834,1847,1807
1886,1889,1855
1883,1931,1930
1854,1863,1863
1797,1811,1776
1834,1837,1806
1856,1872,1883
1868,1889,1884
1831,1865,1823
1905,1879,1839
1838,1860,1855
1831,1834,1824
1851,1823,1791
1872,1859,1838
1872,1889,1898
1843,1869,1855
1878,1842,1803
1854,1863,1841
1878,1902,1903
1887,1885,1878
1883,1855,1813
1875,1865,1833
1825,1850,1856
1830,1856,1838
1891,1855,1817
1835,1873,1855
1852,1904,1909
1913,1870,1868
1870,1808,1787
1823,1826,1821
1891,1878,1898
1837,1873,1870
1893,1834,1808
1924,1855,1840
1856,1890,1898
1876,1889,1889
1808,1830,1795
1820,1847,1826
1835,1870,1878
1844,1885,1887
1883,1861,1831
1887,1858,1836
1833,1871,1871
1862,1862,1859
1889,1866,1832
1868,1884,1861
1854,1891,1888
1871,1883,1869
1863,1856,1812
1855,1867,1838
1866,1884,1895
1857,1867,1867
1883,1859,1833
1867,1867,1840
1856,1901,1885
1842,1874,1856
1866,1847,1808
1872,1872,1838
1861,1897,1885
1882,1881,1855
1907,1870,1812
1923,1883,1840
1859,1893,1874
1843,1879,1856
1895,1883,1822
1891,1889,1846
1872,1920,1899
1878,1891,1871
1887,1827,1776
1869,1868,1819
1856,1895,1883
1879,1890,1872
1892,1878,1819
1883,1887,1834
1872,1905,1875
1888,1901,1862
1898,1878,1819
1881,1879,1837
1863,1899,1881
1855,1886,1864
1941,1899,1843
1902,1920,1865
1856,1863,1858
1744,1842,1837
1923,1865,1819
1923,1895,1859
1862,1904,1893
1878,1877,1856
1843,1856,1808
1858,1890,1856
1947,1907,1899
1918,1878,1859
1904,1872,1830
1916,1872,1845
1839,1886,1888
1886,1873,1863
1915,1869,1827
1877,1889,1857
1901,1907,1905
1903,1882,1872
1898,1872,1827
1933,1936,1900
1879,1917,1893
1817,1859,1844
1863,1815,1789
1856,1866,1840
1889,1907,1907
1881,1890,1883
1877,1879,1833
1931,1891,1859
1837,1856,1840
1840,1841,1825
1874,1843,1805
1866,1879,1854
1847,1903,1900
1903,1885,1857
1855,1891,1831
1903,1895,1857
1839,1867,1858
1857,1869,1848
1828,1843,1796
1902,1866,1828
1842,1873,1862
1809,1881,1851
1872,1865,1807
1899,1901,1858
1851,1886,1875
1741,1852,1831
1839,1840,1790
1905,1881,1838
1861,1902,1892
1856,1877,1852
1869,1838,1791
1866,1854,1814
1866,1884,1873
1877,1881,1860
1901,1871,1824
1872,1863,1822
1841,1853,1863
1836,1837,1830
1883,1855,1811
1886,1872,1840
1841,1859,1856
1837,1842,1826
1872,1845,1801
1886,1872,1839
1890,1914,1898
1856,1856,1835
1847,1821,1769
1867,1847,1817
1858,1872,1870
1859,1858,1845
1892,1865,1811
1899,1889,1845
1850,1858,1855
1846,1853,1837
1872,1854,1806
1876,1883,1831
1863,1886,1872
1862,1865,1840
1861,1834,1777
1872,1861,1820
1867,1894,1873
1871,1874,1855
1877,1858,1791
1895,1886,1840
1877,1899,1878
1859,1872,1846
1904,1884,1827
1919,1919,1872
1850,1884,1858
1840,1855,1825
1873,1851,1795
1855,1842,1810
1855,1886,1871
1869,1886,1861
1887,1872,1817
1883,1883,1832
1861,1890,1872
1870,1886,1861
1891,1875,1808
1893,1896,1845
1872,1905,1890
1859,1872,1852
1883,1874,1815
1913,1933,1866
1857,1885,1869
1838,1850,1831
1867,1853,1801
1871,1861,1824
1859,1890,1877
1874,1886,1859
1904,1893,1827
1921,1926,1874
1857,1876,1869
1864,1858,1840
1869,1839,1789
1890,1872,1839
1878,1900,1890
1883,1881,1867
1889,1872,1810
1905,1901,1853
1886,1914,1904
1896,1910,1876
1869,1843,1798
1867,1864,1825
1887,1931,1911
1866,1876,1863
1867,1831,1795
1891,1876,1842
1874,1904,1894
1884,1889,1872
1879,1871,1808
1893,1899,1847
1872,1904,1886
1872,1885,1865
1898,1883,1830
1887,1879,1843
1875,1901,1888
1886,1891,1873
1890,1873,1817
1914,1919,1875
1863,1887,1886
1845,1856,1840
1883,1871,1808
1878,1879,1835
1875,1906,1888
1873,1893,1865
1879,1872,1805
1895,1878,1843
1882,1903,1897
1878,1873,1862
1897,1859,1811
1890,1872,1840
1873,1899,1891
1874,1883,1872
1897,1871,1829
1901,1891,1858
1897,1923,1910
1909,1920,1907
1877,1852,1809
1870,1856,1821
1878,1889,1888
1874,1885,1867
1887,1857,1817
1904,1890,1855
1872,1892,1889
1874,1883,1872
1901,1877,1832
1897,1905,1858
1867,1903,1896
1858,1882,1859
1872,1855,1811
1887,1885,1850
1885,1919,1906
1904,1923,1898
1886,1862,1811
1877,1867,1834
1871,1884,1883
1883,1898,1877
1896,1878,1823
1900,1897,1856
1885,1910,1904
1871,1884,1861
1858,1849,1792
1889,1882,1843
1891,1927,1918
1886,1907,1881
1858,1850,1791
1872,1875,1831
1872,1897,1898
1879,1900,1876
1898,1872,1829
1875,1856,1825
1862,1883,1874
1889,1904,1885
1895,1869,1819
1887,1881,1841
1872,1893,1881
1877,1840,1861
1922,1878,1845
1907,1930,1871
1859,1914,1880
1872,1834,1855
1906,1866,1842
1913,1901,1859
1840,1857,1857
1851,1895,1847
1881,1904,1806
1874,1857,1837
1881,1889,1897
1872,1904,1870
1877,1870,1809
1886,1898,1840
1867,1860,1882
1858,1872,1850
1877,1827,1811
1905,1926,1868
1878,1915,1904
1859,1883,1853
1903,1859,1826
1872,1871,1831
1858,1876,1872
1877,1959,1861
1872,1870,1806
1887,1874,1840
1847,1893,1873
1841,1867,1843
1875,1904,1812
1871,1893,1835
1874,1943,1895
1867,1881,1854
1879,1870,1808
1899,1898,1847
1888,1919,1903
1873,1923,1871
1879,1869,1817
1902,1895,1855
1871,1905,1883
1888,1873,1867
1887,1847,1817
1908,1913,1859
1901,1919,1913
1882,1909,1871
1837,1818,1757
1856,1842,1808
1873,1931,1892
1860,1873,1857
1872,1826,1808
1883,1872,1840
1878,1931,1900
1876,1901,1877
1883,1831,1816
1886,1849,1839
1872,1925,1890
1866,1936,1861
1879,1843,1811
1917,1915,1859
1875,1936,1877
1846,1914,1830
1872,1872,1793
1892,1920,1842
1913,1952,1933
1875,1903,1866
1841,1822,1772
1870,1840,1817
1879,1911,1883
1870,1904,1846
1889,1839,1808
1901,1887,1843
1888,1933,1895
1883,1877,1867
1885,1871,1808
1906,1925,1869
1856,1897,1877
1840,1866,1833
1876,1862,1808
1886,1886,1847
1872,1903,1898
1872,1866,1856
1872,1866,1801
1919,1911,1873
1893,1954,1907
1851,1889,1840
1867,1847,1793
1872,1863,1828
1906,1951,1915
1867,1863,1847
1853,1825,1782
1872,1856,1826
1886,1901,1904
1860,1789,1851
1865,1839,1796
1879,1867,1840
1872,1856,1894
1882,1877,1865
1889,1856,1811
1903,1883,1849
1882,1899,1886
1853,1857,1840
1865,1840,1791
1902,1967,1858
1888,1908,1905
1902,1897,1875
1884,1866,1805
1851,1840,1809
1851,1857,1875
1857,1918,1856
1878,1810,1807
1879,1871,1840
1881,1872,1906
1867,1871,1872
1873,1872,1808
1887,1899,1844
1884,1899,1895
1875,1870,1868
1879,1814,1808
1874,1885,1833
1840,1859,1865
1846,1807,1840
1885,1858,1811
1905,1887,1865
1861,1833,1877
1825,1827,1817
1872,1865,1805
1881,1862,1841
1856,1900,1872
1834,1834,1818
1861,1795,1791
1881,1872,1847
1872,1909,1904
1853,1874,1851
1870,1814,1797
1888,1889,1840
1870,1888,1888
1870,1857,1857
1882,1866,1807
1871,1867,1834
1856,1910,1881
1863,1941,1866
1901,1850,1831
1913,1995,1872
1835,1859,1860
1804,1808,1796
1845,1814,1776
1875,1838,1840
1853,1943,1876
1849,1825,1840
1863,1874,1797
1881,1892,1840
1870,1911,1889
1856,1797,1849
1883,1855,1813
1885,1858,1839
1871,1894,1875
1875,1930,1866
1872,1873,1807
1865,1878,1829
1854,1903,1879
1847,1862,1840
1856,1844,1792
1869,1873,1831
1841,1898,1865
1856,1887,1853
1853,1840,1790
1863,1867,1824
1857,1903,1875
1858,1872,1850
1867,1855,1799
1883,1889,1841
1870,1911,1895
1856,1879,1856
1861,1855,1793
1890,1906,1854
1872,1904,1899
1844,1857,1840
1872,1855,1794
1898,1893,1850
1830,1872,1854
1830,1847,1822
1863,1837,1785
1887,1869,1839
1875,1901,1878
1866,1878,1857
1887,1868,1809
1891,1893,1858
1872,1918,1899
1857,1858,1842
1871,1840,1796
1888,1872,1841
1863,1904,1882
1863,1888,1859
1871,1847,1806
1879,1873,1842
1861,1905,1893
1822,1846,1827
1846,1835,1788
1868,1869,1840
1861,1901,1883
1858,1873,1855
1877,1866,1810
1875,1877,1849
1872,1901,1894
1854,1860,1849
1873,1854,1804
1889,1876,1846
1871,1902,1891
1869,1885,1859
1873,1858,1808
1870,1867,1834
1890,1917,1911
1869,1871,1863
1858,1838,1799
1871,1868,1835
1856,1883,1882
1840,1868,1836
1862,1840,1795
1895,1885,1857
1883,1897,1903
1863,1872,1856
1872,1851,1808
1889,1891,1850
1865,1897,1890
1872,1885,1872
1891,1863,1822
1865,1843,1825
1858,1872,1878
1866,1877,1860
1895,1882,1829
1901,1906,1869
1856,1890,1883
1851,1872,1852
1861,1854,1802
1909,1918,1874
1882,1921,1910
1820,1839,1813
1837,1821,1776
1872,1873,1840
1873,1899,1899
1885,1894,1877
1904,1898,1837
1885,1889,1845
1833,1855,1846
1831,1840,1825
1858,1842,1799
1879,1866,1844
1878,1894,1902
1861,1872,1860
1874,1870,1808
1887,1887,1849
1866,1880,1886
1847,1843,1840
1866,1840,1793
1887,1869,1842
1872,1887,1889
1907,1917,1900
1869,1840,1790
1840,1854,1803
1856,1886,1872
1863,1871,1849
1873,1848,1803
1886,1873,1839
1871,1894,1897
1872,1882,1857
1875,1868,1808
1881,1885,1840
1859,1891,1882
1859,1869,1855
1876,1872,1811
1898,1901,1855
1856,1893,1875
1852,1867,1851
1884,1869,1822
1927,1933,1897
1873,1910,1898
1801,1808,1799
1821,1791,1757
1861,1859,1838
1873,1899,1903
1861,1886,1863
1875,1870,1808
1872,1878,1836
1858,1887,1876
1858,1872,1851
1872,1852,1808
1885,1879,1841
1865,1901,1874
1893,1903,1872
1891,1859,1807
1883,1867,1826
1869,1895,1889
1857,1857,1846
1856,1840,1786
1861,1855,1813
1858,1875,1865
1867,1871,1847
1886,1851,1810
1905,1893,1865
1863,1885,1879
1872,1879,1853
1882,1861,1798
1876,1872,1827
1865,1887,1871
1865,1859,1822
1913,1887,1843
1891,1887,1840
1835,1856,1871
1827,1840,1790
1855,1827,1818
1894,1875,1856
1872,1903,1931
1845,1864,1847
1861,1851,1773
1879,1887,1822
1868,1899,1904
1854,1862,1887
1851,1838,1828
1873,1884,1872
1874,1910,1871
1872,1885,1875
1856,1840,1810
1871,1881,1841
1837,1887,1859
1830,1855,1838
1871,1850,1795
1879,1878,1848
1861,1904,1860
1871,1899,1872
1869,1873,1840
1872,1882,1840
1854,1890,1883
1862,1872,1870
1872,1858,1811
1888,1892,1858
1891,1935,1932
1866,1886,1872
1834,1823,1765
1853,1857,1824
1871,1901,1920
1905,1927,1923
1856,1840,1793
1852,1855,1864
1863,1897,1890
1861,1862,1857
1878,1855,1808
1887,1883,1889
1875,1905,1907
1856,1877,1851
1873,1856,1817
1882,1876,1857
1863,1897,1907
1870,1883,1920
1874,1869,1835
1884,1890,1863
1859,1881,1905
1860,1866,1835
1872,1846,1812
1882,1882,1835
1845,1886,1897
1871,1893,1858
1883,1861,1793
1882,1885,1874
1858,1897,1888
1856,1874,1865
1858,1840,1790
1882,1872,1843
1877,1903,1908
1872,1878,1872
1866,1861,1798
1869,1883,1881
1867,1895,1916
1845,1862,1854
1875,1857,1822
1877,1879,1838
1871,1901,1898
1840,1859,1833
1854,1841,1789
1888,1889,1856
1866,1894,1899
1851,1865,1846
1861,1858,1802
1873,1877,1834
1861,1891,1884
1871,1891,1866
1903,1893,1841
1894,1895,1856
1825,1872,1851
1827,1838,1805
1866,1840,1791
1899,1889,1889
1871,1904,1899
1861,1882,1904
1877,1856,1808
1866,1869,1827
1867,1903,1891
1863,1882,1859
1899,1887,1815
1889,1898,1795
1842,1872,1874
1845,1861,1813
1872,1856,1807
1910,1899,1854
1902,1936,1931
1872,1888,1857
1851,1830,1776
1851,1851,1808
1859,1889,1877
1869,1883,1841
1877,1872,1827
1894,1911,1820
1862,1898,1887
1847,1872,1873
1866,1862,1826
1858,1871,1831
1855,1888,1873
1872,1898,1922
1882,1879,1822
1870,1872,1850
1863,1911,1906
1843,1870,1821
1866,1857,1806
1881,1888,1837
1855,1889,1871
1840,1859,1843
1872,1851,1779
1897,1888,1831
1871,1909,1900
1845,1862,1849
1859,1842,1811
1868,1876,1835
1893,1923,1912
1875,1889,1871
1859,1855,1851
1858,1857,1825
1843,1867,1866
1861,1877,1851
1901,1884,1827
1879,1877,1841
1874,1904,1968
1867,1883,1866
1872,1855,1800
1901,1904,1852
1873,1901,1889
1851,1861,1868
1863,1840,1798
1898,1902,1859
1891,1920,1907
1868,1871,1868
1891,1870,1817
1920,1934,1877
1857,1881,1843
1838,1841,1827
1851,1833,1711
1891,1879,1827
1893,1919,1979
1878,1895,1867
1875,1847,1801
1869,1867,1839
1868,1895,1883
1866,1882,1871
1877,1866,1815
1879,1879,1859
1853,1872,1877
1843,1848,1844
1863,1851,1796
1885,1877,1855
1849,1876,1885
1870,1874,1869
1895,1872,1835
1859,1847,1823
1853,1870,1873
1869,1872,1861
1904,1879,1833
1899,1895,1856
1859,1894,1889
1843,1868,1848
1878,1855,1821
1871,1851,1838
1854,1889,1872
1861,1872,1856
1897,1882,1830
1903,1897,1862
1847,1872,1868
1844,1856,1839
1885,1858,1821
1900,1889,1858
1872,1899,1891
1890,1905,1873
1866,1851,1793
1887,1873,1841
1856,1877,1877
1840,1866,1853
1872,1872,1823
1891,1867,1835
1875,1879,1879
1859,1873,1867
1925,1876,1835
1858,1878,1853
1900,1877,1885
1870,1883,1861
1842,1866,1809
1913,1875,1842
1889,1891,1885
1835,1868,1844
1828,1872,1809
1895,1904,1856
1936,1920,1906
1871,1885,1866
1872,1853,1813
1887,1885,1850
1856,1890,1873
1840,1863,1840
1871,1856,1804
1915,1906,1869
1922,1923,1917
1877,1856,1840
1861,1830,1786
1848,1873,1846
1884,1902,1898
1895,1883,1869
1903,1875,1823
1875,1885,1840
1808,1887,1871
1856,1856,1849
1883,1852,1808
1887,1881,1849
1889,1904,1902
1878,1887,1863
1877,1872,1805
1893,1904,1859
1900,1878,1874
1846,1870,1844
1874,1851,1794
1874,1863,1829
1851,1873,1874
1871,1858,1856
1877,1845,1813
1939,1888,1863
1872,1904,1905
1875,1872,1862
1857,1835,1798
1938,1884,1860
1903,1876,1886
1872,1856,1846
1906,1853,1803
1847,1878,1852
1890,1891,1903
1840,1867,1865
1901,1854,1814
1913,1881,1847
1840,1901,1897
1872,1865,1856
1872,1868,1830
1905,1875,1861
1855,1872,1885
1845,1851,1840
1879,1841,1808
1882,1883,1863
1901,1909,1917
1851,1861,1863
1875,1818,1792
1871,1863,1855
1875,1879,1908
1872,1872,1881
1887,1867,1843
1891,1876,1872
1856,1872,1887
1855,1859,1853
1872,1840,1813
1909,1894,1879
1903,1916,1935
1840,1840,1834
1849,1823,1779
1897,1872,1843
1885,1902,1901
1887,1889,1867
1903,1859,1808
1903,1888,1856
1892,1905,1903
1895,1904,1885
1917,1885,1835
1913,1877,1856
1917,1893,1888
1872,1855,1842
1882,1849,1804
1910,1895,1871
1899,1926,1913
1858,1858,1845
1872,1839,1793
1894,1873,1856
1876,1897,1898
1872,1873,1865
1884,1872,1818
1872,1892,1853
1965,1925,1906
1790,1870,1856
1838,1829,1778
1882,1872,1839
1849,1902,1898
1872,1887,1872
1879,1862,1809
1873,1887,1843
1856,1877,1887
1856,1843,1843
1919,1872,1827
1950,1862,1840
1825,1873,1873
1838,1869,1840
1887,1872,1824
1863,1885,1861
1819,1878,1874
1856,1863,1849
1868,1835,1791
1880,1866,1840
1831,1899,1901
1884,1876,1865
1918,1840,1797
1885,1863,1835
1882,1897,1904
1857,1855,1854
1855,1821,1781
1872,1863,1837
1862,1890,1882
1886,1895,1870
1872,1845,1802
1861,1834,1821
1837,1866,1887
1905,1852,1853
1875,1842,1805
1900,1882,1871
1870,1877,1891
1888,1855,1840
1872,1839,1795
1823,1840,1823
1851,1877,1894
1847,1869,1859
1895,1846,1803
1839,1863,1838
1865,1887,1881
1843,1843,1832
1867,1831,1792
1856,1872,1840
1889,1894,1899
1841,1871,1856
1877,1827,1781
1859,1867,1830
1872,1905,1903
1891,1907,1889
1855,1843,1785
1834,1840,1801
1842,1863,1858
1854,1856,1841
1883,1866,1809
1884,1883,1845
1843,1887,1872
1849,1879,1856
1837,1834,1775
1827,1840,1795
1840,1872,1869
1851,1862,1853
1873,1868,1820
1872,1871,1838
1858,1885,1885
1837,1846,1829
1842,1834,1780
1874,1883,1851
1885,1934,1925
1855,1887,1867
1842,1850,1794
1856,1867,1827
1837,1870,1861
1856,1869,1841
1904,1897,1829
1870,1865,1834
1862,1879,1883
1862,1868,1858
1895,1875,1820
1908,1900,1872
1878,1899,1904
1879,1890,1870
1887,1856,1812
1911,1902,1876
1891,1911,1917
1872,1891,1870
1911,1888,1839
1927,1922,1882
1901,1926,1920
1904,1917,1890
1894,1872,1813
1903,1889,1853
1897,1914,1910
1933,1951,1920
1882,1863,1806
1862,1856,1819
1870,1897,1895
1879,1886,1877
1901,1881,1823
1899,1892,1857
1886,1911,1906
1895,1904,1883
1915,1895,1840
1910,1911,1872
1883,1909,1913
1893,1899,1877
1895,1871,1813
1911,1905,1872
1877,1908,1904
1889,1889,1879
1882,1863,1810
1933,1942,1892
1919,1956,1938
1847,1853,1839
1859,1851,1797
1893,1889,1855
1891,1921,1919
1886,1905,1878
1908,1895,1840
1909,1913,1872
1872,1907,1904
1875,1886,1872
1911,1889,1849
1930,1918,1893
1899,1927,1921
1841,1862,1839
1856,1843,1789
1906,1889,1865
1907,1924,1933
1913,1923,1904
1891,1857,1815
1875,1872,1835
1889,1914,1899
1903,1898,1872
1895,1859,1820
1922,1909,1886
1910,1930,1928
1894,1890,1881
1873,1855,1802
1887,1873,1842
1888,1906,1899
1858,1863,1846
1872,1850,1799
1890,1890,1853
1907,1931,1922
1904,1918,1888
1886,1855,1797
1872,1863,1831
1882,1911,1901
1869,1888,1853
1872,1851,1797
1888,1877,1841
1885,1905,1900
1885,1888,1859
1897,1865,1810
1917,1906,1871
1902,1919,1917
1889,1901,1867
1845,1829,1757
1855,1856,1810
1873,1905,1897
1863,1876,1840
1853,1829,1773
1872,1872,1829
1874,1909,1888
1885,1898,1869
1873,1851,1805
1894,1890,1851
1902,1925,1920
1883,1891,1872
1851,1839,1790
1885,1877,1843
1903,1918,1919
1883,1900,1872
1872,1854,1795
1872,1870,1827
1859,1888,1885
1889,1898,1878
1906,1873,1827
1890,1867,1838
1872,1892,1889
1893,1907,1869
1901,1873,1826
1893,1862,1848
1872,1879,1898
1887,1883,1879
1880,1852,1808
1899,1889,1853
1873,1902,1895
1870,1872,1856
1865,1834,1791
1877,1863,1833
1866,1899,1893
1873,1893,1873
1910,1894,1840
1882,1885,1841
1849,1884,1868
1839,1845,1831
1861,1843,1795
1894,1870,1858
1877,1955,1901
1872,1829,1862
1887,1820,1814
1871,1887,1832
1857,1839,1872
1870,1821,1842
1873,1840,1801
1899,1840,1856
1874,1867,1894
1877,1844,1871
1872,1895,1798
1899,1856,1846
1878,1856,1904
1863,1917,1855
1851,1796,1771
1873,1806,1830
1883,1875,1897
1877,1866,1859
1903,1844,1819
1895,1853,1841
1877,1839,1888
1859,1802,1852
1899,1823,1825
1892,1865,1846
1869,1893,1882
1881,1869,1872
1857,1808,1783
1875,1815,1833
1889,1887,1906
1872,1872,1863
1887,1858,1811
1887,1810,1842
1869,1879,1879
1857,1873,1841
1869,1836,1793
1890,1871,1849
1888,1894,1899
1872,1859,1862
1903,1858,1823
1900,1862,1846
1872,1878,1889
1850,1829,1833
1862,1804,1790
1908,1885,1867
1899,1888,1918
1850,1833,1858
1840,1831,1776
1885,1872,1840
1885,1919,1900
1872,1843,1856
1878,1806,1794
1883,1863,1825
1898,1881,1904
1870,1822,1847
1856,1773,1775
1874,1808,1821
1894,1887,1905
1891,1855,1872
1885,1857,1805
1871,1855,1819
1843,1872,1858
1854,1840,1837
1868,1827,1789
1883,1902,1838
1879,1915,1897
1874,1859,1859
1891,1872,1810
1904,1918,1856
1888,1922,1904
1875,1869,1856
1878,1841,1798
1878,1865,1834
1872,1891,1892
1867,1869,1856
1911,1887,1836
1928,1917,1875
1843,1851,1852
1831,1824,1801
1867,1830,1781
1902,1892,1842
1893,1892,1903
1904,1898,1872
1887,1879,1803
1861,1904,1820
1877,1874,1894
1919,1925,1904
1850,1789,1770
1873,1855,1820
1895,1941,1901
1848,1869,1826
1869,1821,1787
1918,1891,1856
1878,1878,1887
1843,1835,1831
1874,1821,1803
1917,1875,1872
1863,1853,1873
1847,1825,1829
1859,1804,1780
1927,1893,1875
1905,1872,1916
1826,1806,1803
1846,1776,1765
1895,1879,1854
1882,1872,1904
1885,1878,1874
1855,1776,1777
1882,1885,1843
1894,1932,1913
1834,1771,1824
1843,1783,1776
1901,1872,1845
1904,1776,1910
1910,1857,1882
1901,1870,1808
1867,1808,1797
1881,1847,1879
1853,1815,1821
1841,1847,1753
1891,1829,1840
1872,1838,1878
1843,1712,1824
1885,1815,1810
1905,1860,1863
1891,1884,1909
1867,1819,1844
1872,1779,1792
1887,1819,1840
1856,1817,1867
1871,1820,1843
1872,1791,1789
1881,1813,1836
1879,1909,1895
1873,1837,1859
1880,1795,1807
1889,1840,1845
1872,1850,1888
1879,1830,1867
1882,1706,1806
1902,1822,1857
1868,1856,1893
1863,1856,1851
1873,1786,1794
1894,1806,1843
1870,1815,1877
1831,1744,1811
1843,1761,1767
1887,1859,1837
1865,1822,1884
1827,1765,1828
1866,1795,1798
1897,1823,1845
1872,1823,1893
1855,1781,1851
1863,1786,1807
1885,1815,1863
1901,1877,1936
1862,1821,1867
1851,1771,1790
1856,1799,1816
1857,1829,1884
1883,1815,1876
1872,1783,1805
1874,1808,1847
1875,1850,1918
1879,1838,1883
1901,1817,1830
1902,1823,1847
1856,1811,1872
1851,1797,1840
1863,1776,1802
1886,1819,1853
1918,1886,1939
1898,1849,1885
1845,1757,1775
1855,1788,1818
1879,1843,1905
1867,1808,1859
1871,1778,1801
1903,1830,1871
1905,1873,1933
1886,1815,1872
1873,1776,1792
1904,1835,1850
1863,1830,1879
1866,1809,1855
1890,1805,1818
1920,1863,1873
1890,1851,1895
1887,1828,1869
1925,1847,1844
1887,1840,1840
1853,1833,1870
1855,1814,1849
1883,1814,1822
1915,1855,1875
1905,1883,1927
1874,1834,1861
1882,1807,1798
1904,1844,1858
1877,1856,1899
1890,1851,1883
1911,1825,1839
1879,1809,1844
1861,1823,1874
1866,1815,1856
1892,1809,1808
1902,1840,1859
1872,1839,1890
1872,1824,1863
1890,1830,1824
1905,1862,1871
1901,1873,1909
1867,1829,1851
1891,1831,1823
1927,1873,1887
1884,1887,1909
1851,1809,1841
1865,1791,1798
1874,1819,1840
1873,1858,1907
1875,1854,1878
1884,1820,1817
1898,1845,1857
1865,1847,1891
1871,1839,1867
1869,1802,1806
1904,1841,1865
1901,1888,1929
1851,1815,1850
1857,1794,1799
1886,1836,1847
1889,1865,1906
1878,1836,1875
1878,1803,1811
1902,1847,1858
1865,1847,1889
1863,1827,1862
1899,1815,1827
1917,1859,1869
1898,1869,1904
1869,1837,1859
1847,1787,1790
1872,1821,1831
1885,1867,1910
1882,1846,1874
1893,1831,1827
1895,1837,1850
1893,1853,1901
1887,1840,1874
1920,1842,1838
1891,1826,1849
1872,1851,1891
1890,1855,1883
1907,1830,1840
1895,1847,1856
1863,1843,1887
1919,1891,1907
1877,1802,1795
1862,1806,1817
1872,1830,1887
1888,1835,1877
1899,1825,1827
1904,1847,1862
1890,1863,1916
1892,1847,1895
1908,1835,1834
1883,1842,1847
1855,1846,1873
1869,1822,1856
1904,1809,1820
1879,1814,1838
1881,1855,1899
1907,1866,1898
1878,1803,1808
1881,1824,1841
1882,1855,1899
1887,1851,1872
1895,1828,1811
1909,1855,1863
1890,1861,1908
1875,1842,1864
1891,1835,1822
1908,1867,1872
1866,1860,1896
1859,1835,1854
1872,1808,1798
1902,1856,1856
1906,1881,1919
1875,1839,1868
1875,1804,1806
1904,1840,1862
1902,1891,1927
1911,1871,1895
1886,1822,1808
1878,1836,1837
1873,1856,1897
1889,1852,1872
1901,1840,1826
1925,1870,1872
1911,1905,1899
1898,1878,1872
1883,1840,1799
1857,1808,1777
1855,1839,1866
1881,1847,1824
1893,1837,1807
1904,1861,1875
1898,1883,1915
1904,1872,1909
1907,1854,1803
1915,1867,1867
1900,1889,1856
1914,1889,1923
1904,1849,1824
1909,1877,1826
1888,1891,1931
1894,1876,1871
1954,1914,1870
1890,1841,1817
1839,1815,1844
1827,1801,1818
1877,1822,1814
1929,1882,1868
1898,1888,1906
1861,1840,1842
1878,1831,1810
1895,1859,1847
1882,1874,1886
1883,1862,1868
1898,1845,1774
1906,1872,1870
1889,1889,1886
1885,1867,1872
