1925,1941,1935
1905,1883,1904
1792,1801,1727
1820,1803,1773
1863,1903,1881
1885,1828,1883
1878,1829,1810
1882,1931,1846
1879,1934,1903
1873,1889,1872
1871,1829,1798
1872,1904,1820
1856,1914,1882
1888,1905,1897
1909,1903,1840
1845,1856,1808
1837,1866,1849
1842,1856,1838
1870,1853,1794
1877,1875,1835
1875,1919,1895
1854,1879,1857
1875,1867,1813
1890,1887,1834
1871,1883,1868
1872,1871,1861
1885,1858,1811
1872,1869,1825
1855,1872,1872
1867,1872,1859
1904,1880,1838
1935,1936,1875
1839,1861,1854
1808,1819,1811
1845,1824,1777
1877,1871,1834
1882,1909,1901
1878,1904,1879
1883,1876,1808
1858,1868,1801
1840,1870,1857
1856,1869,1857
1914,1903,1837
1904,1904,1846
1815,1853,1831
1821,1838,1819
1870,1856,1797
1885,1877,1831
1856,1890,1875
1840,1855,1843
1855,1841,1792
1871,1859,1824
1856,1885,1882
1859,1872,1868
1862,1863,1799
1876,1888,1841
1872,1919,1904
1861,1873,1865
1867,1840,1793
1888,1875,1841
1838,1867,1855
1811,1830,1808
1855,1835,1799
1872,1861,1835
1872,1901,1904
1845,1857,1856
1845,1826,1790
1867,1856,1834
1863,1890,1893
1858,1872,1872
1872,1854,1810
1891,1877,1841
1904,1942,1921
1852,1856,1847
1840,1810,1776
1870,1857,1821
1887,1920,1910
1840,1859,1840
1847,1823,1776
1889,1887,1839
1874,1909,1904
1852,1872,1853
1865,1855,1803
1882,1871,1833
1858,1899,1872
1855,1884,1855
1870,1857,1794
1883,1885,1835
1879,1926,1907
1856,1878,1858
1846,1834,1776
1872,1871,1818
1879,1914,1898
1902,1931,1901
1892,1874,1817
1861,1873,1812
1828,1869,1853
1821,1840,1829
1856,1835,1807
1881,1877,1842
1872,1919,1881
1857,1882,1851
1878,1868,1808
1874,1875,1827
1833,1872,1860
1845,1871,1853
1878,1857,1808
1903,1894,1856
1895,1924,1921
1842,1867,1844
1842,1837,1776
1871,1866,1818
1867,1890,1889
1871,1882,1872
1879,1859,1819
1891,1895,1840
1862,1912,1879
1852,1877,1858
1827,1815,1766
1843,1839,1805
1883,1909,1913
1890,1907,1900
1849,1829,1791
1859,1857,1815
1875,1913,1902
1875,1891,1879
1842,1842,1786
1859,1860,1818
1849,1883,1875
1865,1878,1871
1883,1869,1814
1856,1866,1814
1846,1877,1882
1866,1893,1883
1843,1827,1792
1856,1851,1818
1862,1910,1904
1855,1886,1872
1858,1843,1808
1858,1851,1822
1850,1872,1873
1851,1870,1859
1866,1860,1807
1872,1869,1829
1846,1883,1872
1861,1887,1872
1855,1841,1794
1853,1844,1815
1866,1910,1901
1870,1889,1875
1856,1843,1790
1863,1856,1825
1857,1882,1878
1847,1859,1853
1872,1850,1808
1906,1917,1873
1873,1899,1903
1840,1853,1840
1840,1826,1772
1871,1872,1808
1872,1907,1903
1874,1898,1905
1875,1859,1856
1857,1851,1863
1858,1893,1907
1872,1926,1917
1872,1857,1793
1856,1842,1841
1865,1882,1873
1872,1876,1874
1907,1893,1858
1894,1884,1862
1856,1884,1915
1864,1872,1894
1872,1854,1807
1904,1899,1840
1883,1904,1895
1870,1877,1878
1841,1824,1779
1867,1860,1850
1872,1897,1899
1886,1904,1889
1878,1857,1808
1886,1874,1841
1872,1904,1903
1872,1904,1899
1872,1847,1807
1867,1849,1827
1869,1886,1905
1866,1881,1841
1884,1860,1846
1903,1878,1874
1840,1867,1897
1844,1866,1854
1894,1885,1836
1903,1904,1840
1847,1868,1871
1841,1845,1824
1869,1839,1837
1872,1859,1871
1886,1920,1920
1891,1910,1909
1838,1830,1782
1851,1857,1808
1853,1883,1874
1840,1849,1850
1872,1842,1796
1902,1879,1857
1888,1921,1921
1837,1845,1872
1845,1835,1794
1879,1867,1808
1885,1921,1902
1858,1870,1827
1871,1843,1811
1891,1888,1861
1878,1908,1933
1833,1851,1872
1842,1815,1807
1889,1865,1869
1889,1904,1872
1872,1894,1856
1893,1878,1840
1861,1849,1808
1840,1869,1893
1853,1876,1856
1915,1901,1856
1872,1883,1810
1837,1870,1826
1854,1864,1855
1871,1833,1779
1890,1872,1855
1882,1899,1908
1855,1868,1873
1865,1852,1805
1885,1874,1844
1877,1907,1906
1872,1892,1881
1859,1845,1808
1873,1856,1829
1895,1906,1919
1904,1904,1906
1862,1847,1799
1850,1857,1809
1866,1904,1887
1859,1873,1817
1867,1847,1801
1872,1872,1823
1872,1891,1882
1850,1862,1849
1863,1832,1803
1889,1866,1846
1873,1895,1970
1874,1904,1927
1890,1878,1827
1866,1854,1827
1856,1875,1872
1843,1863,1854
1872,1847,1808
1890,1881,1847
1886,1915,1909
1873,1886,1872
1890,1879,1827
1920,1922,1872
1840,1863,1845
1829,1851,1820
1875,1868,1843
1874,1872,1850
1859,1891,1919
1866,1890,1885
1889,1862,1833
1885,1869,1845
1872,1903,1947
1881,1905,1915
1881,1867,1771
1885,1865,1856
1888,1903,1873
1891,1901,1875
1911,1897,1811
1856,1854,1801
1855,1889,1854
1878,1904,1930
1892,1879,1831
1855,1841,1811
1842,1870,1847
1871,1874,1867
1885,1863,1813
1903,1894,1839
1883,1915,1820
1886,1925,1910
1871,1854,1775
1887,1873,1842
1875,1897,1889
1874,1902,1877
1919,1915,1858
1903,1895,1845
1849,1872,1865
1815,1844,1823
1856,1853,1808
1888,1882,1851
1887,1918,1917
1899,1923,1909
1890,1883,1834
1868,1860,1810
1853,1877,1930
1857,1873,1841
1856,1838,1783
1889,1863,1838
1867,1885,1808
1872,1876,1881
1879,1858,1808
1897,1885,1855
1915,1953,1982
1874,1901,1936
1835,1824,1770
1861,1856,1813
1889,1910,1913
1885,1892,1873
1872,1844,1839
1877,1869,1830
1872,1902,1899
1893,1907,1899
1917,1894,1841
1904,1904,1840
1841,1871,1861
1837,1840,1840
1870,1843,1806
1910,1893,1858
1904,1930,1922
1869,1888,1873
1856,1845,1792
1902,1889,1855
1879,1894,1900
1872,1885,1875
1870,1841,1808
1883,1865,1831
1877,1899,1902
1873,1894,1888
1889,1867,1825
1893,1878,1839
1885,1911,1903
1889,1905,1886
1911,1903,1843
1886,1875,1839
1831,1835,1843
1833,1843,1845
1853,1835,1792
1857,1856,1839
1921,1926,1930
1826,1866,1861
1835,1810,1787
1917,1872,1849
1879,1906,1911
1850,1863,1859
1830,1834,1792
1878,1861,1838
1855,1906,1913
1936,1915,1907
1877,1863,1826
1862,1856,1822
1840,1882,1878
1853,1856,1847
1916,1843,1815
1904,1863,1840
1874,1899,1895
1822,1856,1862
1889,1847,1812
1898,1873,1851
1872,1904,1903
1872,1881,1872
1870,1872,1829
1872,1872,1822
1856,1887,1882
1858,1882,1887
1840,1865,1831
1875,1857,1827
1857,1878,1884
1917,1897,1895
1936,1888,1856
1837,1847,1821
1791,1847,1851
1850,1846,1857
1870,1840,1814
1903,1874,1853
1894,1915,1920
1886,1904,1898
1872,1853,1812
1879,1859,1827
1858,1873,1872
1872,1878,1875
1935,1893,1863
1904,1857,1842
1846,1855,1851
1851,1843,1839
1933,1850,1827
1957,1888,1868
1922,1914,1889
1872,1835,1829
1872,1838,1781
1918,1875,1840
1887,1904,1904
1831,1875,1869
1843,1849,1808
1904,1892,1861
1942,1899,1904
1883,1872,1873
1885,1861,1813
1934,1888,1850
1840,1878,1877
1892,1847,1853
1883,1846,1799
1899,1872,1841
1889,1898,1894
1857,1869,1863
1869,1840,1802
1856,1871,1825
1904,1904,1889
1834,1904,1899
1911,1871,1831
1862,1844,1808
1876,1885,1882
1894,1904,1898
1890,1866,1812
1873,1861,1813
1875,1890,1884
1858,1859,1855
1882,1870,1817
1889,1873,1835
1817,1865,1872
1861,1862,1851
1862,1849,1811
1898,1869,1834
1866,1892,1894
1899,1893,1885
1905,1887,1840
1889,1857,1820
1744,1873,1872
1922,1872,1859
1906,1872,1819
1913,1891,1846
1897,1922,1908
1865,1870,1866
1868,1847,1804
1881,1856,1826
1875,1881,1891
1869,1873,1879
1872,1846,1811
1882,1858,1826
1872,1878,1884
1842,1882,1890
1955,1866,1837
1905,1891,1849
1883,1890,1872
1839,1851,1853
1904,1834,1814
1867,1885,1850
1856,1899,1902
1862,1873,1873
1820,1840,1798
1886,1878,1840
1941,1921,1924
1819,1872,1859
1835,1823,1777
1947,1861,1829
1846,1898,1891
1873,1873,1879
1893,1846,1814
1860,1883,1849
1869,1909,1920
1875,1878,1887
1877,1878,1813
1856,1851,1817
1866,1872,1878
1853,1875,1882
1873,1839,1799
1875,1855,1814
1887,1903,1898
1895,1888,1887
1883,1855,1811
1872,1870,1827
1890,1907,1904
1856,1872,1857
1867,1852,1802
1874,1863,1822
1872,1883,1883
1872,1870,1863
1887,1845,1799
1915,1890,1840
1911,1917,1907
1925,1869,1838
1838,1817,1773
1872,1851,1821
1965,1896,1904
1887,1890,1895
1875,1865,1819
1857,1870,1823
1857,1894,1893
1861,1872,1872
1884,1846,1799
1904,1881,1844
1919,1935,1920
1872,1883,1872
1836,1819,1786
1872,1862,1822
1931,1945,1939
1874,1883,1872
1850,1814,1765
1860,1833,1783
1872,1885,1874
1873,1872,1872
1884,1852,1811
1898,1863,1833
1893,1899,1893
1881,1881,1872
1874,1840,1799
1879,1855,1810
1886,1886,1879
1874,1873,1863
1903,1874,1824
1939,1911,1868
1871,1881,1871
1859,1848,1841
1869,1825,1775
1897,1865,1817
1881,1885,1881
1879,1895,1872
1867,1828,1778
1887,1855,1808
1907,1907,1897
1899,1896,1879
1875,1855,1791
1878,1842,1803
1897,1887,1886
1903,1899,1884
1894,1849,1803
1891,1872,1811
1859,1867,1851
1859,1857,1846
1885,1848,1801
1914,1883,1836
1899,1903,1885
1879,1878,1871
1903,1870,1813
1902,1874,1837
1895,1894,1891
1895,1891,1883
1887,1857,1814
1877,1853,1808
1869,1873,1872
1883,1879,1872
1928,1901,1853
1903,1867,1834
1897,1891,1888
1875,1872,1868
1858,1818,1773
1874,1837,1803
1895,1902,1888
1898,1882,1881
1898,1857,1827
1917,1890,1851
1895,1904,1894
1879,1874,1873
1904,1858,1820
1931,1895,1856
1887,1887,1883
1885,1875,1869
1898,1854,1815
1917,1886,1841
1873,1878,1871
1885,1872,1861
1904,1858,1808
1937,1909,1856
1911,1898,1893
1871,1862,1854
1907,1873,1815
1920,1888,1843
1882,1877,1871
1878,1866,1859
1894,1843,1802
1922,1885,1827
1902,1894,1888
1886,1871,1865
1922,1879,1824
1919,1874,1822
1904,1900,1882
1907,1886,1873
1925,1875,1812
1913,1871,1809
1888,1883,1867
1894,1872,1859
1935,1867,1824
1929,1891,1839
1899,1877,1872
1904,1868,1861
1923,1858,1809
1943,1892,1837
1917,1910,1886
1882,1872,1846
1890,1837,1783
1924,1869,1827
1898,1885,1872
1893,1875,1872
1920,1854,1823
1942,1886,1849
1892,1869,1863
1879,1855,1845
1899,1840,1806
1931,1866,1831
1927,1899,1899
1906,1895,1884
1907,1855,1814
1920,1858,1829
1910,1904,1886
1898,1879,1882
1892,1840,1794
1905,1856,1812
1945,1927,1920
1920,1910,1901
1885,1854,1797
1891,1857,1809
1900,1902,1890
1901,1873,1873
1897,1845,1808
1911,1872,1836
1919,1908,1900
1908,1889,1874
1899,1845,1804
1923,1877,1839
1922,1908,1910
1921,1907,1903
1920,1863,1822
1900,1858,1811
1882,1865,1863
1905,1872,1873
1946,1889,1856
1917,1860,1834
1895,1885,1882
1904,1874,1877
1911,1851,1821
1943,1883,1851
1907,1889,1885
1915,1892,1898
1879,1838,1794
1894,1865,1814
1903,1898,1890
1900,1901,1880
1922,1874,1825
1910,1859,1819
1894,1904,1883
1906,1893,1883
1887,1845,1797
1901,1859,1824
1917,1980,1904
1904,1897,1879
1900,1840,1805
1909,1857,1821
1897,1856,1875
1857,1837,1850
1882,1847,1791
1926,1885,1843
1918,1918,1898
1876,1857,1867
1904,1869,1809
1903,1897,1824
1901,1905,1898
1882,1899,1870
1912,1883,1823
1899,1835,1812
1871,1851,1858
1876,1872,1857
1899,1872,1807
1918,1916,1839
1926,1925,1910
1907,1879,1898
1851,1813,1767
1877,1840,1792
1906,1888,1885
1904,1882,1879
1914,1839,1826
1911,1870,1829
1865,1831,1853
1877,1873,1861
1914,1842,1824
1872,1808,1786
1869,1883,1841
1881,1859,1862
1925,1873,1834
1903,1842,1811
1883,1883,1872
1877,1862,1857
1891,1863,1797
1901,1854,1815
1898,1861,1879
1898,1885,1872
1876,1833,1787
1902,1845,1808
1893,1876,1872
1870,1858,1856
1894,1846,1806
1936,1891,1843
1902,1891,1887
1874,1843,1861
1889,1854,1806
1889,1849,1808
1873,1840,1856
1888,1861,1863
1899,1826,1798
1910,1861,1820
1895,1859,1875
1885,1874,1865
1904,1863,1811
1903,1821,1815
1886,1921,1881
1894,1927,1871
1875,1849,1783
1889,1881,1795
1904,1925,1884
1904,1900,1875
1887,1839,1789
1914,1904,1828
1911,1937,1903
1902,1892,1882
1877,1849,1791
1921,1912,1842
1887,1879,1883
1849,1852,1834
1862,1854,1783
1900,1876,1828
1920,1910,1904
1886,1876,1874
1884,1841,1793
1899,1861,1814
1923,1927,1910
1881,1883,1870
1874,1846,1793
1902,1877,1821
1935,1974,1921
1904,1872,1895
1862,1822,1773
1874,1865,1792
1904,1831,1882
1904,1881,1881
1890,1854,1798
1898,1856,1821
1902,1874,1895
1874,1875,1867
1894,1823,1809
1920,1875,1842
1904,1871,1897
1879,1881,1866
1894,1850,1794
1901,1867,1808
1883,1892,1873
1883,1891,1869
1893,1866,1810
1911,1903,1842
1891,1903,1872
1891,1887,1872
1881,1851,1791
1872,1858,1792
1877,1845,1873
1893,1851,1879
1890,1846,1808
1919,1879,1843
1889,1893,1883
1857,1891,1841
1892,1917,1805
1926,1881,1849
1887,1901,1874
1851,1866,1838
1899,1848,1803
1927,1790,1840
1885,1910,1872
1856,1851,1846
1872,1843,1794
1909,1887,1839
1894,1887,1893
1874,1883,1869
1889,1821,1810
1891,1881,1822
1871,1874,1872
1873,1872,1872
1904,1868,1840
1919,1877,1856
1875,1880,1890
1853,1862,1867
1871,1879,1808
1914,1911,1862
1875,1847,1875
1859,1843,1857
1887,1858,1819
1865,1838,1803
1859,1883,1870
1887,1913,1897
1871,1814,1811
1867,1845,1809
1867,1874,1875
1872,1876,1877
1883,1875,1819
1898,1842,1832
1866,1858,1869
1871,1877,1873
1908,1870,1849
1907,1861,1847
1857,1898,1872
1856,1867,1857
1857,1911,1802
1897,1869,1840
1883,1907,1899
1875,1891,1887
1870,1839,1808
1858,1850,1802
1855,1881,1861
1872,1887,1879
1867,1850,1810
1887,1877,1822
1873,1899,1879
1847,1868,1856
1864,1847,1802
1902,1893,1841
1904,1933,1915
1849,1882,1857
1846,1840,1788
1877,1877,1826
1904,1931,1919
1898,1921,1909
1841,1842,1790
1851,1851,1795
1872,1904,1891
1863,1890,1879
1886,1874,1824
1862,1851,1814
1851,1875,1870
1856,1881,1873
1882,1863,1823
1908,1904,1861
1872,1901,1889
1868,1899,1882
1859,1856,1808
1883,1873,1833
1891,1920,1911
1889,1918,1902
1875,1879,1818
1870,1872,1808
1867,1887,1873
1861,1888,1877
1881,1879,1834
1886,1886,1843
1854,1890,1888
1853,1875,1877
1859,1844,1808
1873,1869,1826
1850,1890,1879
1859,1887,1885
1881,1873,1829
1884,1883,1841
1883,1925,1910
1871,1900,1891
1857,1847,1808
1870,1860,1829
1857,1895,1892
1864,1901,1892
1868,1879,1840
1870,1888,1837
1868,1913,1895
1840,1875,1869
1827,1827,1786
1862,1869,1825
1896,1951,1919
1854,1887,1873
1850,1840,1797
1877,1877,1840
1856,1899,1884
1833,1872,1858
1856,1854,1806
1886,1885,1840
1871,1904,1889
1848,1888,1875
1863,1859,1814
1866,1872,1824
1874,1918,1894
1872,1919,1899
1862,1886,1814
1872,1883,1825
1821,1863,1851
1812,1861,1849
1837,1842,1802
1873,1873,1839
1884,1925,1915
1872,1913,1898
1856,1861,1810
1861,1863,1812
1855,1898,1882
1872,1900,1897
1872,1869,1815
1875,1872,1815
1856,1898,1871
1856,1901,1874
1853,1872,1822
1879,1907,1859
1888,1948,1920
1840,1885,1872
1835,1843,1788
1862,1872,1823
1865,1910,1896
1840,1878,1875
1841,1854,1808
1867,1870,1827
1889,1943,1928
1854,1894,1888
1841,1857,1808
1856,1872,1817
1857,1909,1890
1863,1911,1889
1850,1846,1806
1857,1866,1813
1857,1904,1886
1851,1894,1883
1862,1867,1823
1861,1867,1813
1843,1887,1874
1851,1895,1872
1867,1872,1823
1883,1905,1845
1837,1893,1869
1835,1883,1867
1853,1856,1809
1881,1887,1840
1899,1934,1923
1868,1914,1898
1842,1856,1801
1847,1856,1808
1872,1911,1899
1856,1890,1885
1874,1887,1836
1868,1872,1827
1831,1871,1858
1845,1880,1860
1863,1859,1808
1872,1872,1823
1867,1905,1896
1862,1893,1888
1872,1867,1829
1887,1883,1840
1875,1905,1903
1863,1893,1885
1857,1843,1811
1872,1863,1818
1861,1903,1887
1852,1885,1869
1889,1895,1841
1863,1861,1823
1829,1872,1862
1839,1874,1859
1888,1884,1840
1866,1865,1824
1826,1856,1909
1828,1866,1871
1858,1851,1802
1883,1877,1834
1877,1919,1856
1845,1895,1857
1857,1869,1817
1882,1879,1843
1871,1904,1895
1850,1893,1906
1867,1887,1824
1863,1887,1804
1846,1902,1897
1840,1885,1901
1838,1825,1778
1858,1862,1776
1883,1919,1936
1854,1883,1879
1843,1837,1790
1869,1855,1797
1863,1885,1872
1857,1881,1868
1872,1860,1808
1874,1872,1820
1872,1902,1886
1869,1898,1879
1851,1855,1798
1866,1862,1812
1853,1888,1852
1855,1894,1873
1875,1891,1826
1883,1906,1823
1827,1867,1833
1823,1866,1869
1840,1844,1798
1867,1871,1813
1871,1904,1890
1852,1893,1873
1856,1856,1796
1859,1863,1809
1863,1898,1877
1856,1882,1911
1851,1845,1791
1872,1875,1819
1854,1904,1878
1841,1897,1861
1860,1872,1807
1875,1879,1844
1861,1915,1882
1879,1931,1905
1872,1883,1835
1840,1858,1776
1840,1891,1878
1808,1846,1793
1840,1840,1778
1859,1859,1770
1863,1894,1834
1856,1899,1867
1866,1875,1783
1875,1878,1814
1862,1893,1893
1853,1885,1882
1848,1847,1807
1869,1874,1796
1866,1905,1914
1850,1887,1890
1856,1857,1811
1878,1884,1840
1885,1921,1906
1861,1907,1881
1839,1841,1797
1847,1856,1808
1840,1882,1853
1856,1900,1913
1863,1871,1813
1863,1873,1806
1853,1904,1874
1856,1904,1883
1874,1875,1828
1867,1877,1814
1826,1873,1847
1828,1873,1859
1842,1871,1808
1849,1870,1810
1843,1899,1877
1846,1888,1875
1870,1880,1827
1888,1901,1846
1867,1916,1876
1825,1864,1855
1840,1856,1786
1872,1879,1819
1887,1919,1983
1866,1894,1871
1845,1849,1797
1856,1859,1803
1862,1903,1911
1872,1903,1823
1870,1866,1806
1877,1895,1824
1877,1920,1899
1879,1911,1894
1846,1841,1795
1867,1862,1782
1877,1909,1890
1900,1933,1907
1890,1878,1827
1840,1840,1787
1855,1879,1830
1871,1907,1843
1861,1856,1798
1869,1873,1792
1877,1918,1905
1857,1904,1853
1854,1855,1808
1872,1885,1763
1872,1922,1883
1867,1914,1869
1876,1897,1810
1882,1894,1854
1867,1904,1877
1882,1936,1925
1879,1878,1791
1856,1846,1855
1857,1888,1878
1855,1883,1851
1871,1874,1818
1847,1855,1810
1863,1904,1872
1857,1903,1853
1870,1877,1877
1902,1905,1837
1885,1919,1894
1856,1888,1893
1862,1872,1823
1883,1897,1837
1887,1939,1904
1850,1877,1863
1846,1845,1802
1877,1876,1838
1889,1925,1900
1877,1921,1888
1875,1891,1803
1902,1903,1905
1873,1911,1954
1902,1936,1885
1858,1857,1786
1854,1850,1778
1858,1893,1846
1859,1904,1907
1872,1887,1818
1895,1910,1838
1881,1921,1898
1861,1899,1863
1839,1840,1783
1863,1865,1793
1887,1917,1893
1874,1917,1889
1853,1857,1745
1871,1872,1819
1879,1911,1882
1872,1905,1879
1887,1878,1821
1889,1887,1828
1874,1905,1878
1892,1926,1897
1934,1932,1868
1893,1888,1821
1837,1875,1839
1862,1911,1872
1845,1853,1786
1873,1870,1808
1868,1886,1870
1863,1898,1867
1859,1865,1794
1877,1879,1819
1888,1920,1894
1863,1906,1873
1861,1872,1801
1888,1876,1824
1892,1911,1897
1871,1903,1886
1885,1879,1825
1893,1895,1833
1858,1897,1872
1847,1890,1869
1861,1869,1801
1889,1893,1824
1903,1936,1904
1878,1919,1895
1831,1838,1787
1872,1863,1809
1866,1930,1907
1837,1913,1886
1873,1840,1787
1889,1840,1786
1852,1890,1881
1837,1891,1885
1871,1873,1814
1866,1904,1817
1904,1913,1878
1889,1904,1878
1906,1876,1813
1883,1869,1817
1919,1902,1877
1842,1899,1872
1881,1863,1802
1879,1897,1829
1885,1910,1887
1867,1889,1871
1859,1854,1802
1878,1877,1821
1901,1915,1886
1856,1903,1875
1902,1885,1817
1909,1887,1820
1863,1916,1885
1889,1919,1904
1861,1850,1799
1861,1867,1806
1866,1914,1886
1858,1904,1875
1856,1872,1806
1872,1887,1813
1867,1920,1889
1876,1919,1897
1856,1863,1802
1870,1883,1807
1875,1907,1876
1877,1904,1887
1851,1872,1825
1891,1895,1838
1859,1920,1879
1856,1895,1872
1868,1869,1811
1885,1886,1831
1878,1924,1904
1881,1915,1904
1872,1879,1826
1917,1902,1840
1898,1931,1904
1903,1932,1904
1863,1905,1845
1791,1857,1800
1847,1901,1872
1849,1885,1866
1834,1850,1798
1871,1880,1821
1875,1922,1893
1872,1911,1891
1859,1879,1833
1870,1875,1834
1872,1916,1905
1871,1927,1904
1870,1883,1811
1874,1886,1811
1887,1906,1875
1837,1915,1891
1897,1905,1841
1902,1930,1849
1840,1910,1873
1822,1857,1840
1840,1843,1796
1893,1887,1838
1870,1904,1882
1867,1903,1870
1871,1876,1809
1875,1889,1826
1874,1920,1890
1867,1910,1891
1873,1888,1838
1899,1909,1842
1891,1941,1904
1818,1883,1856
1807,1854,1800
1822,1887,1822
1902,1930,1889
1871,1885,1872
1865,1867,1810
1951,1891,1837
1958,1954,1911
1931,1936,1897
1842,1855,1786
1862,1854,1794
1882,1904,1882
1894,1922,1903
1878,1884,1809
1882,1874,1810
1872,1904,1882
1862,1902,1885
1874,1878,1821
1885,1895,1826
1871,1921,1888
1857,1899,1876
1855,1878,1825
1888,1897,1835
1872,1934,1904
1839,1924,1890
1862,1884,1822
1922,1893,1836
1860,1936,1904
1901,1909,1883
1869,1839,1792
1846,1861,1814
1910,1925,1897
1844,1910,1888
1776,1868,1807
1927,1866,1802
1851,1923,1890
1830,1911,1895
1837,1872,1819
1904,1888,1830
1858,1924,1897
1872,1905,1886
1873,1872,1822
1879,1889,1835
1884,1918,1901
1855,1903,1879
1862,1887,1820
1886,1899,1840
1839,1905,1878
1847,1901,1865
1850,1869,1808
1872,1891,1826
1877,1936,1904
1872,1932,1902
1903,1917,1838
1773,1885,1809
1897,1909,1872
1849,1920,1897
1902,1904,1834
1859,1883,1807
1847,1916,1883
1914,1895,1873
1840,1878,1810
1858,1906,1837
1872,1938,1900
1829,1923,1874
1852,1910,1837
1903,1929,1842
1862,1925,1879
1775,1898,1868
1843,1873,1799
1932,1890,1809
1878,1938,1895
1899,1968,1925
1861,1905,1824
1839,1863,1792
1842,1903,1856
1855,1913,1872
1872,1893,1813
1891,1926,1838
1883,1947,1892
1871,1947,1888
1869,1904,1813
1887,1918,1833
1881,1945,1895
1870,1935,1878
1863,1894,1815
1863,1888,1815
1881,1938,1891
1865,1918,1881
1856,1886,1805
1901,1930,1834
1846,1904,1856
1831,1889,1850
1872,1892,1819
1905,1925,1837
1873,1927,1879
1869,1923,1878
1858,1881,1810
1857,1886,1809
1867,1915,1874
1877,1922,1893
1889,1913,1838
1873,1904,1823
1856,1909,1871
1872,1920,1887
1877,1894,1823
1872,1879,1809
1874,1919,1882
1856,1902,1873
1839,1854,1779
1872,1881,1811
1883,1923,1890
1865,1909,1878
1849,1847,1791
1856,1866,1793
1858,1909,1874
1861,1899,1881
1872,1883,1835
1877,1884,1833
1867,1904,1891
1858,1901,1886
1895,1919,1847
1884,1884,1829
1810,1842,1831
1810,1840,1837
1869,1856,1813
1882,1872,1833
1858,1883,1878
1844,1872,1868
1841,1837,1793
1869,1851,1809
1886,1901,1894
1881,1899,1895
1842,1839,1806
1852,1842,1809
1842,1871,1867
1862,1878,1890
1878,1841,1831
1872,1843,1818
1841,1852,1857
1831,1835,1853
1845,1808,1795
1870,1820,1810
1866,1854,1877
1843,1845,1865
1861,1827,1810
1875,1841,1831
1876,1872,1893
1857,1853,1878
1863,1831,1820
1893,1845,1840
1854,1834,1870
1859,1844,1882
1855,1819,1808
1875,1831,1826
1898,1872,1913
1853,1843,1877
1838,1779,1787
1826,1757,1771
1840,1805,1856
1851,1821,1875
1861,1799,1813
1884,1825,1831
1875,1853,1890
1856,1834,1872
1871,1798,1815
1867,1795,1802
1870,1845,1882
1872,1846,1892
1909,1856,1847
1887,1814,1820
1807,1761,1808
1814,1763,1826
1875,1787,1809
1879,1795,1812
1872,1819,1872
1865,1823,1888
1876,1801,1834
1879,1799,1823
1872,1819,1884
1872,1811,1888
1861,1774,1808
1887,1801,1836
1895,1852,1905
1902,1847,1913
1851,1745,1795
1842,1751,1779
1829,1759,1847
1837,1757,1859
1875,1755,1831
1895,1769,1830
1903,1828,1910
1867,1795,1886
1856,1741,1808
1883,1761,1829
1902,1810,1922
1883,1805,1907
1844,1714,1807
1852,1714,1794
1879,1769,1878
1857,1760,1874
1862,1719,1802
1898,1745,1829
1895,1776,1893
1870,1755,1874
1855,1723,1798
1911,1786,1853
1913,1808,1920
1841,1734,1859
1808,1669,1759
1874,1739,1808
1883,1773,1887
1863,1744,1872
1874,1724,1824
1909,1776,1841
1886,1775,1890
1829,1719,1847
1856,1721,1799
1929,1797,1863
1862,1757,1869
1818,1716,1840
1855,1712,1798
1883,1735,1814
1870,1744,1882
1856,1741,1878
1872,1731,1823
1898,1719,1839
1863,1740,1872
1851,1786,1861
1878,1717,1822
1904,1821,1842
1902,1802,1907
1839,1727,1857
1835,1705,1779
1873,1711,1808
1872,1755,1874
1851,1745,1871
1865,1776,1808
1890,1782,1815
1878,1756,1885
1872,1747,1885
1870,1731,1808
1859,1775,1807
1868,1759,1877
1874,1778,1897
1861,1687,1808
1871,1717,1810
1876,1765,1877
1863,1746,1874
1831,1712,1775
1839,1667,1778
1870,1733,1876
1872,1744,1890
1901,1715,1844
1878,1725,1820
1871,1712,1874
1895,1738,1907
1877,1684,1814
1877,1663,1799
1853,1631,1847
1856,1669,1859
1850,1642,1792
1900,1682,1823
1897,1709,1889
1865,1679,1872
1887,1676,1827
1873,1648,1804
1845,1661,1866
1872,1688,1901
1891,1691,1835
1877,1613,1813
1853,1680,1857
1821,1570,1840
1860,1616,1807
1875,1588,1818
1879,1665,1887
1879,1653,1893
1849,1596,1799
1857,1595,1799
1872,1650,1873
1885,1705,1888
1897,1681,1839
1909,1749,1842
1871,1626,1867
1854,1658,1859
1844,1616,1785
1856,1618,1791
1845,1651,1856
1867,1642,1877
1859,1633,1808
1887,1683,1819
1872,1665,1872
1849,1645,1856
1867,1600,1799
1883,1667,1811
1889,1731,1895
1872,1705,1886
1859,1654,1808
1903,1683,1831
1882,1699,1874
1859,1698,1871
1879,1677,1808
1900,1693,1819
1886,1713,1883
1849,1640,1863
1856,1653,1797
1891,1712,1810
1877,1747,1872
1856,1712,1864
1871,1648,1809
1883,1729,1814
1898,1758,1903
1862,1605,1872
1858,1679,1793
1895,1701,1827
1901,1754,1889
1875,1738,1881
1879,1600,1817
1872,1697,1802
1872,1737,1878
1884,1755,1898
1850,1691,1790
1867,1723,1797
1844,1691,1845
1850,1717,1856
1877,1725,1819
1905,1744,1831
1883,1744,1879
1868,1762,1879
1895,1766,1830
1893,1734,1830
1872,1744,1879
1877,1772,1901
1873,1750,1823
1866,1774,1806
1889,1759,1897
1863,1782,1877
1855,1679,1805
1840,1703,1776
1851,1725,1856
1865,1808,1882
1859,1709,1808
1883,1737,1833
1883,1808,1893
1834,1746,1861
1866,1801,1809
1904,1806,1836
1861,1846,1873
1845,1778,1861
1898,1789,1842
1881,1794,1823
1850,1778,1869
1821,1750,1845
1843,1755,1803
1904,1810,1846
1899,1840,1894
1845,1797,1859
1850,1771,1796
1881,1806,1823
1892,1840,1902
1906,1867,1920
1856,1766,1795
1882,1809,1808
1857,1808,1866
1847,1871,1868
1851,1797,1808
1858,1805,1802
1877,1890,1891
1869,1899,1887
1845,1744,1798
1879,1807,1813
1881,1856,1893
