1859,1779,1862
1857,1775,1871
1875,1782,1820
1884,1787,1830
1878,1820,1891
1873,1808,1894
1868,1755,1815
1876,1762,1810
1885,1803,1890
1850,1782,1872
1867,1762,1810
1888,1759,1823
1870,1791,1872
1860,1805,1872
1879,1798,1829
1914,1823,1847
1867,1795,1867
1811,1758,1837
1839,1751,1805
1881,1801,1830
1878,1824,1886
1857,1805,1881
1852,1781,1811
1872,1805,1815
1875,1821,1878
1840,1788,1865
1840,1757,1802
1867,1794,1823
1877,1847,1890
1887,1857,1903
1850,1776,1792
1846,1770,1782
1856,1817,1862
1879,1849,1901
1887,1806,1831
1887,1805,1811
1850,1826,1857
1851,1830,1874
1858,1833,1810
1874,1809,1814
1857,1822,1854
1851,1833,1856
1871,1823,1811
1894,1847,1820
1882,1869,1878
1872,1847,1872
1853,1805,1791
1875,1824,1807
1872,1859,1875
1863,1872,1879
1852,1824,1806
1886,1846,1822
1876,1869,1881
1835,1834,1851
1859,1824,1806
1874,1823,1806
1863,1854,1867
1866,1865,1872
1889,1872,1838
1873,1845,1822
1847,1839,1850
1840,1840,1851
1869,1841,1808
1894,1872,1827
1851,1872,1855
1846,1858,1862
1856,1821,1806
1851,1819,1794
1849,1867,1858
1860,1894,1889
1863,1840,1815
1883,1861,1827
1857,1878,1865
1823,1840,1841
1840,1829,1789
1868,1855,1804
1840,1867,1843
1827,1872,1864
1852,1859,1823
1857,1841,1808
1847,1863,1854
1845,1871,1861
1851,1834,1809
1866,1845,1806
1847,1871,1864
1840,1867,1872
1855,1845,1813
1872,1879,1814
1872,1904,1877
1847,1866,1869
1863,1869,1815
1856,1840,1797
1835,1856,1842
1831,1867,1850
1863,1867,1808
1883,1861,1825
1861,1872,1862
1847,1861,1870
1856,1855,1818
1870,1865,1818
1855,1892,1867
1861,1901,1888
1868,1858,1811
1862,1851,1804
1845,1872,1861
1849,1888,1872
1860,1853,1821
1859,1847,1817
1845,1877,1870
1840,1882,1871
1856,1856,1821
1871,1856,1818
1862,1911,1883
1843,1897,1881
1850,1847,1819
1885,1887,1834
1835,1878,1868
1844,1888,1882
1867,1857,1826
1852,1845,1797
1856,1886,1872
1843,1881,1879
1823,1840,1805
1842,1854,1814
1846,1881,1874
1850,1890,1878
1840,1851,1808
1859,1859,1811
1867,1905,1883
1851,1907,1886
1872,1871,1851
1872,1856,1837
1857,1872,1889
1821,1871,1866
1823,1824,1803
1872,1869,1840
1826,1872,1860
1813,1863,1855
1841,1841,1812
1861,1862,1822
1848,1892,1872
1851,1911,1889
1840,1856,1813
1863,1808,1823
1849,1899,1872
1841,1925,1871
1852,1899,1815
1872,1856,1823
1833,1861,1852
1831,1839,1862
1835,1862,1794
1850,1847,1808
1870,1920,1889
1839,1844,1870
1821,1826,1778
1843,1861,1794
1842,1902,1868
1830,1890,1861
1840,1824,1802
1859,1873,1808
1866,1904,1882
1871,1937,1904
1822,1846,1778
1814,1806,1766
1824,1855,1845
1835,1874,1866
1859,1867,1821
1865,1895,1811
1851,1879,1861
1866,1915,1879
1819,1814,1787
1837,1893,1791
1853,1874,1872
1851,1872,1862
1856,1871,1799
1874,1859,1809
1876,1883,1885
1872,1904,1886
1849,1842,1803
1840,1799,1794
1840,1877,1858
1831,1856,1870
1851,1846,1811
1873,1864,1823
1858,1936,1866
1818,1859,1845
1834,1878,1792
1866,1865,1812
1856,1897,1869
1843,1926,1877
1861,1897,1825
1856,1872,1808
1831,1894,1851
1830,1890,1859
1857,1839,1815
1869,1939,1824
1827,1883,1842
1814,1914,1854
1833,1855,1802
1845,1850,1797
1827,1870,1854
1811,1846,1850
1835,1833,1802
1867,1887,1830
1840,1914,1870
1823,1901,1872
1840,1895,1813
1853,1904,1808
1847,1902,1868
1856,1885,1885
1856,1854,1822
1842,1872,1806
1820,1862,1844
1825,1918,1859
1866,1891,1830
1840,1872,1796
1830,1923,1844
1814,1905,1847
1826,1838,1803
1855,1904,1818
1843,1932,1862
1813,1910,1847
1825,1845,1791
1856,1875,1806
1856,1934,1869
1831,1919,1865
1831,1878,1791
1847,1890,1807
1851,1942,1875
1856,1906,1888
1827,1904,1795
1835,1875,1793
1846,1933,1867
1856,2000,1885
1879,1929,1841
1833,1858,1785
1806,1879,1835
1818,1898,1859
1867,1893,1840
1861,1891,1822
1855,1931,1875
1830,1908,1860
1846,1885,1806
1873,1915,1824
1866,1952,1878
1846,1936,1867
1845,1915,1803
1853,1872,1802
1867,1929,1881
1855,1946,1887
1823,1898,1783
1840,1853,1789
1856,1895,1873
1841,1902,1872
1851,1917,1821
1855,1951,1810
1840,1965,1859
1843,1827,1877
1853,1938,1822
1866,1785,1813
1856,1927,1874
1840,1926,1875
1872,1892,1840
1851,1915,1798
1824,1891,1843
1823,1851,1862
1854,1867,1814
1882,1977,1838
1851,1885,1872
1825,1973,1861
1824,1866,1799
1855,1862,1811
1863,1910,1881
1843,1922,1882
1860,1907,1826
1872,1874,1827
1858,1936,1873
1871,1966,1914
1840,1865,1818
1839,1852,1802
1846,1908,1867
1866,1930,1889
1855,1878,1819
1868,1900,1831
1872,1929,1894
1865,1929,1894
1854,1846,1814
1866,1845,1825
1865,1886,1886
1867,1927,1898
1865,1891,1837
1887,1909,1840
1879,1920,1904
1845,1930,1873
1842,1853,1795
1874,1859,1814
1899,1940,1902
1875,1894,1901
1851,1873,1808
1869,1872,1808
1865,1920,1870
1843,1878,1872
1866,1858,1818
1898,1887,1832
1890,1920,1891
1877,1910,1886
1889,1891,1831
1888,1886,1812
1883,1919,1886
1859,1894,1875
1878,1879,1833
1876,1866,1814
1879,1904,1873
1870,1901,1873
1878,1873,1838
1878,1853,1815
1860,1882,1865
1868,1887,1874
1879,1869,1826
1894,1883,1825
1878,1903,1872
1863,1890,1869
1863,1860,1808
1874,1868,1807
1889,1914,1881
1872,1902,1887
1856,1840,1808
1870,1877,1808
1854,1902,1856
1871,1903,1872
1862,1850,1801
1872,1851,1783
1876,1897,1865
1872,1902,1876
1874,1889,1815
1897,1891,1829
1891,1917,1883
1862,1889,1859
1853,1842,1791
1870,1839,1801
1869,1890,1871
1868,1894,1878
1888,1889,1833
1908,1904,1850
1873,1910,1881
1856,1888,1870
1866,1839,1808
1887,1866,1824
1904,1920,1899
1867,1887,1875
1872,1861,1814
1885,1872,1819
1883,1906,1888
1882,1905,1897
1879,1863,1826
1891,1881,1824
1870,1903,1873
1852,1879,1865
1851,1840,1803
1879,1863,1823
1894,1911,1888
1870,1897,1881
1872,1872,1826
1907,1897,1839
1878,1898,1877
1868,1890,1881
1883,1870,1831
1901,1872,1825
1881,1899,1881
1885,1904,1893
1887,1875,1835
1892,1857,1819
1861,1872,1863
1877,1899,1898
1904,1891,1855
1879,1871,1818
1861,1875,1863
1859,1882,1883
1883,1867,1827
1911,1882,1841
1891,1905,1873
1853,1865,1854
1865,1831,1806
1893,1861,1828
1902,1916,1901
1903,1925,1907
1867,1852,1811
1873,1850,1810
1887,1904,1887
1870,1886,1878
1870,1848,1813
1884,1856,1823
1890,1904,1893
1872,1904,1883
1887,1879,1829
1905,1872,1843
1872,1862,1872
1854,1862,1872
1904,1883,1845
1901,1872,1827
1863,1869,1859
1855,1879,1875
1882,1866,1833
1898,1862,1827
1891,1905,1895
1886,1895,1893
1903,1877,1841
1897,1869,1826
1878,1904,1883
1890,1911,1894
1873,1871,1825
1882,1862,1818
1872,1902,1885
1872,1911,1898
1924,1920,1875
1887,1853,1826
1865,1867,1863
1872,1889,1881
1891,1863,1822
1898,1872,1824
1905,1934,1911
1877,1898,1902
1853,1840,1808
1904,1872,1837
1901,1904,1900
1870,1884,1879
1881,1855,1822
1918,1879,1852
1872,1885,1874
1858,1873,1872
1883,1858,1836
1904,1870,1844
1906,1906,1904
1882,1883,1890
1863,1840,1814
1890,1860,1831
1898,1895,1895
1872,1884,1885
1894,1870,1836
1890,1870,1828
1885,1902,1887
1909,1921,1922
1872,1857,1824
1856,1839,1797
1867,1875,1863
1882,1898,1881
1904,1872,1872
1904,1860,1833
1890,1895,1891
1868,1877,1872
1903,1878,1841
1907,1877,1803
1872,1872,1885
1887,1891,1901
1909,1881,1854
1899,1872,1797
1865,1872,1887
1863,1876,1919
1897,1877,1797
1906,1873,1840
1872,1882,1909
1873,1889,1873
1898,1882,1835
1907,1885,1842
1885,1898,1851
1872,1879,1925
1891,1861,1842
1920,1887,1831
1908,1936,1907
1872,1884,1882
1883,1841,1795
1883,1856,1822
1878,1887,1874
1894,1895,1870
1904,1877,1825
1920,1889,1854
1895,1904,1888
1874,1887,1878
1872,1854,1827
1894,1872,1857
1895,1900,1902
1894,1898,1904
1872,1840,1812
1915,1873,1851
1930,1942,1926
1872,1872,1871
1887,1858,1824
1895,1855,1807
1875,1882,1901
1890,1904,1891
1918,1889,1846
1917,1867,1859
1903,1889,1882
1872,1872,1852
1901,1859,1846
1923,1872,1840
1899,1893,1863
1897,1899,1875
1887,1853,1823
1914,1881,1807
1904,1911,1855
1871,1872,1840
1871,1830,1791
1894,1863,1809
1904,1899,1906
1894,1904,1922
1907,1872,1799
1936,1892,1843
1906,1911,1898
1873,1897,1881
1879,1851,1785
1922,1886,1852
1933,1936,1926
1856,1851,1869
1856,1840,1790
1889,1870,1819
1904,1888,1904
1872,1869,1870
1883,1849,1835
1892,1870,1857
1899,1905,1886
1908,1921,1907
1890,1858,1819
1878,1859,1799
1887,1904,1897
1885,1890,1874
1903,1859,1808
1933,1888,1843
1917,1904,1888
1901,1910,1907
1878,1859,1837
1883,1871,1834
1887,1905,1879
1872,1877,1840
1875,1873,1835
1911,1877,1837
1905,1898,1881
1872,1872,1895
1875,1858,1808
1903,1874,1821
1894,1904,1881
1895,1906,1904
1903,1887,1854
1897,1872,1818
1887,1919,1881
1881,1904,1886
1883,1853,1818
1904,1867,1834
1887,1901,1920
1863,1895,1872
1872,1856,1791
1903,1859,1818
1903,1897,1885
1898,1906,1915
1906,1883,1821
1884,1861,1827
1871,1882,1872
1876,1889,1887
1881,1856,1773
1906,1877,1856
1917,1936,1902
1861,1874,1838
1866,1833,1777
1910,1863,1798
1904,1907,1875
1875,1882,1872
1876,1862,1811
1908,1873,1847
1889,1887,1854
1862,1866,1867
1873,1853,1764
1897,1858,1817
1898,1891,1857
1900,1911,1902
1895,1872,1831
1904,1872,1839
1913,1915,1891
1862,1858,1855
1875,1841,1802
1911,1868,1819
1898,1892,1875
1877,1885,1865
1903,1881,1815
1906,1879,1828
1889,1904,1872
1887,1903,1934
1891,1867,1825
1904,1875,1823
1876,1877,1840
1871,1866,1857
1893,1858,1817
1911,1878,1828
1920,1927,1869
1883,1884,1866
1879,1845,1795
1903,1863,1775
1899,1901,1917
1888,1887,1861
1897,1872,1821
1902,1873,1881
1899,1896,1782
1906,1904,1885
1904,1865,1803
1894,1866,1783
1897,1911,1877
1904,1919,1894
1905,1861,1819
1903,1853,1805
1878,1872,1852
1878,1859,1872
1885,1842,1815
1920,1877,1836
1918,1917,1904
1872,1885,1869
1882,1857,1810
1908,1871,1826
1913,1913,1899
1904,1917,1897
1883,1858,1815
1897,1860,1818
1904,1899,1883
1897,1910,1898
1921,1891,1846
1900,1866,1818
1860,1863,1849
1848,1866,1854
1878,1856,1808
1897,1859,1819
1893,1893,1882
1886,1897,1889
1897,1872,1823
1939,1878,1823
1903,1898,1892
1921,1899,1902
1843,1859,1814
1856,1855,1807
1870,1899,1877
1872,1908,1899
1906,1855,1819
1871,1846,1808
1861,1895,1874
1901,1883,1872
1882,1862,1819
1921,1871,1828
1870,1907,1879
1904,1904,1873
1893,1857,1822
1930,1872,1821
1913,1905,1895
1897,1882,1887
1900,1866,1824
1897,1866,1820
1891,1900,1872
1891,1903,1890
1929,1883,1841
1872,1883,1824
1855,1883,1857
1894,1883,1876
1909,1872,1843
1908,1872,1835
1879,1903,1884
1885,1888,1877
1906,1885,1830
1884,1877,1823
1872,1878,1859
1869,1875,1870
1892,1869,1825
1931,1900,1847
1917,1924,1890
1925,1897,1870
1876,1827,1802
1874,1847,1825
1887,1886,1887
1882,1904,1882
1904,1897,1841
1892,1867,1826
1870,1887,1871
1897,1904,1890
1921,1873,1840
1823,1858,1808
1826,1889,1872
1851,1893,1878
1855,1864,1823
1962,1885,1831
1906,1911,1883
1893,1905,1882
1869,1872,1840
1871,1843,1813
1880,1855,1844
1873,1856,1853
1920,1853,1823
1899,1863,1825
1893,1902,1883
1910,1932,1905
1885,1861,1817
1838,1831,1793
1861,1856,1853
1923,1874,1872
1858,1867,1827
1904,1894,1841
1873,1872,1865
1857,1867,1865
1891,1855,1818
1907,1885,1831
1872,1879,1855
1863,1868,1867
1895,1872,1829
1905,1872,1829
1883,1890,1875
1889,1886,1886
1899,1852,1807
1909,1863,1818
1913,1893,1869
1921,1899,1877
1845,1881,1838
1882,1911,1847
1871,1891,1855
1860,1870,1841
1919,1855,1805
1883,1873,1839
1932,1894,1888
1878,1891,1877
1850,1847,1802
1887,1865,1818
1889,1904,1879
1888,1902,1891
1890,1872,1833
1886,1855,1824
1879,1893,1872
1872,1904,1872
1888,1862,1810
1919,1902,1838
1873,1876,1867
1890,1863,1857
1789,1823,1791
1858,1858,1808
1877,1873,1877
1890,1870,1867
1885,1851,1808
1932,1883,1828
1904,1913,1879
1882,1890,1862
1930,1875,1822
1856,1837,1787
1854,1887,1872
1866,1859,1862
1841,1829,1792
1884,1845,1808
1907,1898,1879
1854,1898,1891
1879,1872,1830
1889,1871,1819
1872,1879,1869
1845,1883,1870
1855,1858,1811
1845,1872,1823
1879,1902,1885
1875,1919,1904
1846,1890,1840
1878,1872,1839
1878,1904,1887
1840,1891,1874
1817,1815,1776
1848,1825,1792
1857,1887,1875
1860,1883,1883
1854,1872,1830
1918,1879,1833
1870,1903,1875
1856,1882,1878
1888,1890,1845
1873,1904,1837
1872,1873,1856
1911,1883,1862
1883,1904,1853
1921,1855,1811
1823,1871,1853
1837,1870,1872
1859,1840,1813
1872,1865,1815
1936,1897,1891
1791,1877,1895
1862,1845,1823
1873,1847,1818
1877,1903,1894
1872,1898,1886
1857,1859,1810
1870,1854,1808
1865,1881,1869
1846,1879,1872
1871,1860,1820
1877,1859,1825
1874,1891,1881
1865,1885,1883
1861,1856,1821
1881,1872,1826
1879,1915,1893
1872,1904,1901
1904,1907,1854
1847,1824,1797
1836,1867,1856
1843,1883,1878
1863,1857,1828
1869,1858,1825
1860,1893,1881
1851,1885,1885
1866,1859,1828
1856,1850,1812
1872,1904,1893
1861,1895,1893
1883,1884,1843
1878,1885,1829
1843,1873,1860
1836,1871,1869
1850,1853,1808
1872,1856,1815
1867,1890,1879
1867,1904,1895
1867,1868,1825
1873,1867,1823
1856,1889,1879
1856,1894,1887
1877,1884,1847
1892,1895,1847
1847,1886,1868
1843,1891,1873
1854,1851,1817
1859,1847,1812
1867,1883,1878
1857,1891,1887
1863,1868,1830
1868,1865,1821
1862,1889,1890
1856,1886,1878
1881,1872,1836
1893,1874,1840
1882,1889,1894
1862,1886,1886
1847,1841,1804
1881,1867,1830
1883,1917,1907
1872,1891,1893
1887,1883,1840
1885,1882,1830
1847,1873,1861
1843,1867,1872
1872,1862,1831
1872,1855,1818
1865,1880,1883
1870,1891,1893
1883,1872,1837
1886,1888,1834
1856,1886,1875
1866,1891,1891
1867,1850,1822
1862,1839,1808
1859,1885,1872
1865,1894,1887
1874,1881,1837
1884,1877,1825
1859,1888,1871
1840,1861,1858
1866,1841,1811
1915,1904,1856
1889,1930,1904
1829,1868,1862
1841,1846,1794
1870,1846,1808
1879,1888,1885
1846,1866,1870
1844,1838,1815
1865,1845,1816
1864,1887,1872
1852,1877,1868
1872,1872,1818
1883,1869,1828
1866,1894,1872
1856,1888,1872
1883,1886,1839
1885,1885,1821
1837,1869,1851
1835,1870,1856
1853,1843,1811
1874,1872,1831
1874,1915,1898
1840,1860,1861
1842,1839,1795
1875,1871,1825
1872,1924,1894
1853,1901,1872
1856,1872,1792
1872,1891,1808
1872,1911,1872
1871,1911,1886
1876,1882,1828
1883,1891,1821
1871,1920,1872
1840,1905,1851
1849,1872,1799
1872,1878,1813
1874,1920,1885
1843,1895,1871
1855,1872,1805
1872,1891,1811
1863,1905,1874
1851,1904,1871
1854,1855,1802
1872,1872,1808
1882,1915,1881
1874,1920,1890
1857,1883,1808
1846,1872,1791
1841,1898,1856
1847,1891,1872
1861,1865,1809
1883,1890,1826
1867,1905,1869
1858,1893,1866
1862,1869,1808
1886,1896,1825
1871,1918,1871
1845,1885,1862
1869,1857,1808
1872,1887,1818
1872,1910,1875
1872,1897,1884
1872,1861,1822
1861,1857,1806
1855,1899,1857
1851,1898,1859
1871,1872,1811
1899,1936,1839
1891,1936,1898
1842,1898,1871
1852,1805,1808
1879,1914,1831
1860,1886,1870
1862,1886,1874
1861,1865,1808
1877,1835,1822
1894,1975,1904
1872,1914,1894
1834,1857,1785
1854,1856,1798
1878,1894,1885
1874,1872,1903
1840,1817,1791
1865,1894,1808
1849,1883,1863
1847,1879,1869
1859,1886,1808
1879,1872,1825
1872,1899,1877
1868,1933,1886
1875,1871,1825
1872,1863,1808
1845,1878,1851
1840,1881,1866
1874,1872,1834
1894,1906,1840
1854,1915,1869
1839,1898,1859
1873,1855,1822
1883,1875,1823
1865,1902,1873
1863,1927,1874
1854,1869,1808
1875,1872,1813
1865,1884,1870
1850,1880,1869
1872,1875,1824
1873,1872,1818
1842,1878,1864
1853,1905,1879
1859,1861,1819
1855,1840,1805
1861,1905,1888
1846,1933,1889
1833,1872,1802
1847,1837,1809
1859,1870,1879
1855,1927,1888
1870,1845,1841
1856,1895,1812
1843,1850,1863
1834,1825,1869
1872,1893,1835
1900,1883,1846
1837,1889,1856
1822,1834,1854
1853,1856,1808
1883,1889,1839
1882,1904,1902
1857,1902,1890
1844,1840,1808
1846,1778,1804
1851,1893,1879
1854,1904,1892
1855,1809,1826
1859,1853,1819
1866,1866,1885
1862,1907,1904
1867,1868,1829
1872,1831,1835
1840,1877,1868
1843,1874,1882
1854,1848,1827
1856,1845,1818
1851,1893,1878
1847,1893,1883
1863,1863,1827
1893,1893,1850
1877,1801,1908
1850,1986,1887
1837,1850,1803
1841,1887,1806
1847,1895,1877
1854,1904,1887
1866,1827,1838
1874,1920,1830
1840,1807,1866
1826,1862,1863
1851,1854,1808
1872,1953,1822
1875,1956,1895
1853,1898,1888
1872,1882,1841
1884,1872,1834
1838,1874,1856
1827,1858,1859
1855,1853,1822
1901,1882,1845
1872,1952,1889
1840,1782,1862
1856,1840,1811
1895,1887,1840
1865,1893,1872
1834,1840,1855
1853,1851,1814
1872,1870,1829
1866,1911,1879
1859,1910,1869
1887,1837,1840
1901,1856,1852
1851,1919,1863
1828,1911,1853
1851,1837,1805
1883,1839,1822
1895,1919,1908
1876,1856,1902
1845,1840,1798
1842,1840,1792
1861,1857,1872
1880,1933,1904
1869,1869,1821
1857,1847,1810
1863,1876,1876
1853,1872,1875
1870,1810,1823
1873,1856,1821
1891,1885,1894
1849,1856,1872
1841,1843,1797
1877,1840,1822
1886,1875,1889
1866,1884,1873
1843,1822,1793
1856,1815,1798
1871,1872,1872
1860,1922,1872
1859,1826,1805
1878,1852,1826
1877,1873,1890
1871,1874,1894
1873,1827,1821
1888,1856,1842
1856,1895,1872
1840,1840,1856
1866,1847,1821
1873,1872,1811
1855,1870,1866
1851,1858,1873
1886,1762,1843
1892,1900,1842
1831,1867,1843
1837,1847,1853
1840,1811,1782
1867,1851,1799
1867,1901,1865
1862,1883,1872
1867,1840,1808
1882,1861,1824
1894,1903,1889
1847,1853,1858
1855,1825,1797
1869,1856,1798
1853,1872,1857
1857,1866,1869
1871,1840,1811
1887,1855,1827
1882,1901,1888
1878,1891,1894
1866,1840,1808
1884,1867,1823
1887,1904,1877
1827,1847,1835
1843,1826,1781
1873,1855,1815
1872,1894,1878
1849,1877,1866
1840,1840,1793
1872,1863,1808
1878,1889,1875
1845,1872,1870
1855,1840,1808
1887,1859,1827
1889,1904,1895
1870,1889,1877
1897,1878,1832
1857,1834,1798
1855,1871,1859
1851,1872,1870
1869,1841,1809
1891,1856,1824
1907,1934,1915
1898,1914,1903
1835,1808,1777
1845,1815,1786
1863,1868,1868
1868,1879,1882
1885,1862,1827
1878,1850,1813
1870,1869,1877
1879,1885,1901
1872,1841,1825
1885,1869,1829
1875,1879,1891
1861,1867,1883
1856,1831,1808
1882,1863,1823
1875,1887,1883
1856,1871,1868
1872,1847,1811
1907,1878,1837
1886,1906,1898
1842,1861,1857
1843,1823,1789
1887,1867,1826
1898,1901,1899
1860,1885,1871
1856,1842,1801
1899,1869,1830
1889,1904,1888
1863,1882,1881
1869,1867,1826
1877,1867,1822
1861,1882,1867
1866,1886,1889
1882,1857,1835
1898,1874,1834
1853,1872,1856
1847,1873,1862
1874,1866,1813
1893,1865,1822
1898,1909,1897
1886,1904,1898
1837,1821,1779
1858,1843,1793
1863,1888,1872
1869,1887,1879
1873,1869,1823
1895,1886,1829
1887,1906,1882
1862,1887,1883
1846,1840,1793
1867,1853,1798
1867,1901,1872
1869,1902,1877
1861,1851,1810
1869,1843,1808
1875,1887,1878
1872,1903,1899
1872,1855,1822
1883,1872,1819
1854,1882,1863
1840,1865,1863
1854,1840,1807
1878,1866,1819
1881,1899,1894
1877,1895,1902
1863,1852,1818
1855,1846,1807
1863,1885,1875
1866,1885,1890
1872,1856,1831
1887,1867,1840
1885,1904,1904
1855,1883,1872
1861,1856,1819
1885,1869,1836
1886,1904,1900
1881,1904,1901
1853,1842,1802
1858,1850,1808
1879,1904,1897
1877,1919,1903
1869,1859,1814
1878,1856,1819
1850,1863,1862
1836,1850,1855
1871,1848,1822
1895,1865,1839
1885,1894,1890
1853,1873,1867
1866,1855,1808
1883,1872,1831
1872,1886,1885
1867,1885,1882
1872,1862,1821
1906,1907,1854
1887,1916,1901
1840,1846,1854
1856,1822,1802
1878,1856,1817
1871,1893,1878
1856,1873,1877
1878,1854,1827
1894,1873,1840
1870,1893,1872
1863,1892,1867
1872,1866,1827
1885,1870,1834
1854,1887,1890
1842,1873,1862
1862,1847,1779
1895,1879,1825
1866,1886,1871
1859,1883,1858
1878,1872,1840
1881,1862,1847
1860,1878,1843
1861,1885,1872
1865,1851,1840
1881,1872,1794
1889,1921,1840
1885,1911,1886
1865,1845,1816
1867,1845,1830
1872,1886,1855
1872,1901,1905
1900,1879,1843
1875,1862,1872
1866,1891,1873
1869,1890,1874
1847,1827,1760
1872,1840,1807
1874,1888,1872
1873,1892,1855
1878,1867,1808
1903,1885,1861
1877,1892,1871
1847,1872,1872
1867,1856,1813
1899,1886,1840
1904,1927,1904
1856,1883,1859
1852,1835,1808
1888,1866,1824
1872,1892,1878
1855,1878,1878
1894,1893,1824
1880,1873,1819
1854,1877,1853
1848,1874,1856
1872,1858,1827
1898,1882,1841
1877,1920,1888
1856,1891,1870
1861,1850,1809
1877,1858,1828
1887,1894,1921
1870,1889,1853
1877,1871,1850
1901,1886,1843
1879,1917,1884
1851,1876,1872
1873,1867,1783
1904,1878,1887
1901,1921,1887
1837,1858,1867
1845,1839,1780
1887,1869,1801
1886,1915,1922
1868,1900,1905
1870,1849,1823
1889,1867,1837
1871,1893,1929
1879,1907,1950
1879,1880,1813
1869,1871,1799
1852,1883,1867
1855,1877,1869
1873,1867,1817
1904,1883,1810
1888,1904,1897
1872,1911,1882
1871,1863,1813
1892,1869,1824
1874,1883,1873
1858,1877,1872
1888,1872,1840
1898,1874,1844
1873,1910,1879
1856,1883,1869
1872,1863,1810
1893,1872,1841
1885,1913,1854
1861,1878,1878
1869,1843,1843
1872,1840,1813
1870,1889,1869
1878,1909,1877
1871,1856,1840
1871,1853,1721
1866,1882,1963
1872,1897,1943
1872,1879,1837
1876,1867,1743
1872,1888,1868
1872,1891,1888
1872,1857,1821
1887,1874,1901
1904,1934,1916
1866,1874,1891
1854,1840,1780
1877,1862,1745
1878,1890,1883
1863,1891,1853
1874,1860,1834
1865,1856,1798
1871,1899,1872
1883,1919,1925
1877,1859,1794
1872,1862,1827
1869,1889,1819
1869,1889,1814
1873,1862,1835
1899,1874,1808
1894,1907,1948
1879,1904,1902
1872,1859,1811
1896,1877,1834
1890,1904,1904
1881,1895,1893
1891,1865,1839
1904,1873,1835
1889,1907,1883
1901,1911,1813
1909,1872,1839
1885,1862,1797
1857,1869,1858
1849,1870,1849
1885,1872,1815
1904,1885,1835
1905,1919,1910
1888,1896,1883
1927,1894,1847
1922,1879,1831
1873,1871,1859
1870,1866,1857
1886,1856,1872
1905,1881,1889
1909,1930,1897
1874,1875,1856
1883,1846,1805
1919,1880,1826
1911,1936,1899
1880,1886,1860
1887,1841,1808
1904,1863,1813
1910,1910,1872
1888,1906,1874
1872,1853,1808
1882,1861,1858
1881,1889,1920
1879,1889,1922
1905,1883,1841
1904,1883,1815
1871,1894,1863
1860,1885,1865
1876,1856,1809
1911,1883,1840
1886,1901,1884
1869,1887,1874
1881,1871,1817
1874,1872,1808
1872,1887,1870
1862,1877,1863
1881,1855,1815
1906,1876,1834
1904,1909,1893
1891,1895,1890
1877,1863,1810
1910,1887,1840
1895,1920,1904
1872,1898,1875
1877,1853,1811
1904,1874,1833
1887,1891,1885
1871,1877,1873
1882,1855,1818
1894,1883,1831
1899,1926,1899
1882,1913,1889
1872,1856,1806
1902,1867,1812
1861,1891,1885
1867,1918,1904
1913,1883,1834
1867,1863,1821
1882,1891,1882
1807,1883,1879
1892,1877,1834
1904,1912,1866
1906,1915,1889
1815,1886,1875
1875,1840,1804
1948,1856,1822
1929,1914,1903
1920,1904,1902
1907,1865,1827
1904,1883,1841
1897,1920,1901
1881,1904,1897
1891,1877,1831
1904,1889,1835
1901,1936,1904
1877,1915,1900
1853,1854,1805
1862,1865,1815
1845,1899,1878
1946,1904,1899
1873,1872,1830
1903,1878,1827
1898,1917,1882
1874,1905,1881
1911,1867,1815
1854,1874,1831
1897,1925,1906
1915,1929,1920
1889,1869,1824
1887,1869,1815
1871,1887,1872
1870,1877,1886
1925,1871,1836
1904,1875,1838
1879,1901,1890
1909,1902,1893
1872,1857,1808
1899,1886,1829
1887,1898,1890
1899,1874,1872
1872,1855,1822
1920,1879,1847
1902,1915,1899
1905,1903,1888
1883,1857,1830
1975,1888,1858
1910,1914,1903
1841,1894,1879
1846,1856,1811
1951,1879,1828
1895,1947,1920
1857,1884,1887
1876,1835,1803
1904,1856,1829
1855,1904,1898
1837,1873,1867
1863,1855,1807
1902,1871,1821
1923,1920,1887
1853,1907,1882
1883,1872,1831
1965,1890,1837
1867,1907,1898
1856,1898,1879
1875,1843,1808
1904,1873,1826
1884,1904,1890
1904,1922,1905
1877,1856,1807
1878,1850,1818
1883,1889,1887
1887,1906,1897
1891,1865,1822
1881,1871,1811
1839,1863,1844
1882,1872,1863
1871,1863,1823
1936,1882,1824
1893,1903,1885
1835,1889,1872
1873,1869,1824
1904,1870,1827
1860,1902,1874
1856,1901,1883
1909,1883,1841
1900,1887,1839
1872,1893,1867
1860,1889,1869
1891,1870,1822
1873,1851,1798
1856,1872,1856
1847,1873,1863
1879,1868,1815
1903,1889,1841
1852,1891,1875
1855,1877,1865
1927,1856,1808
1934,1877,1831
1936,1917,1891
1849,1874,1871
1847,1850,1804
1877,1863,1820
1840,1903,1889
1873,1907,1904
1898,1850,1815
1866,1834,1792
1853,1875,1856
1936,1884,1877
1856,1855,1824
1894,1856,1821
1828,1861,1851
1807,1876,1862
1879,1878,1829
1887,1862,1819
1891,1897,1890
1863,1873,1874
1860,1841,1806
1894,1872,1833
1876,1885,1872
1861,1891,1877
1867,1859,1810
1869,1872,1827
1936,1904,1893
1827,1887,1878
1872,1867,1817
1885,1873,1830
1869,1904,1885
1850,1863,1856
1850,1835,1792
1877,1866,1818
1825,1899,1880
1840,1894,1875
1862,1845,1806
1878,1863,1828
1850,1901,1883
1845,1910,1882
1874,1840,1810
1824,1830,1793
1833,1873,1869
1855,1883,1878
1872,1851,1811
1872,1872,1822
1920,1903,1883
1854,1895,1873
1923,1856,1811
1871,1857,1806
1873,1883,1872
1862,1872,1868
1871,1839,1803
1884,1856,1810
1883,1895,1877
1878,1883,1887
1863,1840,1804
1889,1877,1831
1899,1927,1900
1846,1867,1841
1854,1837,1786
1880,1851,1817
1890,1914,1894
1857,1887,1873
1858,1840,1805
1887,1856,1826
1887,1904,1903
1877,1902,1901
1867,1845,1809
1870,1847,1805
1865,1893,1872
1867,1889,1880
1870,1849,1817
1890,1883,1828
1872,1898,1877
1856,1883,1872
1857,1838,1797
1865,1841,1803
1857,1875,1862
1856,1877,1861
1872,1856,1812
1889,1873,1836
1878,1888,1882
