1873,1854,1797
1905,1899,1862
1872,1892,1893
1882,1887,1875
1867,1841,1796
1861,1858,1836
1846,1883,1887
1858,1882,1870
1903,1893,1846
1897,1890,1856
1866,1901,1895
1845,1865,1853
1872,1847,1801
1888,1879,1847
1882,1907,1913
1879,1887,1871
1886,1866,1819
1895,1898,1861
1863,1893,1901
1854,1870,1859
1881,1865,1817
1921,1930,1881
1879,1914,1909
1886,1845,1827
1872,1834,1791
1911,1886,1856
1898,1923,1909
1851,1857,1839
1857,1822,1776
1835,1859,1831
1859,1893,1894
1871,1890,1861
1908,1869,1807
1878,1893,1847
1830,1889,1890
1841,1869,1847
1827,1846,1806
1927,1879,1854
1901,1904,1900
1872,1876,1854
1846,1879,1822
1885,1897,1853
1878,1890,1872
1847,1862,1840
1869,1854,1798
1876,1903,1860
1838,1872,1866
1838,1843,1832
1899,1845,1790
1870,1883,1853
1855,1922,1922
1855,1878,1866
1821,1830,1783
1870,1855,1819
1879,1881,1887
1857,1862,1856
1895,1870,1814
1883,1879,1840
1856,1887,1882
1875,1887,1866
1900,1862,1823
1887,1872,1840
1868,1890,1871
1872,1851,1819
1840,1826,1776
1822,1856,1833
1855,1879,1894
1875,1874,1865
1882,1855,1808
1874,1872,1842
1859,1899,1902
1858,1881,1866
1889,1856,1807
1870,1872,1834
1863,1872,1871
1853,1866,1856
1838,1856,1806
1840,1877,1854
1900,1929,1913
1865,1872,1857
1856,1797,1750
1863,1834,1805
1887,1881,1893
1826,1874,1871
1830,1843,1797
1850,1866,1826
1808,1881,1885
1842,1869,1858
1879,1856,1813
1893,1894,1865
1843,1899,1891
1894,1887,1870
1899,1851,1806
1879,1893,1866
1822,1889,1894
1860,1854,1846
1899,1853,1808
1920,1936,1900
1875,1914,1905
1786,1808,1795
1831,1808,1776
1871,1872,1854
1867,1894,1903
1841,1866,1859
1856,1850,1801
1879,1873,1840
1863,1889,1898
1843,1859,1866
1881,1846,1814
1938,1891,1855
1839,1895,1901
1887,1851,1842
1890,1859,1815
1904,1906,1882
1727,1883,1890
1831,1842,1831
1899,1839,1795
1866,1871,1841
1865,1909,1907
1851,1856,1842
1854,1831,1792
1886,1875,1857
1857,1879,1895
1866,1868,1867
1893,1860,1824
1873,1867,1840
1862,1883,1893
1853,1855,1856
1865,1841,1807
1920,1894,1869
1856,1914,1923
1794,1825,1816
1857,1817,1776
1936,1860,1843
1905,1904,1919
1856,1871,1858
1883,1845,1799
1866,1875,1844
1846,1893,1892
1893,1872,1863
1885,1867,1821
1858,1882,1853
1809,1879,1878
1898,1855,1840
1829,1835,1795
1907,1885,1851
1825,1886,1892
1851,1861,1862
1879,1850,1822
1790,1879,1866
1840,1872,1895
1849,1853,1841
1850,1808,1762
1901,1859,1837
1854,1890,1902
1840,1855,1854
1887,1849,1803
1872,1871,1837
1837,1895,1888
1855,1865,1840
1878,1859,1805
1881,1895,1845
1860,1904,1895
1863,1885,1865
1869,1850,1787
1838,1861,1821
1860,1900,1886
1870,1905,1879
1904,1883,1839
1919,1894,1858
1872,1863,1867
1809,1813,1806
1842,1822,1776
1865,1872,1849
1856,1886,1895
1866,1867,1858
1889,1865,1808
1936,1878,1840
1886,1896,1899
1791,1883,1872
1807,1853,1809
1898,1882,1853
1876,1909,1897
1855,1877,1850
1872,1851,1802
1883,1877,1847
1871,1911,1905
1865,1887,1870
1880,1855,1814
1894,1895,1866
1856,1901,1888
1850,1885,1854
1887,1887,1822
1907,1906,1876
1840,1877,1872
1840,1856,1837
1872,1853,1801
1894,1878,1857
1882,1911,1911
1856,1869,1859
1866,1842,1797
1885,1872,1849
1870,1885,1913
1883,1894,1891
1931,1904,1857
1872,1859,1833
1835,1870,1857
1855,1856,1841
1880,1859,1808
1899,1883,1856
1873,1902,1903
1863,1878,1866
1894,1881,1828
1886,1895,1859
1904,1959,1936
1872,1888,1874
1838,1813,1770
1854,1840,1806
1855,1872,1881
1872,1867,1866
1909,1873,1834
1934,1915,1883
1840,1863,1868
1835,1845,1834
1872,1849,1806
1904,1882,1861
1866,1885,1900
1866,1872,1858
1889,1856,1811
1906,1886,1861
1871,1897,1902
1872,1878,1872
1920,1893,1835
1927,1904,1871
1850,1856,1865
1851,1846,1834
1902,1862,1819
1904,1888,1866
1904,1922,1931
1863,1851,1854
1843,1808,1770
1879,1857,1831
1894,1904,1919
1889,1875,1874
1891,1849,1803
1898,1872,1842
1874,1889,1891
1874,1871,1855
1895,1854,1811
1909,1886,1859
1884,1910,1904
1875,1886,1863
1892,1863,1808
1908,1891,1856
1886,1904,1904
1886,1895,1872
1898,1874,1821
1863,1869,1822
1837,1879,1860
1850,1856,1838
1871,1839,1783
1914,1902,1859
1878,1904,1903
1840,1853,1825
1872,1845,1787
1898,1879,1849
1883,1899,1903
1872,1875,1859
1901,1879,1814
1893,1889,1841
1856,1879,1875
1859,1863,1850
1898,1858,1808
1921,1909,1874
1893,1918,1905
1837,1845,1823
1866,1834,1776
1903,1875,1840
1919,1938,1933
1875,1887,1868
1865,1840,1782
1870,1845,1808
1867,1874,1875
1881,1870,1856
1889,1855,1808
1895,1895,1845
1898,1927,1915
1899,1891,1874
1860,1818,1774
1871,1841,1822
1864,1883,1883
1879,1879,1871
1902,1872,1829
1897,1883,1851
1882,1904,1904
1884,1879,1872
1878,1843,1802
1920,1904,1873
1887,1914,1909
1837,1837,1818
1856,1821,1776
1888,1871,1840
1904,1927,1915
1872,1875,1854
1882,1835,1792
1882,1856,1829
1856,1875,1872
1872,1883,1856
1891,1855,1805
1882,1857,1834
1871,1886,1889
1898,1885,1878
1889,1853,1808
1881,1867,1827
1878,1901,1890
1876,1885,1867
1872,1846,1789
1898,1882,1838
1889,1898,1897
1873,1867,1853
1904,1881,1815
1893,1875,1838
1866,1873,1873
1857,1855,1840
1903,1866,1808
1904,1889,1856
1872,1893,1889
1862,1869,1842
1889,1862,1805
1908,1900,1857
1903,1915,1914
1879,1887,1871
1870,1836,1794
1914,1888,1862
1865,1879,1882
1840,1840,1824
1869,1840,1786
1911,1877,1859
1904,1920,1920
1856,1854,1837
1872,1836,1781
1883,1872,1843
1873,1898,1899
1874,1889,1866
1882,1847,1804
1872,1866,1828
1866,1885,1887
1869,1882,1872
1882,1863,1805
1872,1869,1833
1858,1883,1877
1851,1862,1840
1914,1892,1815
1893,1874,1840
1839,1859,1831
1841,1853,1823
1872,1841,1769
1887,1865,1787
1871,1898,1889
1867,1881,1860
1882,1877,1776
1857,1855,1836
1835,1860,1907
1855,1858,1823
1882,1841,1778
1920,1906,1893
1857,1879,1908
1847,1854,1808
1861,1831,1834
1863,1847,1854
1861,1873,1856
1877,1880,1849
1899,1865,1822
1856,1843,1833
1834,1857,1862
1855,1863,1846
1877,1847,1788
1886,1872,1840
1857,1873,1842
1842,1841,1854
1872,1850,1807
1872,1870,1825
1858,1886,1883
1855,1869,1849
1882,1858,1842
1888,1883,1856
1873,1909,1914
1855,1867,1886
1851,1823,1796
1845,1855,1808
1843,1871,1879
1853,1861,1825
1872,1853,1779
1883,1873,1806
1857,1888,1899
1873,1887,1872
1879,1871,1818
1873,1873,1838
1851,1885,1911
1841,1858,1851
1850,1840,1805
1871,1874,1840
1853,1883,1899
1865,1879,1871
1887,1867,1813
1870,1861,1847
1831,1862,1858
1837,1842,1861
1864,1843,1799
1873,1875,1842
1857,1906,1879
1846,1872,1872
1872,1845,1795
1891,1877,1813
1867,1901,1917
1845,1865,1839
1855,1846,1778
1874,1872,1840
1872,1904,1919
1859,1866,1834
1856,1834,1771
1881,1888,1873
1854,1898,1920
1858,1883,1826
1863,1845,1788
1906,1891,1855
1847,1885,1872
1821,1841,1827
1854,1852,1785
1879,1889,1844
1862,1903,1891
1854,1874,1843
1851,1840,1773
1871,1875,1862
1859,1893,1882
1852,1883,1840
1875,1856,1805
1890,1887,1849
1872,1918,1910
1853,1872,1861
1869,1855,1712
1885,1891,1840
1852,1890,1881
1842,1867,1840
1872,1851,1831
1873,1873,1882
1845,1879,1885
1856,1863,1843
1878,1854,1824
1866,1872,1837
1840,1885,1887
1857,1875,1924
1873,1858,1815
1880,1885,1847
1865,1902,1900
1861,1879,1869
1883,1865,1814
1894,1879,1859
1867,1895,1904
1855,1878,1851
1866,1857,1808
1872,1872,1845
1840,1877,1867
1843,1872,1898
1914,1895,1870
1900,1894,1870
1838,1882,1886
1843,1867,1872
1840,1814,1800
1858,1847,1840
1861,1885,1879
1868,1881,1890
1870,1856,1786
1891,1894,1893
1863,1901,1894
1861,1866,1841
1883,1850,1797
1879,1865,1845
1850,1881,1888
1862,1866,1867
1879,1853,1819
1897,1871,1856
1881,1892,1904
1871,1880,1873
1894,1877,1790
1895,1882,1885
1833,1850,1857
1840,1830,1812
1873,1830,1808
1894,1866,1882
1875,1888,1913
1870,1872,1870
1868,1840,1786
1869,1855,1833
1841,1865,1869
1856,1859,1853
1878,1847,1816
1879,1859,1840
1859,1874,1854
1875,1877,1917
1889,1842,1824
1868,1838,1818
1856,1869,1892
1856,1850,1855
1874,1829,1798
1903,1859,1851
1874,1875,1908
1862,1871,1866
1869,1840,1810
1868,1858,1810
1856,1886,1902
1870,1886,1878
1887,1862,1857
1899,1877,1875
1856,1872,1871
1840,1842,1847
1856,1825,1798
1872,1861,1863
1862,1885,1915
1870,1887,1898
1902,1873,1823
1870,1857,1809
1820,1847,1860
1840,1861,1875
1870,1846,1818
1874,1867,1891
1862,1899,1924
1868,1893,1878
1890,1872,1803
1889,1877,1846
1853,1872,1851
1865,1872,1842
1887,1867,1790
1878,1886,1884
1845,1883,1874
1852,1859,1872
1862,1835,1862
1875,1872,1831
1871,1898,1908
1886,1879,1885
1890,1865,1826
1883,1876,1856
1845,1871,1889
1857,1872,1862
1867,1850,1809
1887,1872,1849
1877,1890,1891
1872,1878,1872
1905,1863,1825
1882,1863,1822
1857,1872,1904
1859,1869,1860
1874,1841,1840
1879,1861,1825
1859,1881,1904
1889,1885,1876
1914,1879,1834
1884,1874,1850
1834,1856,1867
1839,1842,1836
1872,1829,1802
1893,1864,1851
1872,1899,1907
1866,1869,1830
1871,1845,1805
1895,1887,1856
1872,1891,1934
1870,1870,1863
1893,1862,1821
1891,1878,1755
1856,1900,1895
1857,1870,1856
1889,1865,1808
1886,1869,1844
1849,1869,1914
1855,1872,1858
1889,1892,1872
1873,1871,1854
1844,1875,1926
1834,1858,1838
1867,1851,1767
1891,1877,1860
1872,1899,1941
1856,1870,1863
1878,1863,1808
1883,1872,1808
1863,1897,1887
1872,1884,1870
1895,1877,1776
1872,1892,1831
1831,1881,1862
1849,1872,1845
1872,1856,1808
1890,1895,1835
1863,1921,1863
1872,1887,1867
1859,1825,1769
1879,1863,1867
1873,1905,1873
1872,1883,1851
1869,1856,1772
1888,1893,1855
1885,1917,1952
1847,1874,1815
1852,1849,1840
1857,1871,1834
1861,1904,1872
1855,1874,1856
1871,1856,1793
1885,1883,1861
1861,1899,1950
1865,1883,1871
1888,1877,1804
1904,1904,1782
1853,1879,1869
1835,1839,1870
1869,1840,1801
1890,1883,1857
1878,1898,1906
1871,1876,1886
1903,1873,1825
1872,1861,1835
1837,1863,1871
1856,1862,1858
1887,1867,1821
1899,1877,1847
1872,1904,1840
1849,1861,1840
1869,1841,1793
1892,1886,1873
1867,1918,1941
1835,1856,1844
1855,1840,1808
1882,1882,1814
1845,1878,1874
1877,1891,1870
1874,1860,1830
1863,1856,1817
1843,1866,1869
1843,1844,1856
1865,1837,1795
1875,1877,1824
1853,1885,1875
1842,1858,1850
1872,1843,1811
1883,1872,1846
1870,1890,1920
1874,1881,1863
1887,1859,1805
1887,1878,1823
1846,1872,1882
1847,1865,1877
1904,1869,1827
1866,1842,1825
1839,1858,1862
1843,1851,1847
1872,1843,1797
1887,1883,1808
1846,1877,1879
1849,1856,1870
1862,1836,1802
1876,1882,1795
1860,1893,1905
1853,1881,1871
1866,1850,1809
1871,1872,1840
1871,1904,1911
1871,1890,1840
1862,1855,1794
1856,1861,1787
1851,1888,1884
1879,1903,1873
1871,1844,1817
1859,1846,1809
1858,1873,1875
1861,1865,1833
1868,1840,1776
1889,1886,1805
1872,1904,1895
1850,1855,1857
1858,1827,1764
1894,1872,1850
1866,1897,1908
1863,1874,1837
1870,1835,1804
1873,1872,1850
1859,1904,1883
1854,1867,1868
1877,1854,1810
1882,1874,1819
1872,1899,1910
1850,1869,1856
1870,1846,1781
1904,1895,1855
1870,1903,1899
1847,1853,1847
1851,1823,1761
1871,1859,1808
1873,1904,1949
1874,1894,1886
1897,1872,1808
1870,1856,1822
1831,1855,1852
1839,1843,1835
1900,1853,1841
1883,1860,1840
1852,1868,1872
1859,1872,1859
1886,1858,1806
1886,1879,1836
1863,1887,1883
1861,1872,1853
1888,1858,1776
1877,1863,1821
1840,1862,1824
1857,1858,1847
1885,1862,1765
1921,1921,1854
1851,1881,1875
1821,1829,1823
1847,1827,1755
1872,1867,1897
1856,1878,1890
1858,1870,1853
1874,1851,1855
1862,1846,1823
1845,1863,1878
1856,1863,1856
1893,1865,1822
1877,1872,1901
1829,1866,1871
1841,1855,1842
1875,1857,1803
1889,1878,1830
1873,1903,1901
1851,1856,1859
1834,1808,1771
1857,1842,1802
1855,1872,1856
1854,1855,1843
1873,1840,1712
1888,1871,1846
1855,1882,1868
1855,1873,1872
1875,1855,1805
1878,1882,1851
1847,1895,1797
1851,1870,1898
1856,1825,1778
1871,1854,1870
1866,1901,1909
1855,1867,1852
1872,1845,1853
1907,1907,1845
1867,1891,1936
1827,1831,1823
1861,1834,1826
1893,1875,1847
1872,1903,1803
1869,1872,1856
1874,1841,1790
1882,1872,1807
1860,1888,1903
1878,1894,1931
1868,1841,1799
1872,1867,1840
1845,1873,1875
1841,1854,1858
1878,1847,1810
1915,1908,1875
1851,1885,1885
1840,1847,1850
1893,1872,1831
1907,1906,1887
1829,1865,1895
1822,1847,1812
1869,1850,1821
1896,1899,1857
1861,1902,1909
1870,1902,1935
1867,1842,1808
1871,1858,1851
1842,1867,1878
1851,1855,1840
1882,1841,1817
1887,1867,1831
1871,1904,1899
1859,1861,1796
1882,1854,1823
1887,1871,1856
1856,1887,1903
1863,1875,1879
1880,1858,1817
1868,1867,1840
1855,1886,1901
1872,1877,1872
1883,1856,1819
1901,1883,1857
1872,1890,1901
1865,1866,1875
1896,1868,1837
1919,1918,1877
1883,1907,1907
1846,1845,1854
1863,1827,1799
1893,1871,1858
1867,1891,1904
1878,1879,1878
1905,1883,1839
1914,1904,1881
1844,1873,1889
1833,1834,1838
1858,1827,1802
1887,1867,1856
1877,1901,1915
1877,1883,1885
1918,1890,1843
1899,1895,1857
1843,1879,1882
1855,1872,1862
1884,1862,1817
1904,1889,1867
1886,1920,1918
1871,1885,1870
1855,1827,1778
1873,1845,1833
1878,1895,1904
1892,1896,1885
1903,1866,1831
1857,1840,1814
1844,1861,1872
1857,1870,1871
1888,1858,1817
1897,1892,1858
1937,1899,1910
1862,1871,1873
1923,1862,1820
1920,1882,1862
1887,1904,1918
1872,1903,1902
1902,1876,1840
1892,1887,1846
1849,1902,1921
1883,1875,1871
1885,1872,1827
1815,1872,1832
1870,1890,1898
1855,1885,1872
1872,1873,1835
1899,1888,1856
1885,1909,1923
1871,1872,1873
1846,1834,1798
1879,1867,1841
1857,1891,1899
1889,1884,1878
1901,1869,1839
1904,1903,1872
1878,1911,1920
1875,1893,1887
1923,1899,1843
1927,1905,1858
1818,1881,1879
1921,1869,1868
1890,1869,1820
1889,1881,1851
1885,1925,1920
1858,1870,1857
1872,1846,1799
1845,1878,1846
1876,1907,1904
1913,1895,1879
1902,1881,1829
1903,1889,1856
1892,1924,1929
1890,1901,1904
1867,1845,1807
1915,1866,1842
1875,1904,1910
1862,1872,1866
1878,1858,1802
1891,1879,1846
1869,1883,1888
1873,1869,1877
1931,1856,1815
1917,1886,1856
1936,1929,1930
1883,1898,1891
1868,1836,1790
1888,1859,1838
1867,1898,1907
1840,1888,1887
1845,1852,1811
1894,1883,1859
1845,1918,1914
1923,1940,1930
1870,1858,1814
1838,1852,1819
1815,1857,1865
1823,1867,1858
1882,1858,1809
1917,1889,1853
1866,1891,1901
1890,1870,1860
1907,1874,1825
1924,1882,1855
1856,1883,1898
1871,1869,1866
1888,1862,1821
1910,1891,1866
1883,1906,1906
1887,1905,1885
1888,1859,1813
1878,1855,1831
1856,1870,1873
1878,1891,1883
1910,1888,1834
1890,1877,1850
1851,1866,1885
1891,1856,1855
1859,1839,1793
1905,1862,1840
1861,1891,1907
1828,1873,1877
1849,1842,1808
1895,1870,1842
1875,1878,1895
1867,1872,1871
1935,1857,1825
1954,1872,1859
1887,1882,1905
1877,1875,1878
1901,1869,1824
1887,1881,1853
1895,1894,1903
1898,1897,1879
1881,1872,1825
1907,1909,1860
1879,1886,1904
1835,1839,1840
1858,1823,1776
1850,1867,1857
1854,1886,1913
1898,1873,1870
1925,1872,1820
1881,1865,1817
1867,1865,1872
1814,1867,1858
1873,1849,1802
1881,1863,1826
1909,1890,1888
1903,1883,1868
1893,1873,1825
1873,1886,1853
1858,1893,1886
1831,1846,1841
1892,1847,1808
1871,1883,1840
1905,1920,1903
1872,1881,1868
1857,1833,1776
1872,1857,1818
1872,1898,1893
1863,1874,1863
1891,1857,1799
1938,1883,1847
1879,1889,1885
1826,1856,1845
1852,1859,1808
1872,1897,1856
1861,1872,1874
1843,1855,1840
1885,1872,1808
1919,1917,1860
1847,1869,1865
1835,1841,1834
1872,1838,1788
1865,1875,1831
1894,1903,1903
1851,1871,1854
1872,1829,1782
1870,1858,1829
1871,1890,1895
1822,1879,1862
1833,1832,1790
1875,1862,1837
1837,1872,1883
1838,1856,1842
1872,1855,1805
1953,1865,1831
1869,1873,1883
1862,1874,1866
1873,1854,1805
1885,1891,1853
1863,1882,1879
1843,1851,1830
1875,1837,1792
1898,1874,1841
1861,1889,1887
1869,1882,1862
1861,1831,1792
1872,1863,1830
1850,1869,1872
1867,1863,1855
1893,1860,1817
1866,1861,1827
1847,1882,1882
1861,1875,1871
1859,1840,1792
1857,1857,1815
1837,1872,1868
1856,1869,1856
1849,1825,1781
1858,1856,1821
1855,1891,1879
1851,1872,1855
1869,1840,1795
1879,1856,1838
1872,1876,1891
1878,1875,1875
1886,1845,1810
1850,1840,1803
1839,1874,1872
1861,1868,1867
1885,1842,1804
1902,1861,1841
1862,1872,1889
1847,1834,1840
1872,1824,1802
1873,1853,1839
1838,1841,1856
1850,1830,1845
1872,1829,1801
1875,1863,1833
1868,1872,1889
1863,1871,1867
1863,1831,1807
1877,1856,1840
1877,1891,1890
1884,1872,1886
1870,1841,1802
1856,1830,1820
1840,1871,1873
1853,1846,1851
1877,1846,1808
1904,1877,1852
1842,1867,1872
1839,1856,1841
1877,1854,1809
1871,1825,1821
1855,1863,1885
1863,1856,1867
1869,1840,1805
1872,1850,1840
1850,1868,1887
1855,1858,1863
1863,1841,1808
1879,1875,1853
1872,1906,1910
1855,1867,1865
1858,1831,1789
1858,1843,1823
1849,1872,1883
1834,1846,1847
1856,1823,1799
1890,1857,1842
1859,1872,1887
1872,1879,1873
1896,1871,1840
1879,1859,1838
1826,1840,1856
1840,1845,1840
1872,1842,1801
1889,1870,1841
1866,1882,1902
1856,1858,1872
1873,1841,1808
1888,1872,1843
1884,1896,1904
1854,1858,1862
1872,1839,1808
1874,1872,1839
1839,1871,1858
1835,1847,1846
1868,1843,1810
1885,1885,1851
1885,1925,1915
1856,1872,1863
1847,1818,1781
1857,1855,1824
1850,1888,1881
1857,1875,1858
1877,1849,1808
1881,1859,1840
1861,1904,1891
1849,1871,1862
1891,1872,1820
1873,1859,1835
1856,1871,1876
1827,1837,1840
1866,1841,1801
1874,1863,1826
1859,1888,1879
1853,1877,1862
1872,1850,1804
1872,1841,1820
1859,1873,1887
1857,1872,1863
1863,1843,1795
1869,1861,1826
1849,1889,1884
1842,1859,1852
1861,1842,1801
1879,1867,1841
1862,1886,1889
1870,1874,1869
1886,1857,1809
1882,1853,1822
1856,1877,1882
1840,1856,1845
1859,1831,1783
1891,1862,1840
1871,1877,1899
1842,1855,1845
1877,1846,1803
1904,1904,1856
1847,1872,1870
1831,1833,1831
1853,1819,1788
1873,1855,1837
1866,1889,1888
1870,1878,1870
1872,1840,1790
1877,1857,1823
1861,1887,1882
1861,1867,1861
1871,1843,1802
1904,1888,1860
1863,1879,1890
1830,1828,1826
1851,1802,1775
1886,1858,1838
1867,1904,1899
1863,1877,1866
1872,1847,1807
1888,1870,1846
1841,1855,1869
1824,1829,1838
1856,1826,1786
1894,1865,1840
1869,1886,1879
1857,1875,1862
1871,1839,1807
1871,1847,1828
1857,1872,1878
1874,1879,1875
1890,1863,1808
1862,1843,1818
1840,1855,1869
1853,1860,1858
1883,1861,1823
1877,1856,1827
1852,1872,1883
1849,1872,1874
1883,1872,1817
1882,1872,1840
1847,1879,1872
1840,1856,1856
1871,1841,1803
1883,1866,1838
1856,1877,1874
1853,1871,1850
1872,1851,1799
1878,1870,1838
1872,1897,1902
1867,1872,1871
1903,1863,1819
1887,1869,1835
1850,1875,1875
1845,1852,1845
1863,1835,1795
1889,1872,1831
1874,1899,1897
1887,1903,1897
1862,1840,1797
1840,1820,1792
1840,1860,1863
1859,1859,1858
1876,1853,1801
1885,1872,1831
1875,1904,1898
1856,1870,1858
1849,1827,1787
1872,1856,1818
1866,1893,1875
1867,1889,1872
1874,1856,1797
1856,1847,1795
1843,1875,1857
1861,1875,1858
1869,1847,1795
1877,1866,1819
1861,1878,1878
1877,1887,1874
1877,1847,1798
1857,1840,1797
1835,1860,1853
1857,1869,1847
1874,1863,1804
1887,1887,1837
1846,1878,1874
1835,1851,1844
1855,1841,1783
1872,1867,1825
1862,1901,1897
1872,1893,1878
1866,1827,1788
1876,1855,1816
1865,1871,1878
1834,1850,1840
1858,1845,1796
1872,1859,1823
1843,1883,1878
1853,1872,1866
1874,1869,1814
1898,1902,1856
1854,1874,1872
1823,1857,1829
1847,1840,1785
1884,1872,1831
1862,1889,1889
1863,1875,1866
1874,1867,1808
1887,1879,1837
1869,1895,1890
1856,1872,1866
1883,1872,1813
1872,1871,1817
1856,1885,1868
1854,1873,1856
1872,1854,1801
1879,1872,1830
1871,1882,1891
1850,1866,1867
1862,1838,1808
1883,1872,1842
1863,1905,1902
1851,1860,1854
1850,1805,1775
1857,1829,1811
1834,1860,1868
1843,1863,1855
1872,1850,1802
1881,1872,1837
1869,1878,1889
1872,1876,1869
1872,1856,1797
1906,1907,1852
1859,1893,1886
1829,1855,1840
1852,1839,1787
1867,1869,1830
1869,1889,1895
1863,1877,1877
1874,1849,1809
1872,1863,1829
1861,1891,1894
1862,1877,1872
1870,1836,1802
1870,1847,1825
1857,1887,1896
1859,1858,1872
1885,1856,1818
1901,1891,1857
1856,1881,1882
1861,1873,1865
1858,1838,1802
1869,1857,1829
1845,1884,1888
1862,1873,1872
1875,1855,1805
1871,1865,1827
1846,1878,1872
1843,1877,1856
1880,1856,1820
1876,1850,1835
1852,1865,1879
1849,1858,1861
1869,1842,1806
1872,1859,1827
1856,1881,1872
1857,1872,1866
1882,1860,1819
1872,1866,1829
1842,1883,1872
1837,1855,1840
1863,1840,1806
1901,1885,1856
1882,1909,1908
1840,1851,1840
1845,1827,1779
1878,1865,1825
1875,1897,1897
1869,1889,1872
1878,1858,1814
1873,1843,1821
1856,1875,1883
1862,1863,1872
1859,1822,1803
1871,1867,1831
1891,1923,1918
1853,1869,1858
1841,1819,1778
1872,1858,1837
1868,1883,1906
1859,1871,1869
1864,1840,1799
1877,1871,1839
1861,1881,1894
1851,1858,1863
1878,1852,1812
1891,1867,1841
1871,1885,1898
1867,1889,1872
1904,1881,1840
1904,1872,1854
1841,1859,1866
1840,1856,1856
1879,1856,1809
1905,1887,1854
1890,1904,1911
1913,1930,1915
1840,1810,1775
1834,1821,1787
1859,1871,1874
1867,1862,1872
1887,1851,1808
1893,1874,1843
1875,1899,1907
1873,1886,1882
1877,1854,1815
1878,1856,1825
1866,1883,1884
1858,1870,1867
1904,1870,1829
1898,1869,1845
1853,1872,1881
1859,1871,1865
1891,1856,1823
1887,1861,1838
1869,1877,1884
1866,1878,1869
1893,1869,1827
1926,1904,1872
1852,1874,1883
1809,1840,1825
1856,1824,1781
1877,1843,1829
1870,1877,1891
1868,1878,1877
1879,1854,1820
1887,1858,1840
1854,1872,1885
1870,1879,1883
1880,1858,1814
1865,1841,1814
1856,1873,1881
1866,1871,1859
1878,1845,1807
1907,1893,1859
1859,1893,1892
1847,1863,1845
1863,1830,1787
1862,1829,1811
1848,1872,1879
1856,1872,1869
1889,1868,1823
1899,1893,1849
1840,1876,1873
1826,1843,1830
1852,1827,1779
1872,1861,1826
1861,1890,1879
1856,1874,1861
1883,1868,1808
1900,1877,1834
1865,1888,1876
1840,1861,1835
1869,1842,1790
1893,1878,1836
1869,1898,1885
1862,1883,1872
1872,1867,1808
1903,1879,1840
1859,1885,1881
1845,1867,1849
1877,1853,1796
1904,1903,1845
1863,1890,1881
1854,1872,1862
1873,1840,1795
1869,1850,1817
1860,1879,1884
1874,1901,1883
1901,1883,1833
1870,1858,1808
1837,1863,1857
1837,1856,1853
1870,1854,1805
1906,1917,1858
1887,1920,1905
1836,1868,1855
1845,1824,1791
1871,1855,1831
1862,1885,1891
1857,1867,1868
1873,1846,1808
1889,1872,1843
1872,1904,1901
1863,1892,1881
1861,1851,1808
1873,1871,1839
1882,1917,1914
1873,1885,1880
1842,1827,1773
1863,1867,1822
1864,1898,1890
1855,1873,1872
1859,1842,1797
1874,1861,1829
1870,1903,1901
1841,1853,1863
1872,1849,1820
1860,1854,1827
1840,1873,1875
1846,1871,1863
1869,1854,1810
1874,1872,1840
1857,1892,1897
1857,1874,1878
1874,1862,1819
1872,1867,1828
1855,1885,1883
1842,1875,1857
1877,1868,1821
1879,1875,1843
1872,1899,1909
1825,1839,1840
1827,1813,1761
1863,1870,1818
1836,1879,1875
1850,1874,1874
1869,1845,1802
1874,1858,1826
1853,1884,1879
1839,1866,1849
1862,1845,1805
1886,1877,1847
1842,1873,1907
1838,1854,1898
1866,1844,1798
1885,1869,1872
1863,1885,1920
1859,1877,1855
1875,1871,1805
1872,1860,1846
1855,1862,1873
1843,1852,1813
1866,1845,1817
1904,1898,1858
1836,1867,1872
1823,1835,1787
1845,1825,1775
1873,1867,1851
1871,1901,1905
1861,1882,1860
1856,1830,1761
1856,1837,1813
1850,1872,1871
1860,1881,1872
1867,1849,1807
1871,1854,1825
1862,1895,1902
1844,1862,1856
1863,1847,1791
1867,1856,1831
1867,1901,1892
1845,1858,1855
1845,1833,1792
1857,1860,1808
1856,1886,1899
1871,1887,1878
1879,1856,1827
1871,1858,1821
1840,1866,1840
1840,1859,1837
1867,1844,1804
1883,1859,1826
1869,1885,1879
1856,1862,1843
1877,1843,1814
1903,1874,1852
1860,1873,1879
1857,1885,1917
1877,1856,1776
1904,1888,1840
1856,1883,1904
1828,1849,1840
1856,1840,1797
1858,1846,1810
1841,1875,1893
1858,1877,1885
1885,1863,1793
1875,1886,1839
1849,1886,1851
1834,1853,1826
1862,1840,1767
1888,1872,1817
1885,1904,1936
1840,1866,1819
1862,1840,1797
1879,1857,1797
1863,1887,1886
1859,1872,1845
1879,1861,1806
1909,1913,1869
1867,1894,1904
1840,1859,1906
1859,1840,1808
1887,1871,1840
1859,1885,1895
1863,1876,1838
1881,1865,1810
1906,1906,1857
1888,1914,1915
1824,1846,1843
1850,1839,1805
1878,1872,1843
1851,1878,1879
1858,1872,1872
1872,1851,1811
1879,1867,1842
1878,1886,1926
1871,1882,1840
1883,1870,1831
1902,1910,1870
1853,1872,1890
1841,1856,1772
1857,1830,1790
1865,1856,1783
1870,1898,1905
1857,1872,1881
1872,1845,1808
1897,1877,1808
1898,1923,1933
1842,1870,1870
1852,1841,1797
1872,1870,1840
1872,1899,1908
1868,1874,1890
1872,1856,1814
1899,1889,1856
1879,1904,1905
1872,1893,1899
1893,1872,1840
1862,1823,1801
1843,1855,1879
1847,1861,1861
1872,1853,1835
1888,1872,1866
1870,1897,1870
1856,1887,1895
1878,1871,1829
1890,1881,1809
1872,1893,1914
1853,1865,1869
1882,1856,1862
1886,1866,1850
1869,1890,1892
1871,1894,1845
1872,1863,1824
1883,1872,1867
1867,1892,1872
1856,1875,1867
1866,1850,1814
1903,1897,1846
1884,1904,1909
1871,1878,1880
1872,1837,1791
1858,1847,1815
1849,1877,1882
1856,1860,1861
1877,1849,1783
1885,1872,1808
1862,1890,1886
1862,1883,1882
1869,1849,1807
1872,1861,1865
1872,1897,1909
1862,1876,1886
1892,1863,1739
