1813,1897,1910
1870,1835,1781
1904,1851,1805
1846,1911,1933
1816,1875,1911
1807,1826,1775
1882,1842,1799
1884,1931,1919
1798,1886,1913
1857,1840,1785
1922,1852,1814
1911,1904,1941
1791,1878,1911
1837,1818,1770
1936,1840,1789
1872,1920,1920
1818,1872,1898
1870,1827,1770
1898,1844,1789
1856,1933,1926
1838,1913,1918
1872,1827,1776
1918,1841,1778
1860,1899,1926
1838,1890,1925
1859,1828,1783
2034,1851,1808
1882,1910,1935
1729,1879,1901
1871,1813,1771
1924,1841,1806
1873,1904,1936
1813,1883,1907
1809,1822,1771
1840,1837,1792
1872,1903,1920
1808,1881,1904
1868,1817,1772
1930,1837,1797
1870,1907,1932
1819,1884,1906
1863,1811,1762
1914,1840,1779
1863,1904,1920
1807,1891,1920
1840,1825,1777
1983,1847,1792
1872,1904,1919
1883,1887,1903
1888,1810,1771
1937,1842,1794
1904,1910,1922
1794,1888,1909
1869,1811,1773
1937,1835,1797
1883,1905,1927
1781,1897,1909
1827,1831,1782
1934,1852,1807
1823,1909,1931
1792,1894,1904
1827,1827,1773
1977,1845,1802
1850,1917,1912
1809,1898,1901
1861,1826,1777
1920,1859,1804
1931,1922,1936
1809,1895,1915
1831,1823,1755
1914,1851,1785
1863,1917,1931
1822,1902,1913
1868,1839,1778
1909,1846,1795
1871,1904,1915
1819,1898,1902
1865,1831,1770
1930,1855,1793
1879,1924,1931
1813,1900,1904
1861,1836,1774
1915,1853,1793
1883,1904,1914
1823,1888,1904
1869,1825,1776
1930,1841,1794
1866,1909,1920
1792,1875,1897
1824,1822,1759
1904,1847,1778
1882,1911,1921
1812,1881,1903
1888,1811,1761
1951,1842,1787
1842,1904,1921
1863,1880,1901
1835,1818,1763
1908,1837,1791
1845,1900,1929
1808,1890,1915
1846,1809,1775
1915,1837,1798
1872,1906,1926
1809,1885,1902
1847,1811,1775
1904,1838,1806
1847,1886,1932
1823,1869,1890
1851,1831,1751
1919,1835,1784
1871,1888,1922
1815,1894,1917
1850,1839,1775
1907,1849,1773
1872,1882,1926
1804,1894,1915
1841,1831,1776
1911,1843,1781
1844,1904,1915
1805,1887,1907
1857,1823,1776
1924,1851,1801
1868,1906,1923
1808,1881,1892
1855,1822,1747
1920,1850,1793
1878,1915,1936
1817,1893,1916
1856,1818,1760
1907,1845,1776
1867,1903,1917
1819,1882,1911
1861,1826,1779
1916,1845,1792
1863,1904,1904
1818,1879,1895
1870,1827,1767
1933,1851,1793
1872,1906,1922
1808,1882,1903
1856,1821,1761
1926,1840,1781
1875,1907,1920
1808,1886,1903
1856,1830,1775
1909,1847,1801
1866,1909,1920
1809,1886,1897
1865,1818,1770
1925,1848,1808
1873,1915,1935
1821,1899,1911
1862,1825,1771
1920,1841,1791
1863,1899,1921
1808,1885,1904
1857,1824,1775
1918,1842,1802
1871,1905,1919
1808,1887,1915
1857,1823,1775
1919,1840,1801
1863,1894,1934
1804,1884,1904
1851,1822,1758
1914,1841,1791
1864,1904,1920
1809,1899,1904
1855,1830,1762
1921,1856,1780
1865,1920,1905
1808,1887,1891
1853,1818,1773
1905,1841,1791
1865,1905,1914
1807,1885,1897
1849,1813,1773
1913,1845,1793
1872,1904,1920
1809,1889,1899
1851,1834,1776
1918,1853,1788
1859,1906,1917
1808,1899,1902
1857,1826,1777
1919,1840,1795
1863,1913,1919
1804,1895,1904
1847,1824,1767
1907,1842,1776
1859,1904,1913
1804,1891,1904
1849,1822,1762
1919,1846,1789
1868,1910,1917
1808,1886,1904
1849,1823,1763
1909,1847,1776
1867,1915,1908
1807,1898,1906
1849,1830,1772
1905,1845,1790
1867,1902,1919
1825,1867,1911
1843,1793,1774
1904,1856,1776
1866,1894,1921
1819,1872,1905
1843,1809,1770
1907,1841,1780
1859,1911,1927
1817,1883,1903
1862,1824,1765
1904,1855,1776
1858,1925,1917
1804,1906,1910
1846,1827,1769
1911,1848,1778
1872,1904,1921
1809,1894,1910
1859,1824,1763
1913,1841,1773
1865,1915,1917
1802,1893,1904
1841,1824,1759
1903,1840,1779
1846,1893,1906
1794,1879,1895
1855,1829,1772
1920,1841,1795
1863,1900,1920
1808,1877,1904
1854,1817,1762
1913,1840,1782
1872,1904,1914
1810,1888,1903
1852,1815,1759
1910,1835,1778
1866,1889,1910
1810,1886,1906
1867,1831,1766
1926,1845,1797
1867,1905,1914
1808,1885,1899
1871,1827,1776
1924,1840,1798
1875,1902,1925
1813,1897,1904
1860,1828,1767
1924,1884,1788
1872,1872,1914
1822,1825,1905
1857,1812,1759
1918,1790,1785
1866,1961,1921
1811,1861,1904
1853,1821,1775
1917,1877,1787
1861,1907,1917
1805,1903,1906
1856,1806,1774
1920,1862,1790
1863,1905,1919
1807,1901,1903
1851,1799,1762
1920,1829,1787
1875,1921,1922
1815,1892,1904
1853,1871,1763
1908,1826,1776
1872,1904,1924
1824,1889,1919
1862,1833,1785
1923,1837,1792
1862,1910,1923
1805,1855,1915
1856,1878,1773
1921,1836,1790
1875,1933,1922
1821,1942,1911
1869,1859,1783
1927,1838,1795
1888,1872,1927
1826,1889,1913
1869,1840,1773
1933,1842,1793
1876,1915,1936
1823,1873,1919
1862,1825,1776
1922,1853,1776
1872,1903,1911
1818,1894,1919
1871,1820,1782
1922,1839,1789
1878,1894,1920
1815,1874,1903
1859,1808,1770
1925,1870,1780
1885,1911,1920
1814,1838,1922
1855,1881,1779
1917,1824,1790
1877,1906,1918
1817,1904,1906
1859,1874,1778
1922,1881,1801
1869,1950,1929
1819,1889,1911
1856,1851,1775
1917,1872,1791
1871,1931,1911
1814,1915,1911
1856,1882,1776
1923,1857,1790
1872,1905,1914
1820,1906,1908
1870,1822,1776
1926,1895,1791
1881,1872,1914
1812,1878,1917
1858,1823,1777
1929,1870,1799
1897,1915,1932
1831,1904,1911
1869,1820,1772
1922,1857,1783
1884,1908,1919
1821,1891,1909
1865,1826,1761
1927,1841,1794
1875,1899,1929
1823,1878,1915
1872,1821,1771
1936,1861,1795
1881,1910,1931
1822,1883,1921
1867,1815,1773
1927,1850,1780
1887,1899,1915
1827,1895,1915
1873,1821,1776
1926,1831,1789
1875,1907,1918
1815,1861,1904
1856,1820,1775
1919,1835,1791
1879,1896,1919
1820,1892,1906
1866,1825,1759
1935,1850,1792
1884,1913,1925
1834,1891,1918
1876,1808,1774
1931,1855,1783
1872,1936,1920
1813,1902,1911
1865,1827,1776
1935,1827,1782
1878,1959,1917
1821,1905,1911
1864,1843,1781
1923,1838,1794
1889,1993,1925
1835,1890,1915
1873,1843,1782
1936,1840,1779
1888,1902,1910
1827,1867,1908
1887,1808,1789
1945,1907,1808
1886,1895,1925
1821,1883,1905
1862,1818,1775
1925,1854,1777
1888,1919,1920
1830,1903,1923
1867,1827,1786
1933,1831,1790
1881,1894,1920
1819,1936,1910
1863,1794,1776
1930,1846,1790
1887,1901,1916
1827,1867,1903
1867,1840,1757
1931,1839,1776
1875,1939,1919
1815,1882,1915
1861,1818,1771
1919,1837,1776
1873,1904,1914
1813,1860,1904
1860,1786,1767
1921,1873,1792
1872,1914,1930
1821,1901,1914
1858,1791,1771
1917,1872,1779
1873,1925,1924
1817,1941,1913
1863,1808,1777
1927,1839,1788
1867,1909,1907
1808,1897,1897
1858,1745,1785
1935,1895,1808
1876,1988,1926
1819,1886,1909
1863,1826,1777
1923,1840,1781
1876,1919,1919
1821,1899,1913
1853,1830,1776
1907,1840,1786
1863,1907,1921
1807,1902,1908
1855,1830,1766
1917,1847,1778
1867,1910,1909
1813,1895,1913
1858,1833,1786
1919,1845,1790
1870,1906,1911
1821,1890,1904
1855,1819,1760
1920,1842,1776
1886,1911,1920
1823,1898,1917
1856,1825,1776
1923,1839,1787
1871,1894,1918
1822,1893,1915
1862,1831,1766
1921,1848,1789
1877,1909,1926
1826,1901,1923
1866,1837,1779
1931,1847,1782
1872,1904,1908
1822,1895,1909
1863,1835,1774
1922,1853,1780
1877,1914,1920
1834,1891,1929
1872,1825,1786
1926,1843,1791
1872,1904,1926
1808,1892,1917
1852,1825,1767
1920,1840,1788
1872,1913,1929
1798,1890,1920
1840,1825,1783
1905,1840,1789
1865,1905,1921
1811,1889,1918
1855,1821,1774
1920,1843,1799
1872,1905,1926
1817,1893,1914
1855,1824,1779
1927,1846,1794
1884,1913,1929
1809,1900,1906
1851,1824,1773
1917,1841,1792
1879,1904,1920
1823,1891,1922
1862,1820,1792
1920,1843,1795
1877,1911,1922
1816,1899,1917
1856,1824,1783
1920,1840,1797
1874,1909,1927
1818,1890,1907
1855,1829,1783
1919,1845,1796
1878,1905,1923
1817,1886,1911
1852,1813,1778
1917,1831,1807
1879,1895,1933
1821,1895,1911
1862,1831,1776
1919,1845,1793
1872,1902,1927
1811,1889,1920
1858,1823,1789
1925,1838,1795
1873,1895,1915
1809,1888,1913
1851,1825,1773
1910,1835,1778
1872,1905,1919
1808,1888,1915
1862,1821,1771
1927,1851,1791
1875,1908,1926
1814,1889,1915
1856,1826,1776
1920,1843,1792
1877,1907,1918
1819,1894,1919
1856,1825,1781
1911,1844,1789
1873,1904,1920
1823,1889,1911
1857,1831,1762
1919,1849,1778
1874,1911,1904
1821,1887,1916
1859,1825,1783
1923,1847,1785
1879,1914,1918
1809,1889,1918
1855,1815,1777
1930,1837,1789
1888,1904,1920
1822,1895,1915
1856,1824,1772
1925,1835,1793
1872,1899,1920
1820,1895,1921
1858,1827,1779
1915,1830,1776
1871,1899,1916
1822,1897,1919
1855,1823,1776
1920,1840,1789
1872,1899,1920
1814,1882,1915
1870,1821,1774
1930,1840,1804
1883,1898,1925
1809,1879,1917
1856,1823,1776
1923,1843,1785
1879,1904,1930
1825,1879,1926
1866,1820,1779
1927,1841,1786
1884,1903,1927
1809,1889,1926
1853,1820,1775
1922,1840,1778
1879,1904,1935
1815,1895,1939
1850,1826,1792
1915,1835,1786
1872,1899,1915
1814,1887,1919
1856,1821,1782
1920,1840,1787
1870,1901,1916
1814,1879,1913
1858,1811,1751
1914,1838,1794
1872,1900,1927
1809,1890,1872
1847,1829,1769
1919,1841,1775
1872,1904,1907
1808,1892,1923
1853,1823,1739
1919,1838,1805
1876,1904,1887
1813,1901,1953
1847,1834,1805
1910,1842,1789
1875,1904,1913
1813,1890,1909
1851,1817,1802
1919,1836,1760
1877,1903,1905
1823,1898,1897
1856,1827,1781
1915,1840,1807
1872,1901,1913
1809,1882,1887
1847,1817,1775
1910,1839,1765
1869,1906,1924
1808,1888,1915
1842,1817,1767
1909,1831,1771
1867,1897,1935
1808,1879,1909
1856,1822,1776
1933,1840,1791
1879,1911,1911
1820,1897,1907
1858,1822,1767
1918,1839,1777
1877,1904,1921
1816,1897,1923
1859,1830,1773
1924,1843,1783
1872,1911,1914
1803,1895,1893
1849,1831,1777
1931,1841,1797
1874,1907,1920
1815,1894,1918
1862,1823,1769
1922,1840,1793
1872,1911,1885
1819,1902,1927
1855,1828,1792
1920,1846,1747
1885,1918,1927
1820,1910,1906
1847,1839,1793
1931,1854,1803
1879,1909,1911
1819,1904,1920
1866,1840,1776
1926,1856,1802
1886,1919,1950
1823,1911,1941
1867,1847,1776
1933,1863,1737
1879,1921,1904
1815,1907,1935
1851,1842,1805
1921,1846,1776
1873,1907,1874
1811,1901,1920
1856,1836,1795
1921,1853,1759
1889,1907,1920
1821,1891,1876
1851,1840,1778
1919,1855,1771
1873,1910,1907
1809,1895,1906
1853,1833,1770
1921,1842,1777
1872,1904,1917
1808,1879,1905
1844,1827,1776
1921,1851,1821
1890,1922,1866
1823,1904,1893
1856,1841,1787
1909,1842,1754
1873,1906,1917
1824,1900,1925
1856,1825,1793
1927,1840,1783
1872,1915,1937
1807,1902,1935
1848,1831,1776
1923,1845,1776
1887,1906,1920
1827,1907,1968
1857,1840,1787
1918,1837,1776
1874,1904,1910
1813,1904,1915
1847,1841,1787
1911,1856,1776
1872,1904,1891
1807,1890,1924
1841,1811,1746
1912,1844,1772
1874,1918,1936
1812,1904,1919
1843,1829,1786
1910,1845,1771
1882,1907,1903
1817,1890,1902
1846,1823,1745
1914,1843,1795
1873,1909,1971
1809,1906,1897
1849,1838,1781
1918,1843,1776
1875,1904,1920
1808,1904,1974
1846,1833,1808
1914,1841,1783
1882,1907,1875
1819,1900,1935
1850,1833,1862
1909,1845,1766
1869,1910,1936
1805,1904,1909
1845,1839,1792
1924,1841,1791
1878,1904,1888
1817,1909,1915
1853,1843,1783
1922,1850,1744
1872,1904,1918
1808,1903,1899
1847,1840,1776
1917,1849,1706
1875,1904,1920
1806,1895,1965
1840,1839,1765
1910,1851,1780
1877,1923,1924
1815,1915,1910
1854,1840,1855
1919,1844,1778
1872,1908,1904
1810,1897,1950
1859,1839,1786
1915,1856,1789
1866,1917,1967
1804,1904,1987
1845,1840,1786
1910,1847,1790
1869,1906,1919
1807,1885,1922
1840,1829,1786
1913,1847,1780
1871,1905,1911
1810,1897,1921
1856,1825,1789
1923,1837,1782
1869,1897,1909
1808,1899,1922
1855,1830,1789
1920,1839,1791
1875,1897,1920
1808,1898,1917
1850,1825,1776
1916,1835,1776
1872,1898,1904
1807,1887,1916
1840,1818,1776
1915,1828,1784
1882,1883,1919
1821,1887,1914
1856,1829,1786
1922,1840,1791
1879,1897,1923
1810,1888,1923
1844,1822,1792
1920,1844,1798
1870,1905,1921
1776,1894,1907
1777,1837,1776
1915,1845,1777
1913,1909,1904
1819,1901,1934
1874,1827,1792
1895,1837,1776
1856,1897,1910
1840,1886,1916
1843,1830,1792
1874,1851,1803
1915,1914,1926
1829,1903,1921
1860,1829,1776
1905,1840,1786
1934,1911,1914
1776,1901,1923
1836,1826,1779
1920,1845,1781
1878,1913,1922
1803,1902,1919
1840,1830,1779
1909,1834,1776
1877,1895,1920
1810,1891,1926
1859,1833,1777
1903,1840,1771
1847,1901,1920
1799,1893,1917
1794,1833,1776
1918,1850,1786
1877,1904,1920
1819,1890,1917
1845,1827,1773
1926,1840,1779
1881,1916,1921
1801,1904,1918
1842,1829,1780
1920,1836,1783
1879,1917,1921
1819,1915,1927
1857,1847,1798
1934,1849,1792
1872,1907,1921
1828,1901,1920
1851,1831,1777
1934,1839,1776
1889,1895,1915
1843,1887,1909
1840,1830,1777
1953,1842,1794
1856,1904,1919
1808,1894,1915
1826,1822,1776
1913,1837,1776
1865,1901,1911
1805,1904,1921
1808,1840,1779
1895,1840,1776
1890,1894,1911
1851,1887,1919
1833,1825,1775
1951,1842,1791
1872,1901,1921
1790,1888,1912
1841,1823,1775
1906,1844,1787
1874,1901,1925
1810,1885,1925
1833,1820,1783
1935,1838,1786
1870,1901,1918
1822,1899,1933
1847,1835,1783
1919,1840,1785
1893,1898,1904
1814,1894,1913
1843,1821,1778
1917,1831,1795
1868,1895,1917
1815,1897,1927
1843,1823,1795
1920,1828,1791
1885,1893,1917
1834,1897,1920
1872,1833,1781
1943,1835,1783
1870,1896,1907
1803,1893,1921
1840,1819,1785
1935,1838,1783
1890,1903,1924
1744,1891,1924
1885,1815,1776
1959,1834,1783
1873,1904,1920
1817,1894,1924
1857,1830,1789
1922,1843,1789
1875,1905,1922
1811,1889,1922
1852,1819,1787
1913,1841,1791
1887,1909,1915
1808,1904,1928
1839,1826,1787
1933,1838,1790
1877,1901,1915
1814,1889,1912
1759,1821,1779
1991,1839,1782
1968,1879,1927
1808,1894,1917
1840,1846,1792
1936,1834,1792
1893,1904,1975
1806,1905,1918
1926,1847,1783
1974,1829,1783
1858,1911,1906
1839,1905,1907
1810,1819,1777
1920,1833,1776
1904,1915,1913
1837,1904,1926
1842,1828,1793
1931,1826,1780
1893,1902,1905
1839,1897,1911
1813,1829,1783
1935,1830,1781
1883,1906,1915
1822,1895,1922
1825,1818,1778
1941,1831,1785
1887,1901,1919
1823,1895,1914
1853,1825,1781
1919,1833,1777
1937,1898,1917
1820,1897,1934
1870,1822,1787
1920,1827,1777
1859,1895,1909
1813,1892,1918
1839,1826,1796
1909,1834,1799
1885,1905,1914
1840,1903,1913
1846,1829,1776
1919,1840,1780
1935,1899,1912
1825,1894,1924
1869,1822,1783
1919,1827,1790
1872,1901,1917
1810,1898,1918
1858,1829,1773
1919,1840,1787
1884,1905,1925
1825,1885,1932
1858,1818,1781
1926,1837,1778
1898,1904,1915
1830,1893,1915
1854,1819,1779
1920,1835,1776
1889,1899,1910
1827,1893,1917
1855,1820,1776
1922,1829,1773
1879,1898,1907
1819,1897,1915
1855,1819,1780
1934,1828,1783
1887,1899,1917
1814,1886,1920
1850,1823,1782
1917,1830,1786
1883,1898,1918
1823,1890,1920
1850,1823,1767
1919,1825,1776
1883,1898,1927
1829,1898,1935
1868,1835,1794
1926,1838,1783
1886,1894,1905
1809,1895,1910
1840,1834,1774
1923,1837,1778
1893,1904,1911
1821,1897,1918
1855,1835,1779
1931,1839,1779
1890,1904,1907
1823,1899,1914
1857,1831,1774
1922,1845,1777
1879,1911,1927
1821,1898,1923
1855,1827,1785
1937,1839,1776
1883,1901,1906
1818,1903,1921
1845,1840,1776
1921,1855,1777
1885,1909,1918
1815,1906,1921
1851,1842,1788
1931,1856,1782
1894,1923,1903
1827,1904,1920
1865,1830,1801
1934,1840,1792
1898,1913,1907
1837,1905,1915
1855,1844,1781
1923,1843,1783
1886,1904,1919
1818,1901,1909
1841,1840,1783
1937,1837,1778
1886,1915,1917
1811,1904,1910
1849,1837,1776
1924,1853,1775
1886,1907,1909
1812,1907,1922
1845,1838,1771
1915,1844,1766
1879,1907,1904
1826,1903,1915
1866,1839,1776
1934,1837,1770
1894,1901,1904
1821,1901,1921
1857,1826,1781
1931,1837,1775
1894,1895,1894
1825,1899,1905
1862,1834,1776
1933,1851,1792
1891,1908,1921
1823,1896,1917
1854,1826,1776
1929,1839,1776
1894,1902,1919
1825,1894,1924
1855,1835,1787
1934,1840,1785
1899,1904,1905
1829,1906,1923
1856,1840,1791
1931,1850,1779
1901,1909,1906
1834,1910,1919
1861,1843,1787
1924,1847,1783
1889,1904,1907
1822,1905,1920
1852,1842,1778
1917,1850,1775
1877,1911,1904
1820,1905,1916
1861,1842,1791
1931,1845,1781
1888,1903,1905
1817,1903,1921
1856,1840,1792
1930,1851,1779
1883,1913,1904
1819,1904,1919
1856,1839,1776
1931,1842,1775
1895,1907,1911
1823,1894,1921
1855,1828,1779
1920,1846,1760
1877,1906,1909
1822,1901,1935
1858,1840,1794
1920,1846,1786
1883,1904,1911
1811,1898,1917
1857,1837,1789
1919,1841,1783
1888,1914,1919
1821,1906,1930
1849,1835,1779
1923,1840,1770
1887,1904,1910
1817,1895,1931
1845,1827,1790
1914,1839,1779
1883,1904,1898
1813,1897,1919
1851,1831,1794
1927,1843,1792
1889,1920,1926
1821,1905,1935
1859,1837,1793
1927,1842,1785
1884,1909,1919
1829,1906,1930
1859,1841,1789
1923,1849,1794
1894,1933,1934
1823,1891,1931
1850,1797,1781
1915,1840,1781
1884,1904,1918
1811,1936,1933
1850,1841,1776
1924,1834,1791
1887,1920,1927
1830,1863,1939
1865,1838,1780
1934,1856,1786
1879,1923,1910
1823,1910,1937
1858,1830,1786
1914,1818,1776
1888,1853,1898
1811,1867,1925
1855,1865,1785
1919,1803,1778
1874,1889,1909
1809,1888,1911
1845,1827,1776
1919,1835,1781
1887,1904,1919
1817,1903,1921
1845,1871,1783
1923,1823,1785
1878,1858,1910
1813,1899,1919
1852,1833,1783
1921,1814,1777
1884,1899,1905
1810,1867,1914
1843,1813,1774
1913,1849,1773
1881,1898,1907
1815,1901,1922
1855,1827,1780
1920,1828,1773
1883,1936,1904
1811,1891,1907
1843,1824,1771
1910,1842,1755
1877,1897,1894
1823,1893,1926
1857,1826,1785
1920,1835,1766
1877,1893,1897
1802,1844,1908
1843,1813,1778
1922,1840,1774
1887,1913,1907
1818,1942,1920
1843,1854,1771
1917,1815,1760
1876,1904,1903
1810,1904,1930
1851,1778,1791
1921,1840,1775
1877,1869,1903
1808,1876,1905
1844,1803,1787
1920,1851,1785
1875,1903,1918
1808,1856,1921
1840,1822,1776
1918,1833,1776
1887,1898,1907
1822,1893,1920
1856,1810,1786
1921,1839,1776
1882,1900,1902
1814,1913,1909
1855,1820,1767
1920,1787,1767
1875,1881,1910
1808,1895,1914
1850,1822,1776
1920,1830,1776
1879,1888,1907
1819,1873,1922
1846,1802,1771
1921,1825,1764
1893,1900,1903
1830,1895,1915
1853,1770,1775
1921,1842,1756
1874,1902,1887
1809,1855,1921
1841,1811,1779
1908,1807,1760
1878,1830,1894
1813,1989,1903
1854,1825,1778
1924,1824,1769
1878,1893,1895
1808,1891,1916
1845,1821,1779
1921,1840,1761
1890,1888,1891
1815,1879,1918
1845,1817,1781
1911,1830,1771
1887,1889,1893
1823,1893,1916
1856,1891,1785
1924,1824,1776
1881,1969,1904
1813,1892,1917
1855,1823,1769
1921,1869,1777
1874,1950,1904
1815,1876,1911
1840,1877,1781
1918,1846,1776
1873,1890,1898
1808,1917,1904
1842,1813,1782
1922,1877,1776
1881,1942,1909
1822,1887,1930
1845,1897,1776
1913,1815,1762
1879,1920,1897
1810,1899,1926
1843,1811,1791
1918,1872,1774
1883,1921,1897
1808,1890,1913
1839,1830,1779
1910,1845,1771
1884,1808,1905
1812,1901,1911
1846,1831,1781
1917,1838,1770
1872,1901,1892
1811,1907,1925
1850,1834,1795
1922,1799,1772
1877,1902,1894
1808,1875,1910
1833,1780,1773
1905,1807,1761
1881,1894,1902
1810,1893,1922
1840,1857,1782
1916,1825,1773
1872,1871,1883
1808,1918,1918
1846,1831,1789
1913,1842,1771
1872,1913,1891
1815,1895,1915
1855,1808,1776
1919,1817,1774
1878,1881,1900
1819,1904,1921
1853,1838,1775
1926,1833,1769
1885,1907,1907
1824,1907,1920
1849,1828,1772
1923,1841,1770
1888,1904,1909
1821,1897,1918
1840,1825,1775
1907,1830,1771
1877,1897,1893
1824,1895,1906
1859,1842,1788
1911,1840,1773
1875,1899,1904
1818,1899,1915
1851,1829,1776
1911,1838,1758
1885,1907,1899
1828,1903,1909
1847,1826,1759
1912,1837,1765
1885,1898,1906
1813,1889,1910
1836,1823,1770
1916,1828,1778
1895,1904,1913
1827,1901,1926
1851,1825,1776
1914,1838,1769
1889,1912,1904
1823,1904,1921
1851,1837,1781
1921,1842,1776
1883,1904,1904
1823,1904,1911
1857,1830,1773
1918,1834,1763
1872,1903,1904
1814,1899,1927
1856,1826,1783
1930,1841,1787
1891,1905,1920
1818,1903,1921
1845,1825,1779
1919,1828,1775
1886,1897,1903
1822,1892,1914
1854,1829,1771
1927,1837,1775
1891,1902,1913
1819,1899,1926
1852,1824,1789
1929,1840,1783
1887,1909,1902
1819,1897,1914
1849,1840,1793
1934,1854,1795
1892,1910,1921
1817,1902,1920
1839,1825,1769
1919,1825,1776
1893,1902,1922
1834,1895,1923
1854,1835,1787
1922,1840,1787
1888,1903,1915
1827,1897,1926
1846,1823,1783
1918,1835,1773
1880,1905,1905
1814,1899,1929
1846,1818,1791
1922,1829,1783
1898,1890,1915
1826,1884,1919
1854,1835,1775
1930,1844,1762
1891,1907,1910
1822,1902,1936
1855,1833,1791
1925,1830,1774
1892,1906,1906
1822,1903,1910
1845,1825,1776
1929,1839,1786
1902,1904,1911
1830,1905,1922
1857,1847,1792
1936,1855,1796
1899,1914,1925
1819,1900,1927
1850,1840,1780
1921,1854,1771
1887,1914,1915
1823,1904,1922
1850,1834,1777
1920,1837,1779
1886,1904,1914
1814,1897,1919
1857,1846,1792
1936,1863,1796
1902,1922,1919
1825,1910,1921
1851,1841,1791
1931,1855,1782
1898,1901,1916
1830,1906,1931
1855,1842,1791
1920,1840,1778
1880,1897,1909
1815,1901,1927
1853,1825,1791
1913,1840,1776
1889,1910,1911
1829,1909,1937
1868,1839,1797
1926,1838,1776
1882,1903,1898
1834,1910,1933
1855,1840,1810
1920,1840,1781
1875,1902,1895
1801,1904,1913
1840,1840,1777
1918,1841,1775
1895,1906,1918
1824,1904,1936
1844,1826,1781
1920,1833,1767
1895,1891,1904
1811,1900,1898
1827,1837,1779
1914,1851,1779
1876,1921,1935
1809,1883,1935
1834,1835,1776
1934,1810,1754
1897,1890,1909
1813,1913,1925
1840,1835,1783
1921,1840,1771
1863,1887,1911
1802,1886,1921
1841,1823,1776
1921,1847,1783
1903,1907,1922
1822,1897,1931
1845,1829,1778
1917,1835,1765
1893,1904,1887
1824,1904,1888
1851,1830,1783
1910,1835,1817
1885,1899,1905
1810,1881,1906
1826,1809,1775
1905,1831,1777
1909,1901,1919
1840,1901,1918
1859,1831,1790
1919,1835,1741
1887,1895,1893
1822,1893,1919
1849,1822,1751
1920,1834,1728
1889,1899,1905
1826,1883,1918
1849,1815,1798
1918,1824,1779
1886,1885,1913
1827,1884,1919
1857,1823,1799
1923,1825,1724
1891,1885,1898
1830,1892,1931
1859,1814,1773
1920,1817,1759
1882,1887,1902
1808,1889,1897
1857,1822,1776
1936,1820,1767
1901,1887,1865
1824,1888,1895
1845,1810,1744
1908,1806,1731
1875,1871,1882
1824,1879,1920
1859,1815,1792
1927,1810,1766
1881,1872,1903
1808,1866,1905
1835,1792,1791
1926,1802,1742
1904,1873,1913
1826,1877,1931
1856,1811,1786
1933,1858,1774
1894,1901,1909
1819,1863,1935
1861,1815,1825
1947,1890,1792
1892,1870,1883
1816,1808,1936
1845,1766,1747
1921,1792,1741
1879,1855,1872
1824,1885,1919
1862,1841,1798
1927,1805,1761
1883,1857,1920
1824,1936,1890
1855,1885,1811
1909,1744,1793
1887,1840,1904
1822,1906,1970
1853,1806,1791
1919,1802,1767
1878,1877,1872
1815,1920,1897
1855,1795,1802
1927,1857,1803
1887,2035,1936
1799,1803,1863
1844,1694,1765
1926,1776,1727
1884,1836,1936
1810,1814,1911
1842,1760,1778
1911,1795,1761
1872,1875,1911
1823,1904,1925
1856,1823,1770
1923,1790,1768
1872,1830,1904
1802,1857,1825
1843,1795,1796
1935,1809,1794
1875,1861,1904
1799,1840,1925
1847,1815,1790
1950,1866,1797
1907,1888,1963
1809,1820,1929
1839,1721,1751
1905,1741,1757
1876,1825,1904
1831,1863,1932
1874,1821,1814
1936,1777,1776
1872,1823,1882
1801,1815,1904
1841,1776,1775
1936,1799,1777
1893,1894,1920
1810,1872,1921
1840,1758,1714
1914,1755,1668
1879,1835,1884
1828,1866,1946
1863,1883,1758
1927,1825,1778
1869,1811,1850
1811,1779,1932
1841,1783,1774
1925,1803,1743
1882,1823,1882
1817,1814,1951
1847,1770,1776
1905,1798,1726
1866,1857,1849
1806,1856,1895
1841,1791,1791
1923,1821,1755
1881,1847,1920
1806,1826,1884
1841,1813,1842
1913,1790,1777
1883,1846,1902
1819,1855,1921
1852,1795,1791
1915,1794,1823
1886,1854,1895
1822,1860,1891
1858,1813,1854
1925,1797,1742
1891,1854,1869
1823,1862,1915
1855,1808,1798
1936,1830,1790
1893,1867,1894
1825,1875,1920
1842,1811,1791
1921,1820,1776
1904,1877,1974
1838,1881,1930
1851,1813,1764
1920,1835,1791
1896,1895,1917
1835,1872,1922
1859,1808,1855
1914,1803,1812
1875,1879,1902
1808,1867,1919
1856,1808,1867
1936,1801,1821
1886,1920,1932
1797,1934,1904
1842,1807,1840
1917,1772,1775
1891,1853,1893
1826,1883,1920
1843,1791,1798
1907,1775,1773
1871,1868,1898
1804,1871,1915
1842,1813,1798
1907,1821,1777
1877,1872,1902
1809,1862,1919
1840,1805,1787
1904,1813,1776
1882,1887,1910
1829,1873,1943
1850,1792,1809
1910,1787,1769
1872,1859,1889
1821,1933,1939
1840,1804,1818
1902,1782,1762
1856,1856,1899
1799,1862,1916
1850,1821,1799
1897,1834,1785
1872,1850,1920
1829,1877,1951
1842,1840,1807
1895,1823,1782
1828,1864,1904
1872,1904,1927
1840,1919,1823
1909,1856,1795
1819,1870,1872
1805,1814,1920
1808,1774,1825
1904,1825,1796
1894,1914,1914
1817,1987,1926
1846,1797,1806
1913,1754,1787
1899,1829,1894
1774,1869,1936
1861,1838,1831
1890,1830,1808
1883,1885,1914
1745,1883,1933
1810,1808,1819
1865,1794,1782
1828,1892,1885
1403,1920,1933
977,1870,1843
1553,1869,1833
1339,1919,1919
1524,1876,1901
1452,1818,1813
1658,1840,1838
1736,1886,1913
1756,1885,1907
1989,1887,1823
630,1895,1829
0,1874,1890
2593,1840,1873
4095,1836,1830
2762,1858,1857
1745,1906,1918
1614,1875,1904
1767,1872,1842
1863,1882,1838
1862,1903,1878
1826,1877,1877
1825,1843,1811
1839,1859,1837
1823,1904,1915
1835,1939,1922
1698,1872,1821
1828,1799,1822
1935,1851,1885
1884,1865,1872
1862,1854,1809
1802,1895,1850
1819,1902,1922
1798,1858,1891
