1835,1867,1899
1820,1889,1897
1839,1859,1840
1854,1872,1837
1843,1899,1902
1831,1894,1879
1838,1869,1819
1870,1862,1842
1859,1915,1920
1851,1919,1906
1870,1853,1840
1879,1843,1861
1847,1894,1850
1849,1891,1907
1873,1862,1836
1894,1872,1856
1862,1906,1859
1847,1894,1879
1881,1861,1857
1904,1891,1895
1872,1909,1930
1846,1875,1909
1882,1846,1842
1912,1868,1861
1872,1904,1900
1843,1921,1911
1872,1856,1856
1919,1867,1840
1885,1894,1971
1848,1885,1875
1886,1841,1852
1911,1866,1809
1882,1895,1853
1859,1904,1963
1891,1867,1841
1933,1885,1861
1900,1919,1936
1877,1911,1921
1902,1866,1854
1919,1887,1862
1892,1930,1920
1879,1904,1916
1909,1859,1874
1935,1873,1871
1908,1903,1936
1883,1895,1934
1902,1870,1853
1921,1871,1866
1903,1894,1936
1888,1883,1918
1904,1860,1855
1923,1872,1837
1897,1894,1891
1879,1877,1897
1902,1855,1843
1922,1872,1869
1899,1901,1930
1899,1893,1919
1913,1837,1861
1929,1871,1885
1897,1904,1930
1891,1873,1907
1911,1827,1853
1923,1843,1891
1905,1872,1936
1894,1882,1918
1921,1860,1878
1940,1872,1894
1914,1896,1943
1893,1885,1919
1913,1842,1873
1926,1853,1877
1904,1881,1978
1891,1871,1987
1893,1843,1879
1867,1863,1919
1877,1898,1970
1889,1871,1933
1925,1833,1899
1941,1859,1893
1905,1879,1872
1889,1859,1847
1647,1835,1866
1742,1870,1906
510,1886,1962
785,1899,1938
1807,1838,1886
2080,1840,1857
1706,1887,2025
1003,1870,1950
1402,1822,1904
2758,1842,1920
2422,1874,1957
1876,1859,1939
1665,1849,1887
1813,1850,1870
1872,1871,1948
1855,1866,1938
1840,1838,1872
1833,1849,1887
1835,1881,1948
1840,1845,1936
1835,1830,1873
1838,1842,1877
1833,1866,1950
1830,1846,1931
1827,1825,1872
1828,1843,1942
1831,1872,1984
1829,1868,1913
1836,1841,1870
1835,1861,1879
1834,1882,1934
1806,1871,1921
1842,1853,1869
1840,1854,1891
1845,1879,1979
1879,1829,1938
1921,1835,1865
1946,1862,1871
1937,1877,1913
1948,1865,1891
1984,1838,1862
1995,1867,1882
1987,1879,1908
1983,1853,1911
2007,1841,1855
1856,1865,1878
1874,1882,1927
2001,1857,1907
2082,1839,1847
2095,1871,1872
2064,1889,1915
2047,1847,1899
2079,1824,1850
2092,1852,1871
2074,1886,1919
2070,1841,1913
2083,1823,1851
2097,1862,1849
2084,1882,1906
2083,1858,1904
2099,1837,1840
2100,1867,1852
2092,1903,1904
2082,1847,1878
2103,1804,1825
2110,1827,1849
2085,1861,1894
2087,1847,1889
2141,1834,1831
2175,1850,1857
2083,1871,1905
2083,1867,1887
2096,1837,1818
2126,1843,1844
2110,1877,1902
2085,1855,1882
2123,1821,1813
2112,1842,1835
2142,1882,1894
2063,1842,1870
2133,1813,1809
2099,1837,1840
2089,1865,1878
2107,1854,1871
2128,1823,1811
2096,1843,1830
2093,1884,1872
2077,1843,1861
2083,1821,1808
2128,1850,1840
2094,1863,1890
2063,1837,1855
2069,1810,1783
2129,1847,1820
2096,1885,1906
2137,1847,1893
2068,1812,1814
2047,1833,1794
2017,1866,1863
2097,1858,1905
2104,1835,1853
2100,1855,1856
1693,1878,1887
1778,1859,1854
640,1823,1801
1109,1841,1820
1918,1861,1881
2043,1837,1873
1904,1824,1813
1778,1848,1824
1811,1872,1874
1843,1861,1870
1808,1840,1813
1837,1857,1825
1831,1872,1862
1835,1857,1833
1831,1827,1803
1818,1846,1852
1839,1885,1900
1872,1900,1871
1863,1827,1793
1837,1808,1812
1840,1853,1879
1857,1871,1866
1827,1840,1808
1826,1857,1823
1840,1891,1871
1833,1872,1856
1834,1840,1805
1851,1861,1821
1867,1877,1872
1867,1862,1853
1822,1831,1785
1851,1847,1808
1821,1874,1861
1839,1872,1856
1866,1869,1807
1906,1845,1822
1844,1854,1867
1849,1844,1851
1830,1839,1797
1856,1859,1808
1840,1892,1859
1872,1869,1845
1879,1837,1785
1897,1857,1821
1882,1890,1877
1869,1877,1844
1888,1846,1789
1897,1862,1809
1855,1891,1863
1707,1895,1853
1425,1845,1789
1022,1865,1811
1668,1875,1872
1958,1867,1851
2015,1843,1787
1963,1875,1813
1707,1904,1863
1808,1883,1840
1855,1830,1790
1789,1841,1819
1813,1853,1867
1887,1925,1863
1835,1883,1792
1826,1850,1806
1838,1859,1857
1831,1853,1847
1835,1847,1795
1834,1854,1822
1781,1899,1867
1840,1871,1845
1862,1835,1778
1835,1871,1812
1793,1872,1866
1822,1878,1859
1853,1840,1804
1881,1868,1808
1882,1879,1854
1801,1884,1866
1803,1841,1814
1840,1824,1787
1840,1853,1840
1802,1845,1836
1711,1827,1794
1866,1855,1819
1776,1872,1869
1876,1853,1854
1835,1831,1794
1905,1840,1821
2016,1904,1871
2237,1869,1830
1434,1840,1777
1862,1858,1808
1931,1847,1856
1786,1844,1840
1935,1823,1786
1969,1886,1808
1814,1886,1857
1817,1854,1838
1879,1840,1789
1887,1853,1806
1855,1886,1847
1815,1872,1839
1831,1840,1783
1838,1861,1808
1829,1889,1859
1831,1871,1843
1827,1825,1781
1841,1846,1808
1859,1875,1857
1845,1863,1843
1844,1857,1779
1829,1853,1807
1535,1879,1859
1732,1883,1841
2064,1840,1783
2054,1863,1802
1888,1883,1857
1802,1856,1843
1799,1849,1795
1842,1876,1808
1846,1858,1846
1827,1856,1829
1853,1833,1775
1885,1843,1805
1929,1872,1858
1984,1874,1842
2037,1845,1780
2073,1866,1808
2066,1893,1862
2080,1855,1840
2111,1855,1783
2137,1902,1813
2120,1903,1866
2125,1895,1841
2143,1834,1783
2163,1854,1802
2158,1881,1856
2149,1877,1835
2163,1854,1776
2180,1855,1803
2163,1888,1854
2167,1891,1832
2182,1868,1776
2197,1879,1799
2183,1895,1855
2180,1889,1840
2193,1857,1779
2209,1881,1805
2189,1872,1843
2179,1859,1829
2204,1826,1776
2217,1855,1806
2199,1904,1859
2186,1874,1838
2206,1851,1776
2208,1856,1793
2192,1883,1842
2181,1891,1831
2203,1871,1779
2221,1882,1806
2199,1898,1851
2189,1872,1837
2204,1854,1782
2207,1872,1808
2187,1894,1855
2180,1871,1839
2200,1851,1781
2209,1874,1804
2181,1879,1846
2176,1922,1840
2192,1847,1786
2195,1839,1802
2176,1882,1854
2165,1874,1841
2181,1865,1782
2197,1893,1795
2174,1915,1849
2165,1869,1828
2178,1855,1769
2179,1882,1792
2168,1953,1843
2159,1887,1820
2165,1837,1759
2170,1859,1777
2129,1907,1820
2129,1906,1803
2157,1873,1747
2175,1898,1775
2151,1905,1811
2137,1891,1792
2158,1869,1734
2168,1906,1758
2146,1933,1814
2129,1885,1787
2147,1863,1726
2163,1903,1756
2134,1927,1790
2129,1882,1765
2151,1872,1723
2159,1905,1744
2133,1935,1803
2126,1907,1782
2131,1879,1722
2130,1902,1746
2114,1936,1797
2111,1923,1777
2129,1879,1722
2133,1903,1743
2112,1936,1783
2100,1904,1764
2123,1872,1711
2126,1907,1735
2107,1923,1776
2095,1887,1750
2110,1898,1712
2113,1902,1733
2095,1911,1782
2087,1887,1765
2101,1870,1703
2111,1895,1725
2094,1936,1786
2077,1910,1759
2083,1872,1703
2087,1893,1722
2067,1919,1779
2062,1911,1769
2064,1886,1710
2076,1904,1735
2057,1911,1776
2043,1907,1759
2062,1861,1705
2059,1876,1726
2038,1904,1785
2033,1900,1775
2047,1885,1713
2061,1885,1727
2029,1932,1784
2019,1917,1774
2034,1863,1719
2055,1872,1740
2029,1894,1789
2023,1875,1771
2036,1887,1736
2030,1891,1744
2003,1913,1794
1999,1923,1787
2014,1866,1727
2027,1889,1753
1999,1906,1802
1991,1887,1782
2010,1855,1728
2017,1890,1754
2000,1911,1806
1984,1864,1786
1997,1845,1733
2011,1901,1758
1987,1906,1808
1968,1897,1793
1984,1917,1748
1979,1863,1755
1963,1871,1798
1968,1854,1788
1982,1866,1743
1967,1886,1750
1879,1933,1807
1915,1949,1791
1965,1797,1728
1982,1824,1749
1966,1866,1807
1951,1855,1783
1962,1855,1726
1969,1881,1758
1957,1898,1818
1943,1867,1797
1952,1840,1744
1951,1885,1769
1927,1903,1807
1936,1855,1802
1955,1842,1760
1989,1938,1823
1931,1936,1814
1909,1819,1775
1937,1759,1745
1957,1876,1787
1935,1972,1855
1929,1952,1828
1933,1833,1761
1941,1776,1786
1919,1879,1841
1916,1887,1830
1936,1872,1783
1934,1827,1808
1905,1867,1856
1904,1861,1840
1931,1868,1786
1949,1927,1840
1916,1994,1874
1894,1829,1823
1901,1788,1763
1915,1863,1797
1903,1897,1872
1899,1907,1862
1910,1781,1788
1922,1777,1808
1884,1875,1861
1886,1870,1856
1909,1828,1808
1922,1919,1824
1899,1883,1872
1881,1831,1854
1904,1787,1808
1914,1813,1835
1895,1895,1879
1895,1857,1878
1905,1839,1823
1904,1855,1831
1894,1919,1876
1887,1869,1869
1901,1879,1819
1905,1887,1850
1902,2043,1911
1887,1873,1881
1891,1712,1798
1902,1815,1840
1885,1893,1909
1887,1919,1905
1904,1895,1835
1893,1833,1819
1866,1776,1879
1869,1863,1879
1890,1841,1836
1899,1871,1867
1873,1871,1910
1857,1835,1876
1874,1823,1826
1919,2032,1906
1888,1981,1931
1839,1762,1857
1856,1712,1811
1887,1855,1872
1895,2121,1971
1859,1820,1910
1855,1727,1807
1871,1803,1837
1860,1798,1915
1865,1899,1911
1879,1855,1858
1881,1840,1865
1851,1878,1904
1846,1871,1890
1867,1835,1840
1879,1856,1867
1869,1981,1942
1857,1841,1899
1863,1776,1829
1865,1776,1850
1840,1869,1903
1841,1896,1905
1873,1893,1871
1867,1866,1874
1840,1840,1904
1832,1798,1882
1857,1891,1843
1901,1886,1930
1872,1803,1948
1805,1791,1851
1824,1890,1808
1855,1946,1870
1843,1911,1934
1837,1873,1901
1847,1817,1840
1862,1843,1862
1853,1872,1936
1854,1840,1922
1856,1819,1840
1853,1881,1856
1850,1934,1933
1851,1911,1936
1903,2028,1936
1881,1855,1895
1807,1774,1841
1808,1754,1849
1842,1781,1851
1866,1878,1895
1868,1990,1968
1852,1931,1936
1843,1787,1846
1848,1803,1851
1827,1813,1913
1833,1841,1911
1853,1878,1862
1862,1907,1892
1849,1872,1938
1827,1909,1893
1846,1851,1834
1854,1873,1872
1841,1963,1936
1830,1885,1917
1859,1825,1858
1869,1849,1876
1839,1904,1923
1827,1936,1907
1844,1825,1853
1850,1839,1876
1836,1902,1936
1840,1900,1934
1846,1863,1863
1847,1808,1889
1830,1937,1946
1829,1904,1936
1847,1863,1888
1861,1921,1927
1847,1985,1981
1821,1920,1952
1839,1838,1899
1850,1808,1929
1837,1964,1990
1835,1935,1981
1850,1878,1914
1843,1877,1936
1831,1935,1999
1840,1897,1989
1857,1929,1945
1859,1946,1942
1808,1857,1977
1811,1871,1965
1840,1833,1930
1860,1925,1972
1847,1926,2033
1840,1895,1999
1840,1909,1936
1855,1959,1968
1836,1947,2003
1818,1876,1977
1841,1872,1936
1859,1918,1963
1838,1918,2004
1830,1901,1985
1849,1907,1940
1867,1929,1969
1843,1897,2003
1831,1895,1984
1854,1907,1936
1863,1926,1965
1838,1904,2000
1820,1901,1971
1835,1900,1923
1850,1931,1962
1827,1965,2010
1826,1914,1994
1844,1919,1933
1850,1931,1936
1826,1906,1984
1822,1907,1981
1841,1900,1933
1844,1922,1952
1826,1995,2013
1817,1878,1971
1822,1830,1899
1827,1903,1935
1818,1955,2000
1776,1935,1978
1782,1886,1915
1776,1904,1936
1794,1931,1991
1818,1913,1970
1839,1903,1914
1846,1940,1937
1828,1966,1996
1813,1935,1957
1839,1857,1891
1834,1854,1911
1820,1923,1981
1822,1910,1967
1840,1895,1904
1840,1927,1922
1811,1929,1968
1815,1905,1963
1840,1895,1918
1846,1933,1923
1821,1925,1964
1826,1900,1959
1840,1923,1903
1840,1904,1923
1820,1904,1968
1815,1869,1939
1829,1872,1883
1843,1901,1918
1821,1939,1967
1815,1919,1936
1837,1885,1877
1841,1936,1918
1825,1941,1959
1810,1918,1927
1842,1856,1886
1850,1878,1913
1830,1932,1955
1822,1930,1920
1823,1910,1847
1825,1930,1892
1822,1941,1943
1822,1913,1942
1844,1887,1884
1859,1936,1907
1819,1973,1936
1808,1885,1918
1824,1808,1858
1840,1872,1889
1829,1910,1942
1831,1924,1927
1834,1907,1862
1856,1907,1899
1837,1941,1945
1830,1878,1926
1846,1887,1871
1854,1921,1898
1827,1917,1941
1825,1877,1935
1857,1895,1881
1856,1937,1887
1825,1939,1931
1813,1840,1901
1824,1861,1845
1845,1936,1888
1834,1920,1936
1827,1887,1908
1840,1872,1853
1853,1886,1872
1840,1903,1936
1829,1925,1899
1836,1920,1833
1849,1866,1869
1834,1890,1930
1824,1894,1913
1843,1879,1847
1863,1903,1874
1842,1919,1920
1841,1916,1914
1843,1885,1837
1840,1886,1854
1829,1947,1921
1837,1901,1904
1853,1871,1847
1847,1883,1865
1836,1875,1911
1822,1873,1891
1843,1876,1840
1861,1936,1884
1830,1930,1920
1818,1895,1893
1830,1861,1827
1847,1858,1857
1837,1881,1917
1841,1876,1904
1850,1868,1840
1849,1885,1840
1830,1916,1895
1829,1873,1890
1846,1849,1842
1863,1904,1871
1831,1912,1902
1829,1884,1874
1849,1856,1833
1862,1894,1871
1849,1936,1919
1821,1904,1872
1822,1823,1815
1841,1852,1853
1831,1943,1904
1830,1914,1885
1847,1851,1827
1850,1865,1855
1834,1902,1898
1843,1910,1887
1842,1831,1819
1842,1874,1840
1822,1897,1890
1822,1879,1882
1837,1820,1819
1854,1854,1851
1830,1939,1901
1831,1958,1878
1839,1857,1808
1846,1818,1779
1833,1869,1889
1823,1873,1881
1847,1858,1859
1849,1878,1861
1825,1923,1851
1839,1856,1875
1837,1822,1822
1846,1873,1811
1819,1901,1917
1837,1881,1872
1851,1852,1840
1845,1875,1811
1831,1926,1904
1824,1847,1866
1843,1839,1835
1853,1860,1864
1837,1903,1872
1839,1895,1845
1839,1846,1808
1840,1859,1862
1818,1879,1905
1821,1857,1815
1840,1857,1810
1846,1878,1840
1840,1936,1906
1815,1839,1872
1825,1818,1819
1850,1869,1859
1833,1893,1842
1835,1872,1875
1840,1853,1808
1841,1856,1810
1831,1885,1886
1829,1888,1872
1851,1818,1817
1850,1859,1834
1827,1898,1898
1823,1884,1883
1845,1855,1825
1859,1884,1850
1834,1911,1898
1840,1894,1886
1851,1863,1843
1843,1850,1807
1830,1862,1877
1835,1904,1866
1863,1865,1815
1863,1841,1842
1847,1905,1905
1840,1901,1838
1849,1856,1835
1858,1883,1855
1843,1902,1881
1834,1865,1866
1855,1863,1812
1859,1936,1823
1835,1899,1934
1835,1869,1865
1852,1857,1838
1857,1878,1846
1833,1919,1920
1825,1923,1863
1841,1858,1840
1854,1839,1840
1840,1887,1911
1826,1905,1856
1843,1856,1803
1849,1859,1822
1840,1936,1904
1821,1895,1863
1840,1837,1809
1851,1861,1872
1840,1885,1902
1836,1875,1857
1839,1875,1806
1850,1877,1840
1834,1904,1843
1823,1872,1861
1843,1815,1821
1847,1872,1881
1821,1920,1890
1826,1876,1856
1859,1845,1825
1863,1846,1849
1843,1891,1913
1843,1880,1840
1860,1854,1789
1862,1885,1849
1841,1936,1904
1835,1884,1857
1847,1817,1902
1857,1840,1785
1846,1888,1893
1830,1893,1866
1843,1875,1807
1855,1871,1838
1837,1883,1900
1835,1849,1760
1847,1840,1810
1862,1874,1844
1837,1921,1889
1831,1903,1862
1856,1863,1872
1857,1874,1841
1840,1870,1891
1834,1846,1860
1855,1840,1809
1862,1872,1839
1840,1910,1900
1841,1895,1861
1850,1874,1807
1856,1845,1869
1837,1861,1870
1825,1847,1872
1850,1853,1809
1857,1894,1831
1839,1895,1903
1831,1840,1846
1850,1847,1718
1859,1901,1872
1845,1898,1952
1826,1882,1879
1840,1871,1799
1856,1863,1846
1842,1887,1885
1840,1875,1862
1859,1823,1824
1862,1859,1861
1840,1910,1880
1836,1881,1854
1849,1837,1808
1859,1876,1840
1840,1926,1895
1849,1899,1885
1859,1841,1820
1854,1879,1823
1845,1904,1842
1839,1843,1863
1847,1815,1798
1859,1884,1840
1847,1919,1877
1833,1872,1857
1850,1795,1809
1857,1843,1841
1839,1904,1892
1840,1895,1872
1850,1847,1809
1857,1885,1846
1840,1867,1894
1829,1867,1845
1865,1872,1859
1867,1872,1870
1847,1879,1869
1843,1871,1866
1856,1840,1831
1870,1872,1886
1856,1894,1809
1849,1862,1866
1856,1838,1801
1872,1856,1840
1840,1905,1929
1840,1877,1863
1859,1858,1807
1873,1829,1846
1854,1893,1885
1840,1872,1840
1851,1825,1806
1867,1846,1843
1846,1873,1889
1849,1870,1858
1865,1856,1810
1873,1847,1837
1852,1875,1888
1845,1849,1861
1869,1830,1808
1873,1850,1830
1855,1856,1878
1851,1840,1856
1873,1854,1811
1872,1875,1853
1854,1895,1893
1843,1873,1856
1867,1823,1806
1873,1843,1840
1856,1879,1897
1843,1886,1863
1861,1837,1797
1863,1851,1823
1847,1892,1883
1866,1842,1861
1846,1836,1808
1871,1892,1838
1886,1889,1886
1840,1842,1866
1901,1808,1809
1856,1847,1846
1904,1860,1900
1815,1869,1869
1854,1858,1809
1867,1872,1840
1823,1898,1888
1809,1873,1869
1900,1819,1808
1856,1856,1826
1833,1855,1879
1838,1833,1862
1835,1837,1814
1840,1856,1838
1838,1873,1881
1840,1865,1851
1855,1833,1808
1887,1860,1846
1840,1887,1870
1840,1867,1841
1859,1800,1798
1886,1831,1839
1842,1871,1882
1818,1878,1861
1841,1861,1808
1864,1844,1838
1837,1833,1872
1840,1861,1852
1858,1899,1819
1894,1865,1839
1788,1834,1856
1873,1815,1843
1862,1817,1797
1873,1853,1829
1853,1873,1875
1857,1856,1852
1872,1808,1803
1872,1845,1834
1842,1917,1867
1842,1855,1846
1856,1805,1794
1869,1856,1835
1847,1877,1886
1850,1856,1855
1859,1835,1795
1817,1825,1835
1808,1847,1891
1820,1882,1866
1845,1831,1796
1830,1842,1830
1872,1877,1887
1862,1834,1851
1841,1827,1791
1825,1866,1835
1856,1840,1878
1815,1853,1856
1827,1832,1802
1857,1867,1825
1829,1916,1872
1744,1862,1856
1770,1780,1807
1837,1846,1834
1819,1918,1879
1834,1856,1853
1855,1806,1808
1809,1871,1829
1824,1888,1867
1840,1845,1843
1872,1821,1804
1870,1863,1833
1870,1883,1875
1841,1851,1853
1871,1835,1805
1867,1863,1824
1849,1878,1872
1847,1840,1847
1869,1837,1804
1877,1947,1841
1851,1895,1877
1843,1808,1830
1885,1808,1776
1901,1839,1810
1856,1866,1868
1851,1856,1855
1850,1839,1797
1882,1842,1826
1843,1851,1872
1855,1856,1855
1811,1852,1808
1869,1881,1831
1872,1887,1865
1851,1871,1841
1866,1821,1806
1872,1847,1838
1854,1890,1879
1843,1870,1855
1854,1850,1797
1862,1859,1819
1850,1885,1872
1843,1879,1855
1860,1830,1792
1862,1856,1825
1839,1887,1877
1810,1867,1851
1827,1829,1797
1903,1847,1829
1856,1875,1879
1851,1840,1855
1907,1837,1807
1865,1872,1843
1850,1890,1872
1819,1834,1839
1909,1840,1801
1833,1866,1840
1863,1884,1898
1802,1872,1861
1850,1851,1803
1840,1841,1831
1885,1856,1881
1856,1862,1847
1839,1841,1805
1872,1824,1831
1847,1872,1877
1903,1843,1865
1879,1859,1809
1883,1885,1838
1835,1890,1876
1809,1850,1847
1874,1819,1806
1909,1840,1840
1858,1895,1894
1847,1870,1859
1857,1835,1808
1849,1846,1831
1838,1866,1873
1760,1847,1855
1353,1808,1813
1664,1872,1844
1904,1897,1881
1885,1890,1863
1910,1839,1810
1883,1865,1840
1847,1886,1879
1850,1857,1850
1883,1811,1804
1835,1840,1836
1839,1856,1879
1853,1843,1856
1875,1815,1807
1888,1904,1846
1863,1866,1887
1854,1842,1856
1859,1863,1808
1933,1883,1843
1857,1840,1891
1845,1808,1856
1875,1814,1802
1884,1855,1837
1867,1863,1888
1869,1837,1858
1884,1856,1808
1875,1891,1825
1850,1893,1875
1850,1847,1856
1772,1838,1811
950,1887,1853
1453,1904,1887
1905,1863,1866
1993,1827,1808
1939,1840,1840
1875,1875,1882
1871,1872,1857
1889,1810,1808
1889,1886,1838
1871,1897,1872
1875,1856,1857
1889,1822,1809
1893,1849,1843
1870,1918,1887
1869,1856,1847
1886,1815,1797
1891,1839,1835
1867,1883,1878
1870,1869,1862
1889,1859,1825
1898,1881,1857
1863,1871,1875
1856,1830,1840
1886,1819,1806
1889,1853,1840
1872,1872,1883
1873,1866,1853
1897,1879,1809
1894,1873,1840
1862,1881,1869
1857,1856,1845
1873,1827,1802
1890,1863,1839
1872,1885,1885
1865,1866,1856
1876,1841,1806
1897,1873,1840
1869,1894,1879
1868,1841,1849
1872,1812,1795
1883,1852,1839
1861,1878,1876
1865,1846,1840
1875,1847,1799
1877,1846,1839
1861,1882,1879
1861,1861,1856
1878,1839,1808
1890,1880,1847
1874,1899,1901
1872,1857,1861
1893,1855,1808
1891,1877,1840
1872,1885,1887
1870,1874,1856
1890,1837,1816
1885,1853,1844
1872,1885,1890
1869,1903,1856
1878,1843,1809
1886,1846,1842
1872,1872,1891
1870,1844,1861
1884,1873,1822
1895,1915,1866
1867,1903,1882
1865,1855,1854
1877,1811,1808
1879,1884,1846
1871,1916,1895
1872,1892,1875
1893,1820,1814
1897,1873,1840
1872,1891,1878
1873,1872,1856
1886,1869,1806
1895,1898,1841
1883,1942,1904
1875,1881,1872
1872,1869,1815
1883,1866,1844
1875,1870,1891
1872,1879,1869
1890,1889,1819
1885,1883,1857
1872,1904,1903
1873,1871,1858
1886,1851,1808
1894,1870,1852
1870,1910,1897
1867,1899,1874
1889,1870,1831
1893,1888,1856
1874,1872,1890
1872,1867,1868
1899,1856,1817
1895,1903,1843
1874,1923,1882
1874,1906,1865
1894,1869,1818
1901,1872,1843
1869,1887,1887
1870,1874,1866
1889,1856,1812
1895,1887,1853
1879,1910,1900
1877,1878,1872
1893,1872,1815
1893,1908,1847
1877,1907,1897
1865,1872,1871
1883,1855,1814
1891,1871,1850
1868,1882,1887
1873,1856,1857
1891,1843,1809
1898,1902,1849
1868,1907,1899
1861,1911,1872
1884,1871,1808
1878,1857,1834
1856,1879,1890
1862,1869,1856
1876,1872,1819
1895,1890,1858
1862,1871,1894
1857,1853,1847
1890,1856,1821
1887,1887,1855
1869,1907,1894
1865,1894,1872
1877,1861,1821
1883,1893,1855
1863,1904,1895
1872,1893,1872
1886,1860,1818
1886,1872,1855
1870,1903,1901
1869,1891,1869
1886,1860,1820
1890,1871,1857
1872,1910,1905
1867,1927,1877
1872,1816,1823
1883,1835,1857
1872,1871,1901
1873,1883,1875
1894,1903,1834
1904,1925,1865
1879,1885,1907
1862,1922,1866
1878,1847,1815
1899,1904,1856
1874,1913,1904
1872,1869,1877
1893,1909,1840
1895,1904,1857
1869,1851,1890
1862,1856,1865
1885,1815,1827
1886,1892,1865
1869,1910,1907
1866,1923,1870
1874,1857,1821
1883,1881,1859
1873,1911,1905
1863,1904,1872
1878,1904,1826
1893,1905,1866
1873,1946,1920
1866,1911,1871
1872,1819,1808
1879,1872,1849
1872,1882,1901
1870,1903,1869
1877,1872,1815
1881,1894,1855
1872,1893,1910
1863,1893,1872
1888,1883,1818
1893,1895,1851
1874,1894,1907
1873,1874,1873
1900,1877,1829
1886,1870,1856
1858,1874,1901
1856,1856,1872
1875,1847,1829
1891,1883,1867
1871,1915,1907
1871,1911,1877
1890,1875,1835
1895,1945,1865
1869,1920,1900
1866,1861,1873
1879,1863,1826
1894,1916,1858
1859,1872,1905
1867,1856,1866
1877,1851,1818
1884,1847,1856
1861,1872,1899
1867,1841,1871
1877,1827,1823
1875,1915,1853
1866,1872,1904
1862,1903,1865
1877,1905,1814
1875,1904,1843
1862,1872,1898
1865,1867,1869
1883,1847,1819
1881,1873,1848
1867,1889,1898
1861,1868,1869
1861,1840,1819
1807,1872,1856
1796,1921,1904
1847,1867,1875
1878,1840,1815
1878,1882,1854
1844,1904,1890
1853,1894,1858
1868,1834,1809
1869,1841,1853
1090,1872,1901
434,1851,1873
1436,1871,1825
1999,1904,1854
1990,1895,1899
1862,1840,1870
1808,1853,1813
1813,1840,1856
1833,1887,1901
1836,1875,1875
1838,1851,1829
1832,1840,1834
1829,1859,1889
1830,1871,1866
1835,1856,1814
1836,1895,1845
1837,1889,1886
1831,1850,1862
1829,1825,1815
1832,1863,1843
1835,1888,1893
1836,1847,1864
1837,1738,1819
1835,1873,1849
1834,1897,1891
1830,1821,1861
1835,1803,1819
1830,1837,1865
1835,1855,1895
1831,1830,1851
1831,1835,1809
1834,1842,1855
1838,1872,1898
1855,1922,1865
1874,1925,1818
1200,1927,1855
1535,1863,1903
1909,1859,1872
1991,1840,1823
1937,1875,1842
1884,1921,1882
1891,1840,1865
1921,1819,1822
1931,1831,1846
1901,1851,1883
1894,1842,1857
1919,1914,1809
1926,1875,1846
1897,1872,1879
1901,1921,1855
1910,1845,1807
1684,1872,1845
1535,1877,1890
1792,1878,1847
1922,1827,1799
1954,1858,1842
1920,1895,1890
1890,1850,1858
1863,1836,1807
1828,1862,1831
1841,1914,1898
1933,1920,1893
1935,1791,1808
1918,1869,1825
1900,1870,1872
1909,1877,1859
1923,1829,1811
1927,1839,1840
1910,1870,1879
1906,1837,1846
1893,1872,1808
1874,1891,1842
1892,1899,1888
1925,1871,1856
1946,1910,1811
1936,1872,1838
1910,1872,1885
1921,1854,1863
1936,1862,1809
1927,1858,1828
1908,1872,1873
1923,1861,1855
1931,1840,1808
1927,1877,1839
1907,1887,1876
1920,1868,1844
1957,1867,1814
1952,1888,1846
1902,1856,1863
1900,1824,1839
1915,1837,1793
1894,1883,1839
1843,1872,1888
1469,1869,1850
0,1847,1807
0,1862,1843
917,1904,1891
2000,1882,1863
2083,1857,1814
1922,1877,1845
1817,1891,1897
1803,1888,1851
1829,1851,1809
1840,1841,1840
1837,1862,1886
1831,1855,1857
1833,1821,1808
1826,1867,1843
1831,1891,1882
1834,1886,1851
1833,1853,1812
1832,1871,1841
1830,1893,1894
1833,1883,1879
1829,1850,1812
1831,1861,1837
1830,1877,1877
1831,1865,1859
1835,1845,1808
1832,1874,1844
1830,1898,1890
1838,1856,1860
1825,1815,1813
1831,1867,1834
1835,1904,1887
1839,1885,1869
1839,1850,1808
1837,1872,1833
1821,1878,1872
1838,1876,1856
1859,1857,1809
1852,1866,1837
1822,1890,1878
1832,1866,1858
1849,1842,1802
1852,1867,1835
1839,1920,1889
1839,1886,1856
1853,1860,1808
1856,1873,1838
1845,1902,1886
1847,1882,1872
1876,1867,1831
1865,1873,1846
1841,1872,1874
1835,1856,1847
1853,1836,1805
1870,1869,1840
1846,1894,1881
1846,1872,1846
1866,1856,1808
1875,1874,1843
1854,1872,1887
1849,1902,1857
1872,1857,1801
1887,1873,1840
1869,1904,1889
1856,1856,1856
1875,1845,1811
1879,1904,1849
1859,1840,1885
1856,1856,1843
1878,1857,1807
1891,1886,1850
1863,1904,1899
1866,1870,1859
1890,1883,1822
1907,1917,1871
1865,1890,1879
1850,1843,1834
1872,1834,1790
1891,1878,1824
1867,1900,1877
1873,1873,1853
1890,1899,1810
1891,1904,1842
1865,1874,1878
1869,1861,1854
1894,1865,1805
1898,1887,1834
1871,1894,1882
1872,1874,1856
1884,1847,1807
1903,1868,1853
1877,1919,1883
1874,1873,1857
1875,1856,1806
1890,1877,1841
1877,1889,1885
1875,1891,1858
1901,1840,1802
1901,1875,1840
1872,1897,1886
1895,1891,1869
1909,1850,1808
1887,1866,1818
1872,1886,1865
1872,1875,1848
1899,1866,1799
1910,1894,1839
1879,1890,1879
1877,1850,1853
1903,1872,1801
1904,1871,1834
1872,1903,1872
1872,1877,1853
1893,1821,1808
1899,1859,1840
1873,1889,1878
1879,1867,1850
1895,1853,1807
1901,1879,1841
1891,1903,1888
1885,1874,1851
1903,1849,1805
1902,1866,1837
1888,1869,1879
1885,1858,1857
1914,1917,1814
1910,1863,1840
1889,1862,1890
1887,1862,1856
1904,1851,1809
1913,1890,1850
1913,1905,1920
1897,1857,1861
1898,1834,1812
1893,1855,1806
1882,1881,1931
1887,1872,1856
1913,1852,1788
1916,1879,1885
1898,1889,1924
1887,1895,1847
1904,1830,1830
1916,1894,1877
1898,1901,1840
1896,1875,1851
1905,1858,1791
1919,1870,1836
1897,1893,1899
1884,1861,1833
1903,1831,1807
1907,1859,1841
1891,1891,1893
1905,1871,1865
1911,1853,1811
1926,1875,1854
1878,1927,1875
