1805,1825,1814
1847,1821,1782
1893,1872,1826
1872,1887,1882
1855,1863,1860
1872,1856,1806
1885,1877,1830
1869,1895,1881
1877,1907,1887
1878,1869,1822
1854,1841,1795
1842,1861,1847
1861,1872,1860
1882,1858,1811
1926,1907,1863
1891,1904,1901
1838,1852,1845
1854,1835,1781
1883,1855,1811
1884,1887,1891
1873,1879,1879
1894,1856,1819
1903,1882,1829
1873,1906,1889
1875,1895,1888
1874,1856,1822
1897,1877,1833
1872,1886,1889
1877,1885,1881
1872,1857,1811
1902,1872,1828
1897,1911,1898
1857,1872,1859
1874,1851,1802
1885,1858,1815
1856,1870,1868
1855,1859,1862
1878,1841,1809
1901,1867,1838
1903,1907,1907
1857,1859,1869
1872,1830,1801
1894,1856,1830
1875,1875,1891
1880,1875,1869
1898,1853,1826
1904,1856,1836
1867,1901,1877
1904,1911,1915
1891,1878,1834
1873,1861,1815
1871,1893,1887
1862,1872,1894
1855,1825,1792
1867,1843,1795
1856,1877,1872
1872,1870,1883
1879,1847,1829
1900,1861,1840
1879,1879,1900
1883,1891,1904
1872,1854,1806
1879,1851,1817
1877,1889,1898
1879,1878,1894
1881,1840,1817
1899,1866,1840
1873,1878,1824
1850,1856,1868
1866,1840,1808
1875,1853,1827
1868,1878,1853
1873,1891,1887
1893,1859,1851
1901,1869,1855
1883,1909,1899
1841,1854,1850
1839,1808,1743
1879,1847,1849
1868,1872,1899
1871,1872,1870
1893,1856,1845
1885,1863,1825
1863,1879,1870
1855,1879,1851
1846,1829,1782
1860,1840,1841
1857,1874,1885
1856,1875,1882
1874,1857,1821
1881,1872,1856
1850,1878,1871
1867,1899,1872
1857,1829,1778
1859,1828,1795
1851,1863,1872
1857,1872,1874
1888,1855,1790
1894,1872,1835
1853,1877,1858
1847,1883,1863
1877,1861,1825
1875,1847,1825
1861,1907,1900
1863,1904,1889
1853,1840,1803
1859,1840,1750
1841,1859,1859
1853,1872,1866
1876,1859,1813
1904,1885,1842
1856,1879,1882
1841,1872,1872
1840,1822,1780
1858,1843,1794
1859,1879,1877
1860,1873,1875
1872,1845,1834
1904,1879,1833
1870,1883,1883
1850,1862,1840
1871,1842,1799
1911,1872,1872
1885,1904,1910
1833,1847,1809
1847,1824,1800
1882,1855,1776
1881,1896,1923
1872,1902,1898
1873,1863,1843
1869,1869,1797
1868,1881,1909
1850,1863,1855
1891,1860,1808
1872,1845,1806
1852,1861,1866
1842,1841,1855
1863,1839,1815
1885,1861,1864
1876,1898,1895
1852,1872,1856
1868,1853,1821
1878,1857,1821
1859,1879,1877
1862,1877,1877
1882,1852,1813
1895,1856,1834
1883,1901,1881
1874,1898,1881
1879,1870,1824
1874,1868,1811
1858,1889,1884
1874,1893,1893
1849,1815,1799
1874,1845,1820
1876,1885,1945
1846,1867,1871
1857,1838,1807
1877,1856,1787
1867,1885,1837
1870,1888,1904
1890,1863,1920
1875,1847,1799
1861,1872,1883
1861,1887,1904
1865,1849,1819
1883,1857,1815
1878,1882,1890
1855,1866,1873
1871,1862,1823
1878,1872,1830
1869,1889,1867
1862,1883,1883
1901,1875,1836
1902,1881,1843
1895,1921,1906
1847,1872,1881
1840,1808,1790
1868,1831,1779
1869,1875,1889
1863,1871,1942
1873,1843,1805
1899,1872,1815
1882,1898,1949
1840,1851,1892
1854,1833,1818
1887,1859,1802
1878,1884,1876
1872,1870,1904
1873,1847,1807
1902,1872,1886
1891,1916,1909
1842,1869,1861
1877,1857,1838
1904,1875,1843
1853,1867,1866
1840,1865,1871
1894,1874,1882
1872,1849,1778
1836,1847,1854
1855,1858,1853
1877,1835,1808
1891,1859,1809
1894,1895,1879
1868,1872,1879
1861,1831,1805
1865,1826,1806
1852,1862,1914
1869,1876,1900
1886,1843,1809
1875,1841,1811
1861,1872,1874
1868,1861,1871
1878,1849,1814
1892,1867,1863
1882,1904,1901
1894,1910,1920
1845,1826,1792
1833,1824,1815
1842,1859,1840
1863,1875,1924
1874,1860,1776
1872,1872,1821
1846,1877,1872
1846,1872,1872
1872,1846,1814
1894,1877,1849
1872,1894,1889
1850,1872,1854
1854,1828,1787
1858,1831,1803
1867,1873,1874
1866,1886,1863
1870,1845,1808
1873,1865,1826
1857,1888,1886
1865,1876,1882
1862,1845,1806
1877,1862,1817
1840,1871,1868
1841,1875,1867
1859,1855,1808
1875,1863,1819
1869,1872,1880
1860,1872,1874
1872,1851,1815
1885,1868,1835
1893,1933,1919
1872,1895,1895
1825,1812,1776
1858,1837,1806
1866,1898,1885
1861,1885,1881
1856,1843,1812
1872,1851,1823
1870,1882,1891
1871,1882,1898
1875,1859,1826
1888,1875,1837
1865,1886,1873
1856,1883,1872
1846,1841,1794
1869,1859,1814
1850,1881,1874
1847,1878,1887
1881,1873,1826
1868,1860,1812
1835,1867,1859
1842,1859,1871
1876,1869,1827
1899,1875,1840
1863,1872,1872
1854,1859,1867
1889,1857,1823
1871,1852,1805
1865,1888,1872
1856,1866,1856
1867,1840,1799
1889,1859,1831
1866,1881,1878
1856,1879,1873
1862,1839,1795
1874,1853,1815
1867,1874,1883
1872,1879,1886
1879,1865,1826
1866,1851,1815
1856,1880,1872
1847,1884,1866
1875,1871,1818
1872,1840,1808
1862,1869,1867
1859,1872,1872
1865,1844,1808
1857,1853,1814
1856,1883,1883
1854,1872,1884
1863,1851,1812
1889,1868,1836
1882,1893,1901
1873,1892,1888
1893,1881,1831
1856,1839,1799
1840,1860,1866
1856,1872,1874
1877,1847,1817
1904,1872,1840
1877,1889,1887
1840,1855,1847
1872,1842,1808
1906,1882,1840
1879,1904,1893
1856,1869,1869
1870,1825,1808
1884,1845,1820
1865,1877,1885
1853,1867,1878
1872,1847,1823
1893,1856,1838
1872,1884,1899
1853,1872,1875
1886,1875,1839
1904,1889,1842
1841,1856,1863
1835,1852,1856
1862,1838,1795
1883,1859,1824
1873,1891,1892
1861,1877,1874
1850,1840,1798
1886,1861,1827
1879,1886,1884
1877,1893,1874
1885,1872,1811
1863,1847,1803
1852,1870,1869
1857,1881,1874
1878,1858,1823
1889,1871,1834
1874,1895,1897
1849,1872,1872
1870,1856,1809
1915,1903,1851
1908,1908,1907
1846,1856,1855
1817,1804,1761
1863,1842,1808
1868,1872,1877
1868,1869,1878
1886,1856,1817
1894,1862,1818
1867,1872,1866
1844,1848,1849
1872,1840,1808
1900,1866,1839
1887,1905,1904
1872,1887,1893
1856,1838,1798
1872,1856,1809
1872,1898,1888
1859,1877,1877
1863,1841,1807
1887,1856,1826
1874,1887,1883
1872,1885,1879
1901,1877,1836
1911,1879,1840
1877,1891,1878
1827,1838,1841
1851,1824,1787
1891,1856,1829
1872,1871,1889
1859,1857,1874
1885,1856,1815
1904,1871,1838
1866,1874,1878
1849,1861,1868
1886,1859,1830
1894,1856,1840
1877,1885,1886
1861,1879,1867
1869,1853,1806
1879,1867,1825
1874,1894,1894
1856,1867,1873
1856,1840,1805
1883,1863,1826
1887,1904,1901
1854,1872,1872
1841,1819,1786
1879,1863,1824
1862,1877,1874
1847,1863,1867
1871,1844,1807
1892,1867,1831
1881,1885,1879
1869,1873,1872
1878,1856,1816
1884,1869,1822
1879,1901,1893
1847,1872,1871
1863,1851,1809
1893,1883,1839
1866,1885,1882
1857,1883,1879
1855,1842,1807
1890,1874,1837
1911,1955,1930
1844,1873,1858
1807,1793,1753
1849,1836,1801
1867,1874,1885
1863,1874,1883
1882,1856,1821
1873,1859,1811
1870,1891,1883
1859,1879,1876
1854,1838,1802
1872,1851,1809
1857,1872,1873
1846,1870,1872
1859,1841,1808
1876,1868,1829
1889,1910,1905
1838,1855,1865
1843,1830,1796
1881,1867,1822
1879,1904,1898
1839,1846,1845
1849,1829,1793
1863,1853,1808
1846,1873,1861
1881,1898,1899
1872,1878,1810
1858,1856,1803
1826,1853,1844
1838,1862,1867
1861,1840,1803
1872,1858,1809
1866,1902,1890
1862,1885,1883
1866,1856,1815
1880,1865,1819
1866,1891,1885
1859,1894,1879
1872,1872,1815
1892,1882,1836
1856,1895,1872
1830,1859,1847
1840,1832,1786
1886,1871,1833
1885,1915,1907
1850,1874,1878
1831,1826,1777
1835,1825,1777
1841,1867,1859
1845,1870,1878
1878,1866,1833
1922,1905,1870
1850,1875,1869
1815,1847,1844
1853,1844,1809
1877,1856,1825
1855,1875,1878
1840,1862,1866
1858,1850,1805
1877,1872,1826
1867,1909,1888
1872,1899,1889
1872,1855,1819
1861,1838,1808
1843,1863,1874
1858,1878,1894
1867,1846,1824
1892,1876,1843
1859,1894,1888
1844,1872,1879
1839,1834,1793
1853,1847,1805
1865,1889,1887
1872,1899,1903
1872,1855,1826
1854,1841,1808
1840,1872,1864
1859,1886,1890
1877,1871,1834
1902,1881,1839
1842,1861,1871
1839,1856,1869
1871,1854,1819
1886,1861,1831
1872,1890,1897
1858,1874,1883
1859,1841,1815
1874,1852,1830
1872,1879,1898
1862,1870,1878
1887,1856,1821
1891,1862,1831
1867,1878,1874
1835,1864,1856
1845,1839,1782
1881,1855,1825
1867,1872,1877
1843,1857,1871
1885,1861,1827
1904,1879,1856
1856,1869,1872
1829,1850,1854
1850,1823,1792
1873,1852,1823
1878,1897,1899
1872,1891,1899
1872,1840,1812
1869,1847,1809
1862,1877,1886
1839,1867,1866
1857,1842,1807
1897,1873,1840
1871,1886,1899
1844,1869,1872
1856,1854,1808
1877,1867,1830
1874,1904,1902
1839,1872,1872
1855,1845,1813
1853,1831,1806
1840,1856,1860
1840,1861,1872
1872,1861,1826
1883,1873,1828
1863,1899,1879
1841,1882,1873
1861,1849,1813
1878,1861,1834
1872,1901,1901
1840,1872,1870
1859,1858,1811
1878,1868,1826
1891,1911,1911
1856,1872,1881
1843,1830,1787
1870,1840,1806
1877,1898,1895
1866,1892,1887
1863,1853,1810
1904,1875,1846
1856,1872,1875
1821,1829,1839
1859,1824,1795
1890,1858,1833
1874,1884,1894
1856,1863,1871
1877,1851,1812
1891,1866,1834
1872,1895,1889
1858,1872,1876
1887,1872,1839
1888,1873,1830
1842,1865,1859
1838,1858,1866
1854,1840,1808
1891,1861,1839
1873,1887,1904
1869,1891,1894
1873,1860,1827
1874,1841,1811
1856,1869,1874
1856,1846,1885
1877,1854,1830
1899,1806,1852
1873,1921,1904
1849,1895,1872
1840,1809,1787
1882,1857,1825
1867,1856,1871
1841,1856,1863
1859,1859,1810
1871,1845,1819
1854,1856,1877
1841,1856,1872
1872,1893,1817
1872,1827,1814
1856,1885,1882
1850,1898,1880
1870,1865,1820
1903,1889,1846
1870,1893,1888
1855,1905,1882
1857,1819,1808
1889,1872,1830
1872,1901,1894
1866,1886,1889
1872,1859,1812
1891,1907,1822
1857,1872,1871
1840,1895,1857
1872,1897,1823
1895,1886,1837
1874,1943,1891
1846,1870,1872
1838,1834,1782
1862,1872,1809
1868,1894,1888
1862,1840,1878
1881,1847,1831
1872,1877,1810
1852,1872,1866
1851,1873,1870
1885,1870,1830
1892,1873,1841
1858,1888,1872
1837,1855,1855
1864,1855,1811
1871,1847,1819
1858,1875,1876
1852,1867,1874
1856,1793,1805
1877,1887,1823
1888,1910,1902
1859,1910,1878
1872,1883,1808
1903,1882,1840
1890,1872,1901
1857,1843,1879
1841,1803,1797
1881,1840,1821
1890,1893,1901
1863,1877,1885
1876,1851,1814
1885,1887,1823
1846,1869,1856
1838,1834,1858
1877,1840,1809
1891,1862,1828
1872,1883,1881
1859,1878,1874
1872,1859,1818
1877,1828,1824
1883,1922,1904
1856,1835,1872
1852,1862,1791
1879,1846,1813
1872,1887,1887
1869,1923,1890
1900,1882,1840
1877,1847,1808
1847,1855,1863
1826,1857,1850
1855,1840,1794
1879,1853,1814
1856,1874,1873
1853,1871,1871
1863,1841,1809
1881,1889,1815
1872,1833,1887
1835,1893,1853
1867,1840,1809
1883,1872,1811
1859,1853,1867
1855,1819,1869
1869,1962,1799
1883,1851,1808
1873,1885,1882
1856,1893,1883
1886,1873,1827
1875,1907,1812
1851,1872,1867
1854,1882,1879
1867,1855,1808
1867,1842,1802
1847,1857,1860
1855,1883,1877
1871,1853,1814
1861,1849,1805
1869,1898,1886
1850,1863,1869
1848,1776,1793
1866,1855,1811
1860,1889,1882
1843,1863,1875
1863,1856,1813
1872,1831,1826
1855,1875,1874
1846,1878,1874
1867,1806,1808
1899,1870,1839
1873,1890,1894
1850,1880,1870
1867,1919,1814
1885,1841,1840
1867,1888,1885
1863,1886,1889
1894,1851,1843
1898,1866,1853
1813,1819,1837
1817,1840,1845
1856,1753,1799
1872,1843,1816
1858,1885,1878
1856,1874,1872
1873,1825,1816
1879,1807,1815
1865,1884,1876
1855,1873,1875
1871,1845,1808
1878,1859,1814
1874,1887,1883
1872,1886,1879
1874,1854,1819
1883,1855,1827
1881,1776,1888
1872,1870,1875
1882,1854,1818
1903,1879,1832
1898,1904,1905
1840,1917,1862
1862,1834,1803
1904,1840,1835
1883,1945,1888
1854,1855,1869
1903,1870,1841
1875,1907,1809
1846,1872,1855
1865,1841,1873
1885,1851,1812
1903,1856,1827
1879,1889,1886
1860,1872,1874
1872,1830,1823
1891,1871,1839
1897,1905,1902
1883,1893,1892
1885,1857,1814
1877,1850,1803
1873,1872,1869
1861,1875,1874
1874,1853,1811
1879,1850,1815
1861,1870,1876
1839,1853,1853
1877,1856,1817
1913,1878,1843
1855,1862,1862
1847,1853,1860
1873,1869,1808
1921,1909,1855
1895,1907,1893
1858,1871,1863
1855,1839,1797
1883,1856,1819
1873,1887,1881
1859,1877,1883
1890,1875,1839
1897,1862,1837
1871,1874,1879
1867,1883,1881
1891,1865,1829
1904,1886,1841
1868,1881,1872
1831,1849,1853
1871,1835,1805
1909,1872,1843
1895,1915,1906
1879,1904,1902
1871,1861,1811
1903,1885,1837
1881,1913,1897
1863,1882,1886
1873,1854,1821
1908,1875,1844
1899,1917,1909
1856,1883,1872
1841,1834,1777
1879,1858,1818
1876,1890,1892
1888,1890,1893
1903,1846,1826
1930,1877,1835
1899,1908,1890
1884,1878,1882
1847,1855,1824
1932,1869,1834
1878,1904,1895
1835,1884,1883
1915,1874,1834
1902,1879,1836
1906,1904,1895
1838,1914,1905
1883,1861,1821
1891,1853,1808
1899,1879,1872
1891,1875,1879
1903,1857,1823
1871,1879,1841
1885,1906,1904
1868,1881,1894
1891,1872,1838
1907,1902,1851
1870,1889,1887
1851,1878,1892
1883,1860,1835
1865,1881,1844
1890,1903,1901
1877,1889,1885
1885,1863,1826
1910,1883,1855
1875,1904,1910
1859,1894,1895
1906,1862,1829
1921,1872,1829
1887,1897,1895
1887,1911,1909
1902,1874,1840
1875,1866,1826
1872,1881,1875
1811,1858,1872
1893,1841,1818
1901,1873,1842
1898,1917,1922
1872,1882,1884
1850,1840,1803
1904,1859,1831
1878,1898,1894
1875,1890,1887
1888,1869,1830
1936,1882,1845
1886,1901,1903
1891,1874,1885
1886,1855,1837
1911,1872,1855
1921,1883,1894
1910,1878,1874
1888,1859,1827
1905,1891,1840
1907,1917,1910
1861,1867,1875
1869,1849,1799
1889,1866,1819
1887,1920,1898
1891,1917,1904
1872,1845,1818
1867,1837,1808
1868,1872,1873
1869,1875,1879
1895,1856,1823
1877,1871,1840
1906,1893,1888
1907,1894,1890
1875,1861,1811
1893,1863,1825
1856,1889,1894
1877,1876,1893
1920,1855,1825
1865,1875,1839
1881,1895,1882
1859,1870,1872
1904,1835,1810
1887,1846,1825
1890,1875,1891
1887,1875,1888
1872,1856,1829
1919,1857,1837
1770,1861,1872
1926,1857,1872
1840,1846,1828
1941,1857,1847
1856,1890,1905
1901,1897,1911
1794,1838,1819
1930,1827,1810
1879,1858,1872
1856,1860,1885
1877,1840,1830
1898,1857,1835
1878,1890,1901
1863,1872,1881
1888,1856,1773
1899,1861,1840
1879,1891,1903
1881,1879,1929
1881,1843,1815
1877,1851,1827
1867,1886,1887
1856,1875,1877
1909,1840,1812
1899,1858,1792
1949,1884,1920
1876,1857,1904
1905,1840,1835
1874,1845,1813
1897,1868,1910
1871,1853,1874
1872,1836,1808
1893,1859,1824
1861,1892,1860
1856,1881,1878
1847,1856,1856
1936,1873,1850
1875,1891,1901
1827,1862,1886
1870,1843,1824
1872,1849,1824
1877,1887,1891
1858,1871,1857
1859,1837,1822
1878,1856,1840
1856,1883,1891
1822,1869,1904
1861,1853,1837
1893,1877,1859
1872,1873,1887
1837,1842,1863
1886,1819,1808
1919,1859,1834
1856,1890,1859
1847,1863,1878
1867,1848,1838
1868,1879,1845
1872,1890,1899
1872,1878,1869
1854,1827,1803
1872,1848,1823
1868,1886,1891
1887,1874,1886
1893,1855,1817
1902,1863,1811
1898,1904,1913
1849,1872,1874
1855,1828,1808
1887,1845,1819
1839,1887,1917
1862,1872,1890
1876,1840,1819
1931,1856,1856
1867,1867,1840
1838,1873,1866
1917,1851,1808
1899,1865,1832
1890,1889,1884
1879,1878,1886
1868,1851,1817
1859,1877,1862
1904,1900,1902
1871,1872,1885
1859,1838,1811
1873,1846,1819
1872,1882,1866
1867,1869,1874
1851,1840,1820
1859,1868,1840
1917,1894,1856
1840,1872,1885
1839,1827,1806
1893,1846,1817
1904,1893,1901
1814,1872,1879
1890,1838,1809
1902,1859,1815
1873,1882,1886
1837,1871,1888
1877,1855,1831
1906,1887,1842
1877,1883,1872
1889,1857,1885
1876,1836,1825
1900,1862,1836
1883,1894,1887
1868,1872,1903
1865,1846,1861
1969,1867,1773
1861,1889,1885
1872,1904,1913
1856,1858,1808
1857,1836,1805
1770,1868,1865
1860,1874,1873
1873,1850,1825
1863,1856,1824
1866,1872,1875
1869,1875,1877
1900,1873,1840
1875,1856,1819
1851,1872,1913
1853,1862,1859
1867,1835,1814
1891,1849,1826
1862,1874,1936
1906,1873,1859
1872,1856,1786
1851,1866,1831
1873,1883,1895
1806,1882,1932
1904,1844,1826
1839,1853,1872
1852,1904,1867
1865,1895,1909
1893,1840,1831
1921,1840,1840
1834,1867,1869
1817,1865,1884
1881,1853,1850
1936,1870,1878
1889,1907,1883
1825,1890,1872
1808,1839,1801
1840,1849,1812
1867,1887,1878
1853,1876,1877
1856,1854,1813
1886,1879,1805
1907,1889,1795
1837,1868,1889
1851,1840,1806
1878,1855,1839
1926,1889,1887
1826,1887,1891
1959,1878,1837
1893,1863,1814
1811,1872,1916
1839,1857,1859
1867,1843,1821
1882,1870,1840
1867,1900,1911
1840,1868,1841
1822,1830,1810
1877,1856,1814
1872,1877,1887
1853,1883,1862
1841,1871,1828
1890,1872,1831
1882,1893,1917
1869,1881,1929
1859,1844,1815
1940,1861,1808
1862,1890,1927
1872,1886,1889
1901,1857,1826
1915,1875,1840
1905,1898,1899
1843,1884,1899
1877,1886,1836
1863,1882,1893
1870,1890,1882
1825,1863,1857
1840,1841,1823
1891,1874,1838
1863,1882,1882
1841,1865,1872
1872,1862,1824
1874,1866,1810
1828,1886,1883
1821,1878,1880
1834,1853,1819
1913,1863,1823
1890,1898,1879
1841,1889,1886
1853,1859,1820
1902,1872,1826
1909,1904,1889
1863,1892,1884
1911,1859,1825
1909,1872,1829
1916,1910,1894
1830,1913,1899
1836,1840,1802
1862,1854,1808
1831,1896,1883
1841,1899,1894
1855,1856,1806
1883,1851,1801
1846,1883,1879
1863,1886,1876
1858,1859,1810
1883,1881,1826
1870,1902,1887
1855,1904,1902
1879,1857,1815
1883,1855,1809
1820,1883,1871
1839,1872,1882
1827,1850,1818
1891,1872,1826
1872,1895,1887
1879,1893,1887
1837,1872,1827
1909,1867,1831
1799,1872,1859
1845,1870,1869
1867,1851,1811
1906,1882,1835
1872,1889,1887
1809,1850,1847
1894,1837,1797
1907,1861,1815
1873,1893,1881
1859,1887,1873
1883,1861,1816
1896,1869,1815
1851,1865,1858
1847,1858,1870
1913,1843,1818
1904,1857,1819
1878,1887,1873
1842,1872,1862
1878,1852,1810
1875,1898,1853
1846,1875,1876
1874,1844,1846
1824,1823,1789
1823,1843,1803
1878,1889,1885
1913,1874,1875
1872,1842,1799
1883,1840,1807
1873,1885,1875
1865,1875,1872
1842,1850,1810
1897,1863,1810
1867,1875,1875
1842,1851,1859
1865,1840,1809
1894,1874,1823
1861,1872,1872
1811,1865,1865
1872,1873,1835
1921,1903,1859
1842,1857,1851
1808,1829,1827
1838,1818,1786
1879,1850,1808
1882,1882,1879
1865,1885,1874
1879,1861,1810
1875,1851,1799
1860,1869,1856
1840,1872,1867
1876,1855,1811
1873,1872,1825
1981,1891,1888
1859,1882,1878
1879,1847,1813
1870,1872,1818
1871,1885,1876
1848,1872,1872
1866,1875,1820
1925,1873,1825
1850,1871,1858
1818,1853,1856
1859,1841,1799
1874,1846,1808
1869,1886,1876
1849,1871,1863
1877,1846,1815
1887,1883,1837
1850,1872,1856
1825,1850,1847
1855,1840,1805
1927,1856,1819
1893,1872,1872
1905,1866,1869
1930,1848,1807
1850,1856,1821
1794,1904,1898
1840,1894,1889
1855,1838,1799
1901,1834,1791
1895,1877,1867
1766,1866,1871
1853,1845,1807
1846,1846,1812
1851,1873,1879
1837,1871,1879
1827,1844,1814
1855,1855,1815
1830,1876,1872
1875,1872,1871
1859,1855,1815
1901,1869,1831
1871,1879,1872
1834,1846,1853
1856,1840,1791
1858,1856,1808
1857,1873,1868
1831,1903,1896
1873,1859,1821
1863,1831,1793
1840,1853,1855
1862,1849,1872
1865,1845,1818
1887,1859,1820
1856,1874,1859
1851,1870,1863
1829,1847,1801
1867,1853,1808
1853,1863,1862
1830,1858,1872
1876,1845,1825
1887,1860,1823
1867,1885,1872
1827,1872,1874
1842,1852,1813
1920,1867,1823
1870,1886,1872
1840,1866,1861
1821,1824,1792
1835,1835,1799
1869,1875,1873
1840,1879,1869
1804,1849,1809
1890,1872,1834
1867,1886,1885
1858,1875,1872
1864,1853,1808
1872,1858,1811
1872,1898,1879
1843,1874,1860
1859,1842,1808
1901,1862,1824
1904,1914,1910
1861,1878,1897
1841,1834,1796
1838,1840,1782
1847,1874,1860
1850,1872,1883
1872,1856,1830
1887,1869,1835
1874,1897,1894
1847,1869,1871
1862,1849,1804
1878,1866,1818
1879,1898,1895
1882,1899,1909
1856,1845,1807
1857,1840,1798
1856,1872,1872
1859,1884,1881
1875,1858,1826
1897,1872,1830
1856,1872,1865
1850,1869,1872
1868,1851,1823
1871,1847,1807
1859,1872,1863
1861,1876,1872
1857,1840,1808
1874,1856,1806
1863,1883,1872
1854,1871,1871
1871,1844,1809
1894,1858,1823
1879,1888,1887
1870,1877,1887
1872,1855,1825
1883,1860,1828
1869,1886,1882
1865,1883,1877
1861,1839,1801
1875,1842,1819
1881,1889,1897
1849,1863,1872
1851,1831,1802
1872,1840,1808
1859,1872,1874
1845,1862,1871
1859,1831,1799
1879,1850,1815
1871,1878,1889
1857,1872,1886
1871,1847,1826
1893,1860,1834
1872,1877,1887
1854,1863,1883
1857,1832,1813
1881,1847,1824
1870,1873,1882
1850,1870,1887
1860,1845,1823
1905,1882,1853
1882,1897,1907
1830,1843,1865
1839,1815,1797
1886,1846,1825
1885,1881,1894
1869,1882,1903
1851,1857,1808
1871,1847,1808
1859,1869,1872
1861,1872,1887
1866,1849,1823
1893,1866,1834
1866,1872,1879
1842,1856,1872
1859,1849,1818
1887,1863,1833
1872,1885,1883
1856,1875,1882
1868,1853,1822
1898,1882,1840
1892,1914,1914
1835,1862,1872
1825,1809,1787
1858,1840,1806
1867,1889,1883
1857,1883,1893
1863,1850,1825
1872,1846,1826
1857,1872,1884
1836,1863,1872
1849,1840,1815
1883,1861,1830
1870,1898,1883
1850,1879,1873
1853,1842,1812
1879,1867,1830
1857,1883,1879
1842,1879,1869
1855,1865,1819
1882,1878,1827
1851,1873,1872
1825,1859,1857
1854,1847,1813
1873,1861,1831
1874,1882,1899
1840,1859,1869
1845,1837,1797
1872,1856,1807
1863,1886,1875
1861,1888,1895
1862,1868,1823
1875,1856,1813
1872,1896,1885
1859,1898,1888
1866,1858,1826
1866,1847,1809
1842,1871,1859
1827,1858,1858
1867,1856,1824
1875,1858,1822
1871,1899,1888
1847,1873,1891
1840,1837,1808
1862,1850,1807
1871,1877,1877
1863,1872,1878
1872,1855,1829
1886,1872,1837
1867,1880,1883
1872,1903,1891
1865,1853,1818
1863,1831,1808
1862,1870,1874
1853,1860,1876
1866,1831,1808
1867,1835,1808
1860,1880,1877
1848,1877,1887
1863,1845,1815
1889,1858,1838
1872,1913,1894
1861,1883,1873
1865,1840,1833
1891,1855,1843
1903,1910,1904
1863,1887,1897
1869,1840,1824
1899,1877,1835
1885,1916,1893
1841,1891,1886
1851,1851,1794
1865,1858,1811
1872,1879,1877
1850,1895,1872
1867,1867,1826
1883,1877,1814
1862,1879,1865
1853,1874,1877
1875,1857,1819
1891,1872,1823
1875,1886,1878
1861,1874,1883
1879,1850,1809
1888,1849,1820
1878,1892,1886
1871,1904,1892
1871,1819,1823
1884,1840,1814
1901,1934,1903
1885,1921,1903
1885,1855,1827
1868,1859,1806
1851,1834,1847
1845,1841,1856
1872,1872,1809
1892,1872,1819
1883,1904,1890
1872,1921,1890
1863,1872,1810
1887,1845,1822
1889,1886,1893
1855,1948,1875
1872,1872,1818
1886,1866,1821
1881,1906,1895
1866,1896,1896
1872,1866,1824
1879,1871,1814
1862,1873,1877
1846,1911,1872
1857,1867,1808
1885,1825,1814
1885,1909,1887
1865,1937,1887
1872,1824,1823
1887,1845,1821
1880,1873,1884
1861,1925,1886
1863,1866,1823
1895,1885,1824
1905,1918,1908
1877,1899,1898
1846,1829,1793
1857,1841,1791
1861,1879,1872
1855,1859,1884
1871,1860,1830
1908,1891,1841
1883,1898,1886
1845,1840,1872
1856,1841,1808
1879,1856,1807
1869,1903,1871
1869,1920,1890
1869,1904,1830
1894,1857,1825
1889,1933,1899
1872,1931,1897
1860,1853,1807
1881,1870,1808
1885,1902,1886
1879,1914,1895
1872,1830,1810
1893,1891,1818
1878,1888,1873
1872,1905,1888
1874,1814,1818
1883,1829,1811
1878,1849,1882
1860,1882,1874
1873,1823,1810
1901,1905,1823
1886,1904,1887
1859,1904,1882
1874,1872,1826
1903,1901,1834
1872,1875,1875
1869,1955,1893
1897,1875,1849
1926,1923,1882
1853,1866,1880
1811,1838,1856
1870,1837,1827
1909,1863,1843
1871,1890,1894
1845,1872,1903
1862,1835,1831
1874,1852,1842
1889,1882,1904
1868,1883,1901
1877,1856,1826
1887,1901,1835
1869,1899,1887
1866,1904,1897
1850,1909,1808
1872,1851,1807
1872,1893,1879
1856,1885,1885
1887,1946,1838
1872,1869,1808
1840,1855,1841
1840,1883,1863
1856,1865,1806
1871,1856,1799
1849,1878,1853
1853,1887,1883
1856,1855,1803
1862,1844,1802
1855,1882,1875
1856,1968,1894
1867,1843,1813
1875,1917,1807
1865,1877,1878
1840,1854,1872
1856,1842,1815
1874,1845,1822
1879,1857,1882
1861,1853,1885
1872,1827,1821
1908,1893,1845
1907,1918,1914
1829,1863,1856
1835,1872,1787
1869,1840,1808
1874,1868,1882
1851,1882,1879
1862,1845,1808
1875,1869,1809
1872,1957,1879
1861,1904,1885
1859,1876,1810
1879,1861,1808
1862,1909,1867
1844,1865,1872
1861,1851,1815
1887,1861,1815
1877,1916,1889
1855,1872,1891
1870,1888,1831
1908,1899,1846
1872,1889,1873
1838,1872,1865
1853,1855,1808
1886,1872,1814
1886,1919,1887
1861,1853,1890
1847,1855,1799
1872,1840,1802
1868,1857,1869
1855,1888,1886
1855,1872,1815
1874,1835,1815
1873,1905,1885
1856,1869,1885
1861,1873,1810
1874,1836,1808
1879,1921,1894
1885,1908,1910
1840,1875,1808
1852,1837,1795
1859,1885,1877
1855,1906,1889
1863,1833,1819
1883,1850,1823
1872,1888,1882
1881,1909,1904
1869,1862,1818
1869,1860,1808
1869,1923,1885
1859,1889,1891
1873,1856,1831
1890,1872,1826
1871,1897,1876
1854,1890,1890
1866,1863,1828
1887,1871,1825
1883,1906,1898
1875,1909,1906
1856,1872,1824
1873,1871,1819
1861,1892,1859
1851,1874,1866
1871,1849,1805
1871,1859,1822
1882,1894,1886
1840,1873,1879
1889,1892,1841
1884,1859,1837
1855,1872,1863
1831,1868,1883
1869,1859,1808
1877,1845,1822
1867,1863,1885
1856,1875,1890
1866,1857,1835
1885,1866,1829
1872,1898,1891
1869,1905,1904
1861,1857,1826
1855,1839,1795
1856,1866,1871
1840,1867,1886
1860,1855,1827
1891,1866,1837
1872,1885,1885
1843,1866,1883
1847,1840,1815
1872,1861,1824
1859,1872,1872
1847,1867,1885
1872,1861,1840
1874,1857,1828
1840,1862,1860
1841,1866,1875
1861,1846,1827
1901,1874,1843
1882,1891,1893
1857,1892,1889
1831,1821,1791
1847,1825,1795
1859,1871,1867
1855,1869,1879
