1856,1877,1870
1884,1869,1821
1893,1872,1823
1799,1847,1841
1874,1858,1851
1875,1847,1802
1903,1869,1826
1894,1907,1888
1870,1880,1862
1795,1843,1797
1911,1874,1839
1862,1901,1887
1862,1865,1840
1810,1831,1791
1885,1859,1823
1837,1904,1893
1854,1872,1862
1847,1843,1795
1894,1887,1835
1854,1876,1861
1839,1866,1845
1873,1853,1813
1880,1879,1842
1861,1889,1872
1812,1860,1853
1872,1854,1798
1892,1867,1815
1859,1879,1869
1863,1879,1862
1859,1861,1801
1891,1871,1825
1862,1893,1874
1895,1885,1861
1876,1867,1821
1883,1887,1827
1863,1904,1875
1845,1869,1853
1856,1842,1806
1881,1877,1840
1885,1898,1900
1872,1887,1872
1849,1856,1805
1884,1877,1835
1863,1899,1878
1846,1873,1869
1879,1871,1831
1867,1863,1830
1810,1885,1873
1923,1898,1889
1820,1866,1823
1808,1840,1794
1799,1862,1860
1878,1867,1861
1823,1861,1828
1941,1877,1840
1885,1904,1887
1803,1872,1866
1822,1857,1809
1937,1881,1853
1853,1875,1879
1800,1867,1874
1884,1872,1833
1904,1891,1856
1910,1899,1888
1893,1920,1904
1840,1873,1834
1840,1831,1797
1918,1870,1862
1866,1904,1887
1894,1853,1831
1888,1861,1840
1851,1883,1875
1863,1898,1885
1872,1871,1823
1890,1888,1837
1879,1910,1898
1872,1882,1883
1903,1875,1847
1929,1904,1863
1873,1890,1885
1876,1860,1859
1907,1855,1817
1911,1893,1855
1878,1909,1887
1790,1855,1846
1870,1840,1802
1777,1872,1831
1934,1920,1917
1859,1889,1874
1877,1854,1808
1870,1872,1829
1867,1904,1888
1870,1894,1882
1883,1881,1819
1923,1920,1874
1843,1862,1857
1809,1824,1826
1862,1841,1806
1909,1889,1855
1886,1893,1886
1852,1869,1861
1872,1866,1819
1914,1872,1838
1871,1906,1903
1915,1888,1879
1869,1856,1811
1900,1909,1856
1851,1890,1885
1872,1854,1847
1839,1849,1793
1855,1862,1824
1878,1900,1890
1933,1904,1886
1841,1863,1815
1872,1855,1808
1886,1894,1875
1862,1889,1870
1885,1882,1831
1843,1886,1831
1847,1874,1858
1857,1883,1866
1873,1869,1811
1886,1891,1832
1872,1898,1873
1826,1865,1853
1871,1865,1822
1877,1878,1839
1853,1904,1883
1862,1904,1879
1892,1886,1833
1881,1890,1839
1872,1922,1892
1856,1893,1872
1846,1856,1792
1790,1861,1811
1856,1889,1873
1774,1886,1883
1831,1873,1835
1859,1883,1823
1849,1904,1884
1878,1891,1882
1851,1863,1834
1861,1888,1839
1829,1903,1877
1857,1910,1881
1851,1870,1817
1871,1881,1835
1871,1913,1885
1830,1904,1876
1917,1829,1782
1857,1847,1807
1902,1905,1893
1863,1909,1888
1903,1873,1829
1872,1873,1819
1856,1886,1870
1856,1885,1863
1871,1865,1809
1885,1891,1840
1886,1936,1906
1871,1893,1885
1858,1836,1799
1894,1895,1840
1840,1881,1861
1829,1860,1835
1874,1870,1818
1891,1871,1834
1873,1914,1888
1867,1909,1872
1868,1869,1808
1872,1872,1823
1872,1903,1882
1869,1895,1881
1870,1871,1808
1902,1911,1846
1878,1916,1897
1823,1845,1837
1847,1827,1792
1904,1887,1851
1874,1904,1879
1853,1885,1851
1843,1857,1783
1872,1869,1815
1883,1898,1887
1879,1903,1883
1899,1906,1843
1899,1894,1857
1839,1862,1856
1819,1846,1840
1856,1849,1803
1897,1879,1854
1862,1897,1893
1858,1891,1877
1879,1872,1827
1878,1872,1830
1862,1886,1873
1859,1878,1872
1867,1862,1819
1874,1870,1829
1883,1915,1909
1918,1953,1926
1856,1835,1791
1842,1836,1780
1846,1867,1852
1857,1868,1867
1867,1852,1811
1891,1877,1840
1872,1902,1890
1872,1883,1874
1898,1881,1835
1904,1898,1849
1861,1896,1872
1871,1891,1875
1876,1856,1813
1895,1877,1842
1868,1901,1882
1840,1884,1859
1847,1856,1789
1875,1872,1821
1872,1891,1879
1851,1869,1859
1869,1853,1808
1895,1889,1836
1905,1936,1907
1899,1934,1903
1840,1840,1786
1857,1855,1815
1887,1920,1912
1881,1902,1895
1890,1882,1839
1840,1842,1793
1834,1872,1847
1856,1871,1866
1877,1863,1819
1874,1874,1815
1876,1904,1885
1878,1904,1888
1874,1873,1819
1881,1889,1837
1885,1918,1899
1879,1902,1890
1891,1877,1831
1845,1842,1799
1845,1875,1862
1872,1878,1875
1860,1840,1806
1863,1855,1811
1872,1898,1882
1874,1882,1873
1857,1849,1805
1872,1878,1826
1877,1920,1898
1872,1909,1877
1914,1906,1855
1872,1870,1823
1816,1837,1837
1833,1842,1841
1894,1872,1834
1898,1889,1847
1854,1882,1872
1856,1877,1869
1889,1871,1829
1875,1877,1825
1858,1888,1878
1873,1895,1891
1867,1855,1814
1862,1850,1812
1856,1879,1872
1856,1884,1872
1893,1887,1842
1897,1918,1856
1843,1889,1870
1860,1887,1874
1889,1875,1838
1872,1862,1823
1856,1885,1877
1861,1880,1878
1873,1859,1825
1888,1881,1840
1886,1933,1903
1867,1889,1883
1859,1843,1811
1877,1859,1829
1888,1919,1907
1876,1910,1890
1843,1820,1789
1871,1849,1821
1872,1904,1891
1867,1902,1887
1878,1866,1825
1907,1898,1861
1872,1888,1886
1851,1861,1860
1884,1872,1830
1919,1890,1871
1893,1906,1911
1833,1852,1857
1854,1840,1813
1899,1875,1858
1901,1911,1917
1872,1856,1887
1879,1875,1835
1867,1900,1836
1871,1890,1897
1872,1874,1889
1889,1846,1836
1871,1917,1829
1891,1954,1908
1849,1861,1859
1857,1837,1808
1893,1829,1854
1878,1950,1895
1856,1913,1871
1850,1843,1799
1875,1857,1836
1863,1851,1886
1860,1827,1872
1887,1866,1840
1939,1925,1898
1863,1873,1881
1829,1859,1838
1872,1837,1807
1889,1872,1838
1857,1889,1878
1877,1904,1893
1898,1888,1843
1872,1867,1824
1872,1919,1891
1872,1906,1878
1869,1855,1810
1860,1842,1819
1849,1885,1874
1891,1893,1906
1889,1857,1831
1858,1845,1815
1867,1878,1885
1861,1873,1873
1877,1842,1825
1908,1898,1856
1898,1925,1909
1853,1845,1867
1847,1814,1791
1867,1845,1820
1855,1872,1871
1891,1905,1906
1889,1858,1833
1853,1839,1804
1854,1887,1869
1872,1886,1879
1906,1869,1840
1932,1907,1874
1871,1920,1886
1850,1881,1868
1850,1897,1799
1885,1817,1828
1872,1904,1878
1883,1847,1886
1877,1900,1818
1873,1918,1828
1856,1886,1869
1849,1881,1863
1870,1887,1817
1903,1877,1846
1892,1983,1906
1883,1873,1889
1840,1813,1779
1849,1831,1795
1862,1859,1871
1863,1936,1873
1875,1894,1821
1904,1891,1857
1906,1936,1919
1867,1853,1879
1853,1840,1794
1881,1867,1831
1874,1894,1891
1888,1904,1898
1909,1886,1845
1861,1845,1803
1840,1853,1854
1850,1849,1856
1883,1854,1820
1900,1879,1850
1884,1909,1902
1878,1881,1884
1872,1872,1808
1879,1858,1827
1898,1923,1903
1882,1911,1871
1891,1879,1824
1874,1840,1814
1873,1918,1887
1877,1876,1878
1878,1839,1808
1891,1851,1834
1885,1904,1894
1861,1872,1862
1899,1867,1824
1925,1897,1858
1871,1872,1872
1858,1854,1854
1879,1855,1828
1891,1866,1850
1890,1915,1904
1889,1901,1893
1872,1835,1809
1895,1885,1840
1860,1929,1872
1870,1840,1875
1904,1823,1841
1875,1861,1827
1861,1871,1877
1887,1955,1890
1879,1919,1823
1881,1843,1829
1856,1881,1871
1857,1868,1856
1877,1853,1806
1911,1860,1850
1893,1877,1900
1857,1937,1869
1885,1883,1831
1893,1875,1835
1859,1874,1872
1872,1890,1868
1859,1837,1795
1882,1907,1836
1886,1918,1891
1857,1837,1855
1859,1827,1783
1903,1883,1840
1893,1882,1894
1854,1859,1856
1867,1883,1809
1899,1871,1842
1888,1895,1902
1887,1901,1894
1876,1850,1818
1868,1841,1817
1890,1904,1904
1902,1903,1902
1883,1839,1823
1866,1890,1815
1839,1872,1846
1840,1856,1846
1886,1936,1824
1920,1872,1859
1879,1891,1889
1845,1843,1847
1866,1834,1801
1903,1878,1843
1877,1820,1895
1911,1979,1917
1883,1795,1828
1842,1831,1796
1861,1879,1883
1844,1905,1845
1859,1841,1804
1875,1851,1821
1862,1877,1876
1869,1870,1864
1885,1853,1812
1900,1884,1843
1887,1898,1903
1855,1869,1857
1875,1849,1805
1885,1871,1827
1871,1891,1877
1886,1904,1891
1892,1876,1827
1872,1873,1806
1837,1855,1846
1840,1842,1843
1872,1838,1811
1891,1872,1831
1886,1897,1886
1891,1904,1879
1883,1862,1814
1879,1858,1815
1869,1882,1871
1885,1887,1890
1885,1841,1808
1875,1855,1811
1891,1909,1895
1842,1851,1845
1845,1829,1773
1882,1862,1819
1870,1894,1879
1843,1851,1856
1863,1839,1802
1886,1863,1825
1867,1882,1874
1879,1894,1883
1893,1869,1834
1863,1839,1813
1855,1861,1863
1862,1861,1857
1890,1856,1828
1921,1902,1872
1840,1859,1861
1813,1841,1824
1855,1840,1789
1885,1879,1838
1881,1897,1888
1846,1857,1847
1847,1826,1783
1897,1885,1842
1863,1872,1878
1854,1856,1854
1872,1847,1808
1892,1873,1840
1872,1886,1877
1854,1867,1855
1875,1850,1808
1897,1875,1840
1904,1908,1904
1858,1856,1853
1855,1821,1785
1890,1863,1835
1865,1884,1872
1849,1865,1847
1857,1843,1794
1872,1869,1810
1890,1913,1898
1875,1880,1872
1865,1834,1791
1891,1877,1834
1879,1904,1884
1840,1845,1829
1842,1823,1773
1873,1865,1822
1894,1906,1891
1882,1887,1870
1873,1840,1802
1890,1872,1829
1902,1920,1893
1888,1911,1874
1859,1843,1789
1871,1858,1813
1874,1903,1889
1890,1915,1890
1872,1856,1803
1886,1869,1817
1883,1907,1883
1865,1874,1851
1904,1867,1839
1890,1872,1835
1856,1888,1861
1856,1875,1851
1884,1847,1799
1908,1877,1834
1884,1899,1882
1878,1885,1867
1895,1863,1815
1872,1829,1808
1839,1856,1850
1843,1855,1845
1872,1849,1798
1899,1885,1837
1888,1898,1882
1895,1894,1895
1897,1859,1818
1863,1851,1807
1850,1874,1853
1878,1896,1875
1879,1838,1809
1872,1843,1823
1874,1888,1889
1873,1890,1872
1891,1867,1821
1888,1871,1835
1871,1870,1875
1847,1853,1845
1859,1827,1792
1894,1871,1840
1882,1901,1904
1861,1854,1865
1872,1845,1818
1887,1881,1840
1879,1899,1899
1882,1895,1887
1893,1873,1829
1879,1870,1823
1850,1872,1855
1855,1861,1842
1885,1855,1808
1895,1870,1831
1853,1859,1857
1869,1856,1863
1880,1846,1809
1882,1861,1825
1877,1899,1885
1870,1883,1876
1878,1856,1813
1883,1872,1827
1875,1891,1878
1878,1881,1867
1900,1877,1828
1923,1902,1856
1875,1885,1876
1859,1870,1851
1874,1856,1801
1922,1917,1851
1852,1862,1826
1839,1848,1834
1858,1829,1790
1889,1867,1830
1875,1897,1882
1858,1872,1882
1870,1852,1787
1890,1883,1822
1888,1909,1901
1899,1907,1920
1878,1868,1802
1859,1861,1812
1840,1867,1872
1846,1858,1827
1895,1881,1856
1887,1869,1839
1872,1894,1879
1870,1887,1872
1885,1860,1831
1887,1872,1832
1872,1890,1894
1889,1895,1872
1873,1861,1803
1881,1862,1809
1871,1897,1873
1894,1921,1913
1891,1875,1834
1840,1828,1771
1840,1868,1837
1858,1873,1847
1883,1863,1811
1904,1897,1850
1891,1918,1895
1883,1888,1865
1887,1856,1799
1881,1869,1808
1857,1877,1846
1872,1875,1863
1921,1901,1843
1897,1872,1869
1842,1852,1822
1831,1839,1820
1856,1826,1771
1889,1870,1818
1887,1903,1886
1874,1883,1870
1894,1870,1822
1885,1872,1826
1869,1889,1876
1856,1875,1843
1899,1873,1776
1902,1872,1875
1915,1920,1925
1855,1860,1870
1842,1821,1756
1887,1882,1862
1872,1895,1855
1866,1866,1824
1861,1827,1840
1871,1853,1821
1875,1882,1903
1896,1888,1887
1886,1858,1837
1875,1851,1820
1877,1889,1844
1888,1886,1898
1891,1859,1805
1902,1882,1793
1872,1888,1927
1859,1865,1847
1886,1863,1842
1887,1872,1817
1870,1895,1886
1863,1891,1861
1901,1890,1839
1875,1864,1810
1867,1905,1840
1863,1883,1857
1889,1851,1814
1907,1901,1854
1871,1889,1873
1850,1869,1890
1870,1853,1766
1913,1894,1858
1883,1921,1921
1859,1873,1778
1855,1838,1785
1890,1887,1833
1883,1907,1926
1885,1895,1895
1871,1847,1800
1841,1838,1767
1841,1861,1844
1857,1862,1851
1879,1855,1731
1898,1875,1836
1891,1910,1891
1845,1866,1851
1869,1856,1799
1883,1872,1799
1868,1885,1872
1842,1852,1819
1863,1826,1802
1872,1847,1875
1872,1891,1867
1856,1872,1854
1870,1842,1800
1901,1877,1898
1863,1891,1872
1839,1859,1815
1872,1856,1798
1885,1879,1783
1857,1883,1876
1850,1866,1846
1878,1863,1806
1904,1898,1855
1855,1883,1924
1844,1858,1882
1869,1840,1781
1877,1860,1827
1873,1904,1875
1887,1903,1897
1877,1862,1877
1872,1873,1853
1872,1890,1882
1872,1879,1862
1882,1857,1811
1872,1862,1815
1875,1897,1871
1873,1893,1846
1872,1861,1806
1887,1872,1830
1861,1872,1862
1856,1861,1843
1882,1840,1808
1918,1904,1859
1891,1913,1909
1841,1861,1809
1847,1830,1792
1872,1856,1783
1895,1920,1882
1877,1893,1872
1859,1843,1781
1855,1839,1779
1855,1872,1866
1872,1872,1871
1872,1834,1801
1879,1857,1837
1886,1909,1897
1866,1883,1831
1865,1840,1838
1872,1853,1798
1858,1872,1879
1855,1863,1861
1872,1849,1794
1907,1897,1856
1860,1889,1877
1830,1856,1843
1857,1846,1797
1872,1867,1776
1866,1891,1890
1890,1923,1904
1879,1874,1826
1855,1852,1808
1839,1855,1852
1840,1846,1838
1865,1839,1804
1875,1872,1838
1871,1903,1895
1867,1887,1878
1874,1870,1813
1879,1872,1831
1889,1919,1899
1877,1899,1881
1870,1843,1806
1863,1864,1819
1862,1889,1880
1871,1879,1872
1893,1868,1835
1931,1915,1872
1873,1915,1892
1831,1866,1840
1849,1827,1793
1808,1858,1817
1872,1889,1881
1872,1912,1900
1885,1856,1808
1885,1857,1828
1834,1878,1871
1884,1872,1866
1827,1872,1822
1899,1890,1841
1823,1895,1878
1899,1876,1872
1892,1865,1826
1907,1873,1845
1854,1913,1897
1873,1902,1875
1867,1871,1827
1837,1872,1834
1827,1886,1887
1873,1875,1867
1857,1851,1811
1855,1890,1849
1872,1904,1901
1856,1870,1870
1887,1873,1835
1901,1881,1854
1826,1904,1889
1858,1883,1868
1893,1856,1810
1904,1903,1847
1887,1919,1899
1856,1873,1867
1841,1827,1779
1887,1849,1814
1889,1891,1885
1872,1888,1874
1889,1856,1802
1881,1866,1821
1864,1902,1881
1861,1885,1870
1872,1868,1809
1890,1902,1842
1872,1910,1893
1863,1887,1873
1904,1870,1831
1865,1872,1840
1860,1894,1881
1855,1872,1854
1878,1872,1809
1941,1931,1871
1820,1883,1881
1843,1820,1817
1904,1825,1789
1942,1888,1866
1860,1888,1897
1872,1844,1840
1843,1839,1791
1840,1870,1838
1895,1901,1879
1871,1889,1868
1849,1866,1815
1904,1867,1838
1874,1887,1877
1869,1871,1858
1846,1853,1815
1874,1872,1840
1875,1911,1900
1853,1871,1858
1857,1840,1799
1886,1876,1843
1884,1904,1900
1830,1845,1852
1859,1829,1787
1875,1862,1829
1859,1881,1883
1872,1886,1883
1873,1847,1822
1877,1854,1835
1866,1881,1879
1859,1870,1872
1875,1857,1825
1891,1878,1847
1855,1897,1891
1891,1905,1902
1859,1827,1799
1817,1842,1818
1808,1875,1879
1870,1886,1879
1877,1847,1801
1893,1875,1840
1897,1918,1904
1862,1855,1851
1924,1847,1807
1865,1872,1829
1841,1883,1869
1853,1867,1849
1858,1854,1806
1902,1886,1845
1877,1903,1887
1845,1870,1857
1853,1843,1796
1879,1867,1825
1873,1909,1889
1879,1904,1889
1901,1889,1840
1869,1872,1820
1840,1898,1863
1791,1860,1842
1846,1845,1808
1872,1885,1845
1872,1908,1903
1862,1875,1859
1920,1863,1826
1878,1886,1857
1883,1878,1875
1846,1882,1866
1824,1852,1808
1856,1843,1831
1870,1902,1891
1863,1890,1865
1889,1875,1824
1867,1883,1842
1865,1904,1887
1868,1887,1868
1856,1845,1795
1951,1882,1840
1829,1910,1888
1858,1872,1863
1901,1858,1824
1915,1909,1872
1903,1899,1901
1859,1883,1879
1866,1881,1847
1911,1909,1872
1839,1867,1867
1826,1845,1845
1871,1851,1815
1891,1879,1858
1895,1918,1915
1881,1889,1885
1941,1872,1836
1895,1887,1859
1872,1918,1909
1846,1869,1859
1875,1867,1821
1890,1875,1845
1942,1897,1895
1828,1878,1870
1860,1867,1814
1869,1894,1843
1889,1920,1903
1876,1889,1883
1943,1873,1830
1889,1872,1828
1852,1883,1873
1840,1863,1856
1850,1847,1811
1899,1885,1851
1906,1942,1929
1859,1884,1871
1851,1840,1797
1872,1867,1826
1885,1907,1897
1908,1917,1903
1857,1854,1799
1871,1878,1823
1873,1904,1887
1893,1906,1893
1893,1862,1823
1889,1889,1840
1888,1920,1898
1887,1904,1883
1865,1850,1802
1887,1885,1838
1872,1897,1886
1854,1872,1863
1877,1869,1817
1919,1911,1865
1891,1913,1893
1861,1877,1851
1851,1834,1787
1877,1862,1826
1863,1878,1874
1862,1877,1869
1890,1877,1825
1924,1913,1872
1875,1885,1883
1810,1824,1811
1843,1824,1774
1883,1864,1826
1879,1902,1886
1889,1902,1881
1899,1872,1833
1891,1869,1831
1879,1904,1879
1882,1904,1864
1888,1870,1811
1904,1880,1844
1866,1891,1877
1873,1893,1869
1868,1840,1803
1887,1868,1827
1861,1872,1871
1870,1875,1865
1876,1858,1811
1878,1872,1834
1869,1903,1881
1877,1890,1870
1904,1876,1826
1890,1889,1835
1857,1887,1873
1885,1895,1872
1898,1872,1822
1879,1871,1830
1862,1885,1875
1865,1873,1863
1901,1876,1837
1910,1904,1854
1915,1936,1918
1819,1837,1823
1840,1825,1776
1872,1869,1824
1861,1898,1883
1868,1887,1872
1883,1872,1818
1898,1892,1846
1857,1904,1881
1860,1874,1858
1876,1851,1816
1889,1872,1845
1869,1904,1891
1859,1877,1871
1866,1847,1809
1882,1872,1840
1879,1917,1903
1847,1875,1861
1861,1849,1808
1858,1857,1836
1875,1908,1911
1895,1919,1906
1868,1857,1814
1838,1840,1805
1846,1872,1873
1858,1881,1871
1877,1862,1819
1882,1883,1846
1873,1904,1902
1872,1887,1878
1877,1856,1824
1898,1887,1851
1854,1887,1875
1874,1907,1879
1888,1866,1823
1879,1864,1823
1849,1869,1863
1841,1861,1843
1871,1865,1815
1904,1903,1861
1875,1905,1903
1865,1872,1872
1863,1845,1805
1877,1866,1831
1881,1904,1901
1872,1887,1872
1873,1859,1811
1904,1904,1855
1924,1958,1938
1847,1858,1852
1840,1825,1786
1870,1869,1826
1878,1911,1896
1882,1894,1873
1872,1855,1802
1878,1864,1834
1868,1891,1884
1866,1886,1869
1881,1871,1817
1904,1904,1857
1863,1893,1885
1867,1878,1873
1882,1857,1822
1889,1874,1838
1878,1899,1887
1875,1886,1866
1882,1869,1821
1921,1905,1865
1874,1890,1883
1834,1842,1829
1855,1831,1785
1892,1873,1833
1875,1906,1878
1873,1887,1861
1872,1842,1801
1885,1867,1827
1870,1899,1875
1875,1877,1872
1882,1865,1815
1898,1894,1842
1872,1897,1876
1868,1875,1857
1906,1879,1831
1907,1887,1851
1858,1878,1870
1861,1835,1856
1910,1858,1840
1935,1914,1876
1867,1870,1877
1840,1887,1835
1857,1843,1791
1896,1919,1837
1895,1911,1904
1872,1877,1872
1887,1871,1829
1889,1881,1846
1873,1910,1897
1859,1906,1872
1872,1830,1818
1889,1907,1841
1872,1892,1892
1870,1856,1877
1895,1861,1845
1903,1853,1857
1879,1951,1901
1883,1887,1877
1879,1861,1813
1872,1863,1822
1842,1875,1861
1851,1904,1854
1856,1869,1795
1877,1877,1830
1867,1922,1894
1875,1904,1885
1873,1865,1815
1874,1898,1839
1871,1872,1889
1856,1867,1856
1872,1841,1808
1904,1888,1858
1879,1894,1898
1861,1866,1863
1858,1846,1801
1877,1868,1833
1872,1879,1890
1893,1901,1903
1847,1794,1794
1860,1872,1826
1879,1904,1904
1867,1901,1877
1872,1863,1821
1878,1891,1841
1850,1891,1872
1856,1861,1862
1885,1866,1826
1888,1925,1843
1874,1902,1898
1838,1843,1842
1854,1808,1792
1873,1889,1835
1870,1866,1895
1872,1878,1877
1872,1887,1808
1904,1873,1854
1872,1910,1888
1856,1885,1854
1870,1829,1810
1902,1839,1857
1861,1910,1887
1849,1855,1857
1870,1833,1806
1887,1871,1841
1872,1920,1894
1858,1863,1863
1877,1866,1831
1898,1885,1856
1855,1849,1877
1879,1890,1894
1869,1854,1818
1845,1839,1807
1848,1861,1869
1871,1872,1862
1872,1859,1812
1887,1872,1840
1879,1901,1889
1840,1851,1840
1858,1840,1804
1887,1869,1840
1866,1894,1883
1866,1881,1866
1883,1859,1815
1902,1897,1850
1893,1997,1911
1887,1901,1887
1872,1867,1809
1875,1863,1834
1869,1905,1891
1865,1880,1862
1857,1789,1803
1867,1870,1831
1858,1886,1901
1856,1889,1882
1866,1856,1808
1878,1873,1835
1853,1885,1879
1854,1872,1865
1877,1862,1818
1887,1883,1845
1870,1892,1889
1857,1842,1855
1872,1833,1811
1890,1850,1848
1881,1915,1902
1886,1875,1887
1859,1806,1793
1863,1887,1813
1875,1809,1891
1888,1881,1881
1875,1833,1803
1873,1839,1827
1835,1855,1859
1842,1893,1846
1874,1827,1810
1904,1920,1853
1866,1889,1879
1849,1847,1853
1869,1856,1797
1902,1820,1843
1904,1923,1914
1876,1958,1882
1858,1838,1792
1865,1842,1817
1865,1878,1874
1872,1817,1870
1903,1858,1834
1887,1843,1835
1856,1873,1869
1858,1936,1858
1872,1847,1808
1898,1854,1843
1879,1890,1886
1875,1908,1872
1863,1839,1795
1869,1893,1821
1871,1895,1883
1882,1889,1883
1893,1877,1823
1903,1904,1856
1847,1867,1869
1839,1805,1847
1858,1840,1809
1904,1953,1866
1899,1942,1921
1856,1871,1863
1856,1841,1793
1879,1868,1840
1873,1911,1895
1869,1838,1872
1870,1865,1808
1873,1886,1839
1842,1904,1872
1857,1872,1867
1880,1846,1828
1914,1906,1872
1873,1901,1899
1841,1840,1843
1858,1823,1798
1903,1872,1846
1879,1887,1894
1866,1860,1862
1872,1837,1809
1872,1842,1821
1865,1874,1874
1866,1866,1861
1874,1849,1806
1895,1872,1837
1872,1893,1886
1855,1875,1859
1867,1847,1803
1872,1867,1830
1849,1883,1869
1872,1899,1879
1873,1847,1821
1865,1844,1818
1869,1899,1887
1867,1888,1869
1857,1841,1788
1894,1872,1838
1858,1878,1872
1841,1853,1849
1849,1826,1795
1871,1863,1831
1865,1900,1895
1859,1883,1872
1861,1842,1803
1877,1873,1838
1876,1904,1898
1872,1893,1880
1872,1859,1818
1885,1886,1841
1835,1869,1856
1840,1861,1846
1878,1859,1821
1900,1883,1855
1869,1901,1889
1855,1882,1865
1866,1855,1813
1889,1888,1843
1853,1893,1872
1837,1843,1840
1872,1845,1801
1891,1875,1843
1887,1930,1904
1882,1905,1889
1872,1854,1811
1869,1856,1822
1849,1872,1858
1856,1872,1857
1881,1862,1815
1884,1872,1827
1868,1895,1885
1868,1892,1871
1890,1871,1811
1888,1878,1831
1891,1914,1898
1857,1879,1857
1843,1831,1781
1871,1871,1824
1863,1886,1872
1863,1890,1856
1882,1868,1821
1873,1861,1831
1861,1879,1871
1872,1893,1872
1873,1860,1808
1867,1851,1811
1872,1887,1872
1872,1877,1865
1887,1867,1819
1916,1898,1856
1890,1904,1895
1852,1859,1849
1861,1838,1794
1888,1878,1841
1895,1904,1901
1872,1872,1861
1885,1865,1817
1870,1856,1822
1862,1873,1870
1883,1871,1872
1893,1857,1821
1876,1853,1821
1849,1878,1858
1863,1875,1859
1874,1840,1801
1894,1874,1840
1882,1891,1887
1841,1847,1841
1840,1825,1781
1901,1898,1853
1862,1900,1883
1832,1846,1833
1856,1836,1792
1883,1874,1838
1855,1877,1873
1855,1859,1867
1859,1837,1797
1855,1861,1818
1856,1885,1874
1866,1873,1872
1899,1873,1837
1889,1879,1843
1865,1893,1888
1872,1878,1879
1869,1839,1808
1904,1889,1859
1887,1919,1904
1825,1847,1832
1853,1838,1794
1886,1872,1840
1878,1894,1899
1856,1870,1860
1863,1838,1807
1874,1855,1827
1866,1889,1889
1865,1881,1872
1870,1854,1808
1875,1869,1834
1889,1906,1909
1876,1884,1874
1868,1850,1807
1874,1872,1835
1839,1866,1859
1843,1861,1853
1857,1835,1795
1891,1883,1855
1871,1902,1898
1853,1872,1866
1849,1841,1795
1866,1862,1823
1869,1891,1888
1854,1867,1857
1858,1840,1803
1872,1867,1831
1872,1896,1895
1845,1877,1856
1872,1870,1815
1905,1901,1863
1843,1870,1866
1829,1840,1838
1877,1857,1799
1881,1867,1831
1858,1885,1867
1852,1858,1839
1840,1826,1825
1860,1865,1859
1872,1897,1863
1892,1904,1922
1885,1857,1872
1872,1847,1840
1855,1872,1892
1863,1871,1874
1887,1870,1815
1929,1920,1863
1884,1923,1904
1840,1861,1818
1840,1819,1783
1872,1862,1870
1865,1897,1914
1857,1879,1870
1851,1839,1807
1886,1872,1893
1869,1904,1869
1872,1886,1877
1877,1845,1820
1879,1867,1840
1857,1889,1883
1861,1891,1872
1855,1841,1839
1858,1855,1822
1858,1879,1874
1871,1886,1887
1901,1878,1840
1891,1886,1839
1849,1879,1869
1867,1876,1874
1889,1879,1834
1880,1873,1843
1838,1861,1859
1856,1862,1821
1887,1857,1822
1907,1907,1870
1872,1905,1899
1857,1880,1868
1869,1871,1792
1905,1918,1871
1858,1893,1863
1847,1874,1869
1862,1854,1809
1872,1874,1830
1875,1913,1889
1873,1897,1871
1872,1860,1815
1889,1882,1835
1872,1910,1879
1850,1872,1827
1858,1840,1786
1878,1884,1840
1870,1913,1890
1888,1917,1889
1861,1845,1823
1860,1854,1840
1867,1897,1923
1853,1880,1875
1882,1877,1809
1883,1882,1835
1854,1886,1889
1855,1881,1872
1884,1872,1826
1889,1877,1856
1853,1893,1885
1872,1893,1901
1875,1872,1830
1857,1869,1836
1842,1885,1885
1866,1892,1878
1900,1899,1849
1885,1895,1861
1853,1887,1887
1851,1877,1872
1882,1870,1825
1883,1882,1872
1861,1890,1913
1861,1872,1859
1882,1856,1717
1906,1890,1865
1905,1925,1938
1857,1872,1857
1851,1838,1777
1859,1858,1824
1863,1904,1799
1854,1901,1878
1891,1890,1837
1904,1908,1856
1841,1872,1872
1834,1852,1849
1866,1847,1808
1906,1903,1865
1893,1920,1907
1856,1869,1871
1849,1839,1803
1863,1859,1836
1866,1901,1959
1867,1886,1931
1879,1872,1824
1873,1871,1809
1869,1895,1872
1858,1873,1841
1885,1872,1882
1897,1903,1918
1851,1883,1938
1856,1867,1858
1883,1865,1855
1881,1871,1835
1872,1899,1912
1871,1879,1875
1858,1840,1785
1881,1881,1822
1885,1905,1883
1907,1926,1955
1866,1847,1845
1867,1872,1831
1872,1911,1898
1875,1889,1879
1884,1871,1819
1904,1903,1904
1858,1875,1856
1859,1870,1853
1876,1855,1802
1895,1890,1846
1883,1907,1898
1895,1898,1887
1878,1859,1783
1888,1872,1834
1874,1904,1886
1883,1893,1904
1879,1854,1814
1904,1890,1833
1910,1924,1879
1893,1913,1895
1879,1861,1781
1878,1856,1808
1865,1873,1869
1879,1872,1873
1913,1874,1814
1883,1861,1855
1859,1867,1869
1858,1858,1836
1892,1872,1831
1899,1891,1862
1872,1903,1935
1878,1888,1889
1899,1862,1843
1891,1870,1803
1887,1904,1891
1890,1900,1881
1904,1872,1829
1883,1869,1839
1873,1888,1887
1873,1872,1866
1893,1870,1821
1904,1885,1840
1876,1894,1885
1889,1904,1887
1882,1860,1814
1871,1868,1825
1872,1876,1877
1867,1863,1853
1891,1858,1822
1893,1874,1842
1891,1914,1895
1874,1879,1863
1872,1850,1807
1874,1865,1817
1876,1894,1874
1885,1886,1867
1886,1858,1809
1886,1871,1831
1871,1874,1869
1885,1893,1870
1917,1895,1840
1881,1856,1821
1850,1858,1858
1904,1866,1846
1900,1861,1809
1887,1891,1855
1920,1900,1878
1867,1881,1847
1905,1845,1799
1859,1867,1834
1856,1877,1866
1841,1865,1843
1900,1830,1787
1927,1856,1819
1874,1884,1871
1845,1872,1851
1867,1866,1821
1927,1895,1853
1823,1874,1857
1904,1894,1867
1830,1856,1790
1847,1841,1793
1862,1867,1865
1861,1868,1845
1881,1846,1802
1901,1885,1840
1869,1894,1870
1895,1880,1849
1878,1854,1798
