1905,1827,1753
1911,1887,1871
1840,1914,1946
1839,1851,1828
1907,1831,1757
1920,1894,1877
1853,1920,1945
1841,1851,1818
1909,1829,1762
1923,1892,1879
1851,1907,1947
1841,1846,1819
1913,1821,1739
1918,1893,1872
1849,1922,1947
1836,1847,1830
1904,1809,1744
1919,1893,1871
1841,1922,1950
1840,1857,1823
1911,1831,1755
1919,1893,1870
1850,1914,1938
1841,1851,1814
1911,1813,1745
1916,1879,1870
1840,1917,1947
1839,1857,1826
1904,1821,1748
1906,1891,1871
1841,1923,1956
1840,1856,1830
1920,1814,1757
1925,1893,1872
1846,1925,1947
1837,1855,1817
1904,1825,1744
1915,1882,1872
1839,1915,1938
1830,1845,1825
1909,1830,1756
1918,1890,1857
1847,1914,1931
1837,1854,1826
1904,1823,1757
1913,1882,1863
1846,1911,1930
1840,1845,1813
1913,1779,1754
1915,1906,1872
1854,1913,1936
1839,1859,1823
1910,1811,1751
1920,1920,1873
1840,1904,1948
1833,1879,1820
1904,1776,1731
1910,1906,1863
1850,1876,1951
1845,1840,1824
1910,1793,1742
1904,1863,1857
1842,1934,1936
1840,1872,1815
1905,1859,1744
1903,1845,1863
1830,1908,1938
1831,1846,1814
1905,1829,1745
1906,1895,1854
1834,1904,1936
1833,1843,1819
1904,1809,1744
1907,1856,1853
1839,1920,1931
1834,1806,1814
1904,1849,1738
1913,1899,1850
1831,1936,1927
1823,1830,1815
1891,1810,1744
1911,1851,1865
1846,1929,1941
1836,1856,1814
1903,1817,1733
1904,1875,1847
1834,1915,1935
1839,1847,1816
1909,1821,1744
1910,1889,1858
1825,1936,1927
1815,1844,1805
1905,1831,1744
1908,1888,1871
1837,1918,1947
1824,1846,1815
1904,1813,1745
1905,1888,1872
1839,1929,1946
1829,1872,1828
1901,1814,1750
1904,1899,1867
1840,1882,1963
1828,1867,1842
1904,1787,1755
1909,1927,1859
1842,1883,1947
1837,1839,1840
1909,1791,1758
1906,1894,1861
1837,1915,1951
1835,1863,1845
1903,1840,1762
1904,1839,1872
1837,1898,1946
1829,1891,1833
1906,1849,1759
1911,1904,1871
1841,1961,1953
1839,1870,1839
1914,1824,1758
1904,1890,1873
1839,1917,1951
1821,1847,1825
1898,1799,1745
1906,1884,1858
1845,1918,1943
1835,1855,1834
1906,1798,1750
1917,1904,1870
1839,1939,1958
1838,1829,1840
1902,1839,1743
1904,1902,1872
1842,1923,1962
1838,1837,1845
1904,1835,1756
1907,1937,1872
1839,1918,1952
1834,1862,1839
1901,1775,1756
1906,1892,1868
1837,1912,1948
1830,1862,1838
1901,1827,1750
1904,1883,1873
1831,1917,1954
1831,1846,1828
1901,1813,1744
1904,1888,1867
1830,1921,1947
1824,1850,1839
1901,1818,1754
1902,1839,1866
1826,1897,1940
1824,1857,1832
1905,1840,1770
1921,1899,1878
1841,1870,1941
1818,1825,1827
1902,1885,1753
1911,1877,1872
1836,1907,1961
1821,1826,1839
1891,1772,1749
1904,1881,1859
1840,1823,1952
1834,1859,1827
1903,1788,1751
1900,1807,1867
1823,1901,1939
1811,1853,1808
1890,1824,1751
1907,1907,1876
1833,1931,1967
1822,1856,1839
1891,1827,1753
1904,1891,1869
1837,1968,1959
1824,1815,1841
1891,1855,1751
1895,1904,1871
1826,1922,1952
1829,1850,1838
1889,1814,1744
1904,1878,1858
1835,1913,1947
1825,1845,1835
1898,1822,1751
1904,1875,1879
1828,1921,1956
1818,1851,1826
1885,1818,1745
1888,1872,1867
1818,1915,1958
1823,1877,1853
1903,1787,1763
1905,1869,1863
1840,1913,1951
1832,1809,1842
1904,1737,1768
1904,1873,1879
1840,1914,1963
1836,1827,1845
1901,1821,1763
1904,1905,1872
1839,1899,1943
1822,1870,1835
1903,1811,1767
1910,1889,1873
1835,1910,1950
1824,1847,1826
1903,1807,1763
1904,1879,1871
1829,1919,1950
1822,1854,1826
1899,1822,1747
1904,1886,1870
1839,1923,1948
1815,1847,1826
1888,1805,1744
1897,1881,1859
1835,1918,1946
1822,1853,1829
1898,1815,1743
1903,1872,1858
1835,1907,1966
1823,1847,1845
1895,1809,1753
1903,1875,1855
1817,1906,1936
1818,1854,1833
1895,1818,1746
1895,1873,1863
1822,1909,1939
1808,1853,1823
1875,1820,1733
1886,1875,1841
1822,1907,1937
1837,1840,1831
1904,1815,1751
1904,1881,1863
1820,1906,1936
1808,1839,1819
1887,1808,1744
1902,1868,1859
1831,1910,1947
1819,1851,1829
1887,1813,1745
1897,1862,1852
1831,1906,1945
1814,1846,1835
1890,1817,1742
1904,1883,1863
1827,1910,1946
1826,1845,1840
1904,1817,1750
1918,1872,1872
1840,1909,1946
1822,1840,1821
1883,1804,1733
1904,1872,1851
1841,1914,1946
1830,1847,1840
1905,1808,1756
1913,1863,1867
1837,1909,1946
1811,1844,1823
1890,1811,1749
1904,1879,1873
1835,1904,1953
1822,1842,1831
1891,1809,1750
1905,1872,1852
1837,1905,1937
1821,1845,1829
1890,1809,1742
1904,1873,1854
1826,1905,1950
1818,1851,1840
1885,1818,1743
1891,1874,1856
1827,1911,1939
1822,1846,1840
1887,1819,1751
1897,1873,1854
1822,1908,1939
1813,1847,1835
1885,1817,1750
1904,1878,1861
1834,1911,1943
1824,1849,1841
1893,1813,1765
1903,1872,1862
1830,1911,1951
1823,1855,1843
1894,1822,1755
1905,1878,1858
1834,1910,1937
1808,1849,1831
1883,1814,1754
1902,1871,1863
1831,1921,1949
1819,1858,1839
1892,1821,1748
1894,1880,1856
1826,1909,1951
1819,1845,1823
1890,1815,1749
1903,1882,1872
1825,1918,1946
1810,1854,1833
1887,1818,1744
1904,1891,1867
1824,1921,1953
1810,1851,1840
1879,1811,1744
1905,1882,1856
1851,1924,1951
1821,1858,1837
1888,1819,1745
1901,1879,1845
1828,1926,1927
1826,1855,1825
1893,1817,1731
1894,1879,1846
1830,1920,1939
1812,1854,1822
1872,1825,1754
1884,1899,1856
1843,1904,1939
1819,1853,1837
1881,1808,1747
1905,1867,1848
1837,1920,1941
1808,1863,1823
1901,1838,1748
1913,1861,1840
1847,1908,1920
1827,1858,1812
1872,1829,1744
1888,1869,1847
1825,1901,1933
1807,1846,1818
1888,1813,1730
1904,1883,1867
1835,1911,1947
1811,1849,1834
1894,1813,1747
1907,1875,1852
1833,1911,1941
1818,1857,1847
1893,1808,1753
1903,1870,1855
1818,1919,1948
1808,1856,1843
1885,1811,1758
1909,1879,1891
1838,1910,1973
1821,1850,1825
1889,1808,1693
1905,1872,1888
1842,1903,1951
1827,1840,1831
1891,1818,1742
1904,1888,1904
1828,1920,1941
1812,1840,1814
1882,1813,1693
1914,1887,1824
1840,1923,1954
1814,1846,1826
1883,1808,1743
1897,1872,1879
1831,1910,1943
1818,1851,1843
1882,1809,1745
1903,1871,1871
1833,1904,1952
1810,1842,1834
1877,1808,1727
1895,1870,1823
1832,1916,1955
1815,1857,1863
1887,1819,1753
1904,1883,1871
1825,1923,1986
1806,1857,1840
1883,1821,1776
1904,1881,1891
1840,1916,1955
1822,1856,1871
1889,1824,1739
1902,1883,1894
1823,1917,1915
1813,1846,1845
1899,1812,1757
1918,1888,1872
1846,1917,1986
1821,1851,1846
1885,1811,1749
1904,1877,1835
1829,1913,1941
1819,1854,1853
1892,1818,1758
1900,1877,1878
1829,1905,1931
1822,1840,1864
1893,1813,1776
1893,1874,1882
1825,1919,1938
1814,1856,1798
1889,1813,1774
1903,1875,1858
1828,1909,1977
1820,1867,1831
1895,1825,1789
1918,1873,1863
1839,1910,1990
1825,1855,1818
1901,1819,1746
1907,1875,1879
1836,1915,1947
1825,1862,1841
1904,1815,1756
1907,1873,1865
1840,1906,1950
1825,1838,1841
1905,1809,1731
1904,1870,1852
1845,1905,1933
1826,1849,1853
1904,1812,1776
1907,1866,1857
1832,1904,1936
1815,1855,1851
1888,1808,1761
1903,1887,1812
1834,1917,1978
1837,1849,1833
1877,1808,1728
1879,1875,1820
1831,1904,1954
1819,1849,1847
1903,1821,1744
1913,1877,1870
1836,1906,1945
1822,1843,1823
1895,1808,1729
1921,1885,1856
1837,1919,2001
1823,1858,1856
1898,1813,1747
1917,1866,1856
1841,1906,1926
1815,1858,1843
1888,1820,1746
1906,1877,1855
1828,1916,1943
1823,1858,1851
1902,1819,1787
1914,1872,1847
1837,1907,1996
1824,1850,1887
1898,1815,1766
1917,1872,1770
1840,1911,1948
1813,1857,1836
1883,1809,1745
1905,1878,1859
1840,1919,2000
1810,1856,1836
1891,1824,1803
1903,1877,1813
1829,1913,1930
1810,1844,1840
1881,1811,1665
1904,1885,1834
1835,1926,1983
1815,1858,1769
1887,1814,1743
1904,1866,1851
1840,1911,1946
1820,1868,1831
1897,1821,1744
1904,1877,1866
1838,1921,1922
1822,1859,1850
1889,1815,1761
1905,1872,1840
1840,1920,1936
1819,1866,1845
1881,1824,1753
1902,1886,1866
1840,1921,1958
1814,1853,1845
1885,1824,1750
1901,1887,1867
1823,1922,1997
1809,1854,1846
1891,1821,1775
1916,1876,1841
1837,1911,1951
1811,1850,1813
1876,1815,1749
1900,1875,1861
1829,1913,1935
1806,1857,1843
1877,1810,1728
1901,1872,1840
1838,1915,1983
1814,1857,1840
1885,1808,1760
1899,1870,1865
1825,1905,1947
1806,1856,1839
1882,1821,1750
1901,1874,1862
1836,1906,1942
1806,1849,1839
1871,1809,1746
1897,1871,1841
1823,1907,1942
1823,1856,1843
1890,1814,1751
1894,1876,1844
1819,1914,1936
1807,1850,1834
1891,1818,1745
1906,1889,1856
1823,1935,1943
1822,1850,1835
1889,1801,1734
1886,1879,1847
1811,1898,1956
1806,1863,1840
1895,1812,1736
1903,1872,1851
1825,1925,1934
1806,1858,1846
1895,1814,1753
1904,1859,1847
1808,1917,1938
1806,1861,1843
1885,1820,1751
1886,1877,1846
1833,1907,1941
1775,1845,1831
1905,1808,1742
1883,1872,1843
1862,1915,1945
1817,1853,1839
1936,1806,1747
1922,1873,1855
1838,1923,1949
1788,1861,1843
1892,1809,1746
1934,1865,1844
1801,1919,1951
1810,1857,1852
1897,1814,1740
1893,1872,1841
1823,1915,1949
1812,1859,1845
1885,1815,1746
1904,1882,1854
1857,1911,1945
1803,1846,1837
1890,1803,1742
1937,1870,1853
1842,1919,1947
1810,1859,1843
1882,1809,1739
1903,1867,1851
1817,1904,1942
1818,1852,1845
1883,1808,1744
1914,1872,1842
1840,1909,1943
1820,1853,1846
1890,1815,1746
1905,1875,1846
1811,1910,1935
1811,1855,1839
1885,1819,1742
1913,1873,1855
1847,1923,1953
1829,1867,1840
1898,1814,1733
1855,1878,1850
1834,1920,1966
1807,1866,1855
1896,1818,1744
1872,1870,1837
1805,1906,1926
1842,1856,1841
1872,1818,1761
1942,1876,1863
1867,1904,1953
1872,1855,1846
1907,1815,1745
1939,1873,1847
1826,1918,1968
1795,1856,1855
1891,1798,1749
1886,1867,1856
1841,1920,1955
1810,1856,1849
1915,1808,1746
1902,1873,1855
1865,1907,1953
1824,1855,1856
1856,1811,1754
1878,1860,1845
1811,1904,1936
1822,1857,1845
1875,1819,1757
1904,1875,1858
1827,1910,1948
1810,1850,1845
1889,1820,1758
1909,1878,1857
1836,1919,1961
1814,1855,1855
1885,1813,1747
1936,1874,1849
1834,1911,1958
1839,1854,1855
1887,1813,1758
1923,1872,1851
1846,1914,1955
1833,1857,1856
1937,1812,1760
1876,1874,1856
1830,1909,1950
1811,1866,1863
1890,1825,1751
1911,1879,1847
1833,1921,1954
1809,1863,1853
1886,1823,1757
1905,1874,1859
1839,1923,1957
1819,1869,1853
1882,1823,1755
1904,1877,1851
1812,1919,1951
1839,1869,1842
1903,1814,1746
1868,1867,1846
1850,1914,1941
1826,1861,1860
1915,1820,1755
1918,1872,1844
1825,1909,1942
1827,1863,1851
1904,1820,1753
1953,1877,1858
1779,1914,1958
1827,1857,1854
1862,1813,1746
1943,1872,1842
1859,1925,1965
1794,1869,1867
1860,1818,1760
1915,1872,1841
1859,1918,1936
1779,1861,1856
1903,1821,1758
1969,1872,1840
1845,1926,1947
1777,1881,1856
1855,1825,1757
1934,1874,1847
1851,1920,1943
1823,1871,1853
1887,1831,1748
1904,1878,1842
1827,1915,1938
1815,1856,1847
1872,1811,1743
1904,1872,1846
1855,1910,1947
1840,1855,1841
1886,1813,1734
1905,1872,1831
1829,1924,1938
1813,1872,1851
1869,1831,1756
1883,1881,1856
1819,1925,1947
1856,1870,1841
1881,1823,1744
1906,1881,1841
1842,1925,1943
1843,1863,1845
1925,1819,1747
1933,1882,1856
1829,1919,1957
1813,1866,1853
1893,1826,1747
1920,1887,1847
1847,1924,1952
1835,1869,1856
1909,1826,1755
1920,1879,1849
1853,1923,1951
1829,1862,1862
1898,1815,1750
1915,1874,1839
1850,1927,1961
1835,1866,1859
1902,1823,1757
1921,1877,1857
1855,1922,1958
1831,1872,1862
1904,1829,1755
1926,1875,1845
1854,1916,1936
1838,1861,1842
1908,1808,1748
1931,1872,1853
1859,1930,1956
1839,1872,1854
1899,1827,1759
1920,1887,1854
1856,1925,1951
1838,1868,1855
1905,1828,1754
1926,1885,1855
1853,1921,1958
1835,1859,1857
1898,1818,1747
1919,1887,1838
1859,1931,1953
1836,1872,1871
1903,1826,1754
1928,1875,1840
1856,1911,1950
1833,1857,1858
1904,1829,1759
1931,1882,1848
1857,1913,1942
1838,1863,1851
1898,1827,1737
1926,1879,1840
1869,1933,1955
1826,1871,1857
1901,1822,1745
1920,1883,1839
1856,1920,1947
1844,1866,1855
1904,1815,1749
1933,1863,1841
1862,1915,1949
1840,1866,1856
1907,1825,1744
1927,1872,1831
1859,1915,1936
1838,1869,1850
1903,1824,1747
1923,1881,1831
1853,1927,1946
1840,1872,1862
1905,1824,1746
1936,1873,1835
1854,1915,1943
1834,1856,1848
1914,1814,1744
1936,1872,1831
1871,1922,1946
1846,1868,1860
1910,1819,1754
1939,1872,1840
1867,1910,1936
1834,1855,1849
1904,1802,1746
1927,1872,1841
1867,1918,1955
1842,1859,1850
1901,1801,1742
1919,1856,1835
1853,1919,1947
1840,1872,1857
1909,1814,1744
1925,1872,1838
1869,1919,1937
1851,1867,1841
1909,1823,1734
1936,1876,1847
1866,1917,1949
1843,1858,1856
1905,1822,1742
1931,1882,1827
1865,1922,1937
1849,1866,1845
1915,1811,1743
1929,1873,1834
1862,1922,1946
1839,1872,1853
1904,1823,1746
1934,1872,1827
1856,1909,1940
1833,1871,1855
1901,1834,1745
1939,1883,1847
1866,1924,1948
1847,1861,1861
1912,1808,1754
1929,1861,1840
1855,1918,1935
1840,1866,1856
1911,1813,1753
1941,1863,1845
1872,1905,1937
1843,1858,1847
1907,1829,1753
1936,1884,1840
1862,1919,1942
1842,1863,1856
1906,1821,1745
1931,1872,1839
1861,1915,1939
1834,1863,1853
1897,1819,1743
1930,1869,1845
1872,1910,1942
1840,1875,1851
1905,1835,1743
1934,1871,1837
1862,1915,1946
1841,1857,1855
1905,1811,1744
1936,1872,1838
1862,1919,1937
1835,1856,1847
1900,1817,1744
1931,1874,1840
1861,1919,1946
1831,1872,1851
1895,1827,1748
1923,1893,1842
1859,1933,1946
1841,1873,1849
1904,1824,1744
1942,1879,1839
1867,1921,1942
1837,1874,1854
1907,1837,1751
1936,1885,1853
1872,1926,1951
1845,1874,1856
1908,1844,1733
1934,1940,1840
1872,1890,1958
1853,1850,1873
1904,1865,1759
1936,1904,1835
1867,1946,1936
1846,1845,1852
1904,1822,1754
1936,1871,1850
1869,1903,1950
1838,1887,1851
1895,1840,1744
1927,1910,1847
1863,1911,1952
1838,1854,1853
1905,1834,1755
1921,1933,1838
1852,1936,1936
1831,1889,1866
1899,1841,1761
1927,1879,1842
1855,1903,1945
1830,1882,1853
1894,1827,1747
1926,1872,1834
1863,1955,1951
1837,1854,1872
1901,1773,1756
1927,1872,1844
1867,1948,1947
1839,1859,1865
1901,1803,1753
1931,1905,1844
1872,1911,1952
1840,1857,1854
1904,1807,1746
1934,1876,1835
1863,1905,1938
1835,1869,1857
1904,1818,1757
1933,1883,1844
1863,1931,1942
1839,1872,1857
1901,1813,1746
1920,1873,1834
1860,1917,1936
1827,1859,1857
1895,1831,1744
1923,1927,1831
1853,1934,1927
1827,1866,1858
1903,1808,1749
1934,1875,1840
1852,1950,1941
1815,1851,1849
1890,1808,1744
1924,1909,1840
1858,1938,1934
1824,1872,1852
1895,1829,1747
1926,1888,1834
1856,1931,1938
1821,1845,1842
1899,1806,1736
1922,1854,1838
1865,1950,1955
1834,1867,1847
1895,1823,1744
1921,1875,1831
1856,1904,1939
1833,1838,1849
1895,1825,1738
1920,1869,1830
1847,1916,1943
1825,1879,1859
1895,1838,1745
1926,1872,1825
1855,1915,1936
1829,1869,1869
1892,1825,1750
1925,1872,1828
1856,1920,1937
1824,1831,1849
1898,1776,1742
1933,1771,1823
1861,1916,1940
1830,1878,1872
1903,1825,1765
1931,1809,1843
1859,1917,1941
1825,1873,1855
1889,1827,1757
1923,1782,1839
1863,1914,1940
1821,1860,1850
1885,1815,1739
1930,1872,1843
1870,1917,1960
1825,1878,1863
1882,1826,1733
1919,1871,1825
1849,1934,1941
1834,1872,1871
1888,1813,1750
1910,1854,1825
1861,1979,1953
1834,1920,1873
1897,1835,1762
1926,1886,1840
1856,1929,1942
1822,1876,1854
1889,1797,1744
1925,1892,1839
1856,1908,1952
1826,1904,1870
1894,1817,1756
1923,1854,1839
1850,1891,1937
1826,1930,1859
1898,1859,1754
1926,1870,1841
1861,1916,1956
1836,1886,1879
1903,1837,1761
1929,1875,1840
1866,1982,1951
1839,1858,1871
1893,1808,1756
1922,1859,1840
1856,1883,1950
1830,1867,1868
1901,1837,1753
1934,1874,1836
1864,1905,1936
1829,1861,1845
1892,1811,1740
1925,1872,1835
1859,1911,1949
1840,1840,1865
1901,1863,1758
1936,1818,1837
1853,1904,1941
1826,1935,1872
1898,1808,1758
1934,1860,1840
1857,1915,1947
1829,1879,1871
1897,1849,1762
1924,1901,1840
1858,1982,1936
1826,1798,1857
1903,1807,1756
1925,1869,1840
1853,1914,1947
1822,1872,1853
1897,1820,1732
1930,1863,1840
1861,1915,1951
1829,1866,1868
1892,1817,1757
1919,1869,1843
1856,1909,1951
1827,1865,1871
1899,1812,1766
1925,1861,1829
1854,1906,1945
1834,1857,1865
1903,1815,1754
1925,1863,1826
1857,1904,1946
1826,1861,1873
1897,1809,1759
1922,1872,1840
1854,1923,1954
1825,1867,1872
1891,1814,1747
1920,1870,1835
1861,1922,1945
1823,1873,1859
1885,1822,1742
1920,1874,1828
1859,1914,1951
1822,1862,1872
1875,1817,1744
1918,1866,1834
1851,1914,1947
1824,1863,1858
1874,1818,1745
1919,1871,1838
1855,1919,1951
1815,1869,1872
1886,1813,1749
1915,1858,1825
1843,1902,1936
1809,1867,1856
1874,1808,1744
1913,1867,1824
1851,1910,1936
1813,1866,1861
1885,1818,1751
1907,1862,1831
1838,1909,1931
1811,1867,1869
1886,1814,1751
1921,1857,1833
1853,1911,1936
1822,1866,1862
1895,1819,1747
1930,1872,1829
1855,1915,1937
1820,1855,1855
1885,1808,1754
1929,1869,1841
1859,1923,1954
1829,1872,1872
1883,1811,1747
1923,1849,1817
1853,1901,1935
1823,1872,1867
1898,1822,1751
1935,1867,1840
1865,1914,1947
1825,1856,1861
1887,1808,1749
1931,1856,1828
1871,1910,1956
1835,1859,1872
1882,1806,1759
1911,1855,1831
1856,1905,1938
1835,1861,1867
1893,1821,1746
1929,1872,1831
1862,1916,1952
1831,1872,1872
1890,1811,1747
1925,1858,1821
1852,1915,1935
1814,1861,1863
1884,1811,1760
1914,1855,1846
1852,1906,1953
1823,1854,1871
1890,1810,1751
1930,1869,1838
1859,1920,1958
1833,1872,1878
1893,1814,1757
1923,1865,1830
1856,1914,1955
1823,1856,1863
1887,1815,1753
1923,1870,1837
1852,1911,1956
1818,1872,1873
1885,1823,1757
1917,1872,1840
1852,1919,1943
1815,1863,1862
1878,1817,1753
1918,1866,1840
1850,1927,1951
1815,1873,1867
1874,1821,1742
1913,1873,1835
1843,1905,1953
1810,1853,1871
1883,1812,1749
1915,1869,1823
1849,1926,1943
1813,1862,1873
1875,1810,1750
1905,1855,1826
1841,1907,1938
1829,1871,1876
1891,1822,1757
1922,1869,1834
1861,1919,1954
1824,1873,1883
1887,1819,1758
1921,1857,1833
1847,1915,1935
1811,1872,1862
1878,1811,1750
1921,1854,1827
1851,1895,1936
1807,1846,1862
1866,1794,1733
1918,1840,1808
1857,1898,1936
1819,1853,1867
1877,1804,1738
1909,1841,1818
1846,1902,1931
1808,1855,1856
1869,1795,1730
1904,1842,1808
1847,1897,1930
1814,1846,1856
1878,1791,1734
1917,1850,1812
1840,1897,1927
1807,1843,1874
1872,1793,1761
1911,1845,1866
1843,1903,1937
1807,1852,1855
1872,1797,1728
1907,1840,1822
1842,1894,1914
1808,1847,1846
1875,1793,1767
1917,1840,1809
1855,1898,1904
1814,1846,1831
1867,1793,1712
1913,1838,1818
1854,1903,1932
1814,1866,1879
1877,1812,1713
1915,1847,1822
1847,1898,1923
1810,1854,1886
1874,1802,1774
1915,1851,1777
1840,1899,1936
1812,1856,1859
1872,1808,1743
1914,1849,1810
1839,1893,1930
1798,1858,1853
1872,1808,1735
1906,1853,1830
1843,1905,1938
1825,1866,1878
1879,1809,1744
1925,1859,1853
1853,1913,1938
1807,1858,1856
1865,1808,1729
1913,1855,1824
1841,1902,1937
1798,1855,1872
1862,1797,1744
1911,1856,1814
1840,1904,1877
1808,1858,1858
1873,1809,1738
1913,1857,1791
1849,1904,1925
1813,1863,1858
1874,1811,1724
1915,1857,1825
1847,1913,1928
1815,1867,1863
1888,1811,1757
1923,1869,1859
1856,1920,1960
1819,1872,1882
1872,1829,1779
1921,1865,1799
1863,1909,1943
1824,1859,1831
1883,1808,1715
1919,1859,1792
1855,1910,1936
1819,1867,1876
1889,1822,1777
1923,1859,1842
1855,1904,1946
1814,1874,1875
1884,1823,1744
1921,1857,1818
1861,1907,1921
1814,1861,1871
1883,1809,1733
1921,1857,1859
1843,1911,1963
1807,1863,1877
1891,1808,1745
1935,1872,1821
1861,1922,1955
1814,1875,1871
1889,1823,1766
1926,1863,1838
1843,1916,1966
1809,1871,1904
1872,1822,1734
1923,1870,1899
1855,1909,1973
1821,1872,1881
1872,1814,1770
1917,1867,1838
1854,1922,1961
1823,1874,1935
1877,1813,1773
1903,1855,1823
1843,1919,1942
1823,1887,1916
1895,1830,1776
1923,1867,1840
1846,1922,1942
1803,1875,1895
1874,1823,1774
1919,1867,1840
1846,1911,1938
1810,1867,1877
1879,1798,1757
1921,1872,1809
1861,1925,1975
1830,1881,1902
1891,1826,1732
1923,1871,1794
1852,1923,1956
1820,1883,1857
1894,1826,1680
1927,1863,1813
1855,1911,1949
1823,1872,1903
1888,1808,1748
1924,1858,1815
1855,1917,1967
1825,1879,1872
1893,1820,1744
1935,1865,1839
1857,1914,1998
1821,1870,1856
1889,1820,1771
1922,1861,1779
1857,1915,1955
1824,1872,1889
1885,1811,1787
1923,1847,1859
1862,1898,1951
1830,1872,1884
1891,1824,1759
1927,1859,1817
1856,1920,1920
1824,1883,1882
1902,1823,1770
1922,1867,1839
1857,1921,1935
1830,1876,1872
1888,1823,1743
1920,1857,1847
1850,1904,1951
1825,1865,1863
1892,1822,1829
1921,1863,1806
1856,1914,1959
1826,1878,1907
1895,1822,1754
1937,1862,1842
1867,1920,1961
1839,1876,1863
1904,1822,1739
1936,1861,1840
1861,1909,1947
1826,1867,1877
1887,1822,1743
1923,1859,1839
1863,1914,1957
1840,1872,1903
1904,1826,1782
1947,1874,1840
1869,1922,1947
1836,1875,1884
1899,1818,1770
1934,1855,1834
1863,1908,1937
1839,1871,1877
1904,1818,1758
1936,1861,1837
1856,1918,1965
1819,1866,1892
1889,1810,1759
1943,1872,1840
1869,1927,1955
1827,1885,1887
1897,1831,1763
1932,1859,1834
1866,1905,1944
1831,1871,1885
1890,1817,1767
1925,1861,1829
1851,1907,1947
1829,1868,1882
1901,1824,1757
1935,1865,1831
1865,1920,1947
1823,1872,1875
1889,1824,1765
1962,1863,1829
1827,1911,1945
1783,1874,1874
1890,1817,1760
1903,1861,1821
1890,1915,1942
1838,1873,1884
1875,1811,1751
1887,1850,1815
1842,1904,1935
1869,1867,1872
1843,1810,1747
1920,1865,1827
1863,1915,1943
1843,1872,1872
1902,1814,1755
1931,1858,1817
1854,1904,1930
1819,1870,1870
1893,1817,1754
1936,1866,1822
1862,1907,1941
1830,1871,1871
1920,1805,1755
1985,1854,1815
1863,1917,1929
1808,1873,1877
1889,1826,1755
1934,1859,1809
1885,1907,1933
1803,1871,1872
1899,1821,1757
1936,1862,1823
1851,1917,1936
1823,1872,1866
1894,1810,1749
1936,1853,1823
1893,1909,1935
1821,1878,1875
1883,1818,1763
1913,1862,1820
1851,1920,1937
1827,1879,1878
1892,1822,1751
1931,1853,1810
1858,1917,1936
1796,1881,1872
1890,1828,1750
1946,1858,1817
1872,1903,1935
1813,1877,1866
1927,1826,1743
1968,1865,1815
1895,1924,1941
1799,1883,1872
1871,1826,1753
1964,1859,1818
1840,1911,1927
1771,1872,1872
1908,1821,1757
1927,1855,1821
1872,1904,1935
1815,1870,1862
1885,1824,1731
1939,1862,1813
1879,1909,1943
1808,1875,1872
1917,1826,1746
1936,1867,1809
1863,1923,1935
1815,1886,1874
1881,1830,1745
1933,1874,1815
1859,1925,1944
1815,1881,1874
1875,1811,1743
1917,1870,1808
1862,1930,1931
1827,1891,1878
1891,1833,1745
1932,1867,1804
1853,1925,1929
1851,1901,1878
1775,1835,1750
1917,1872,1811
1742,1923,1935
1810,1875,1867
1871,1830,1744
1911,1869,1812
1851,1922,1939
1852,1886,1875
1887,1824,1745
1935,1865,1808
1869,1926,1943
1813,1882,1881
1877,1822,1744
1920,1870,1810
1862,1925,1938
1820,1889,1874
1886,1826,1751
1923,1856,1802
1855,1911,1927
1811,1873,1879
1877,1815,1744
1892,1853,1814
1904,1905,1942
1829,1878,1879
1887,1823,1744
1904,1857,1809
1892,1914,1927
1814,1872,1863
1946,1823,1746
1980,1861,1820
1872,1907,1936
1815,1873,1872
1940,1823,1739
1881,1856,1798
1847,1905,1914
1843,1872,1872
1861,1823,1750
1946,1862,1811
1861,1917,1936
1831,1878,1872
1887,1821,1759
1941,1855,1807
1802,1906,1919
1822,1875,1868
1889,1825,1757
1903,1856,1808
1853,1907,1920
1872,1873,1871
1890,1820,1757
1929,1859,1823
1855,1914,1936
1821,1877,1875
1877,1823,1752
1923,1867,1809
1904,1918,1941
1790,1887,1884
1893,1826,1744
1915,1862,1801
1843,1919,1911
1812,1883,1859
1868,1825,1753
1891,1857,1809
1829,1909,1918
1871,1872,1867
1935,1823,1753
1929,1867,1810
1886,1917,1929
1821,1881,1870
1879,1827,1742
1872,1858,1808
1904,1915,1937
1847,1874,1883
1876,1829,1744
1935,1863,1821
1859,1911,1937
1807,1872,1880
1885,1829,1751
1933,1859,1806
1859,1914,1934
1822,1879,1879
1889,1825,1755
1933,1862,1810
1861,1917,1936
1819,1879,1875
1881,1814,1754
1926,1851,1820
1857,1911,1942
1814,1873,1899
1879,1814,1758
1925,1859,1814
1863,1921,1934
1815,1891,1887
1873,1834,1762
1919,1873,1818
1850,1921,1929
1810,1894,1879
1877,1830,1758
1923,1868,1825
1849,1920,1936
1809,1879,1878
1879,1824,1757
1925,1865,1815
1867,1920,1946
1822,1887,1887
1872,1821,1750
1910,1869,1808
1866,1926,1936
1829,1888,1885
1878,1822,1751
1930,1858,1815
1867,1914,1935
1826,1879,1883
1883,1822,1759
1926,1862,1815
1856,1920,1936
1808,1870,1905
1903,1794,1748
1915,1885,1789
1891,1943,1948
1810,1902,1893
1872,1813,1759
1892,1840,1790
1848,1949,1916
1808,1887,1866
1911,1820,1746
1953,1885,1808
1856,1898,1924
1821,1880,1865
1895,1808,1753
1909,1858,1799
1861,1910,1924
1829,1883,1882
1887,1836,1759
1935,1865,1812
1869,1915,1935
1819,1889,1877
1871,1829,1744
1923,1859,1801
1856,1914,1927
1822,1887,1886
1887,1836,1761
1924,1861,1810
1857,1922,1921
1811,1885,1872
1879,1822,1754
1925,1859,1797
1871,1921,1941
1833,1897,1888
1886,1834,1757
1932,1870,1798
1867,1922,1927
1836,1883,1882
1894,1826,1744
1929,1859,1806
1858,1911,1926
1821,1875,1873
1890,1820,1749
1939,1856,1810
1867,1918,1925
1829,1887,1872
1893,1829,1755
1939,1859,1810
1871,1916,1938
1823,1885,1877
1883,1825,1751
1937,1866,1814
1887,1924,1943
1835,1888,1893
1889,1823,1761
1937,1856,1809
1866,1923,1931
1823,1877,1874
1875,1817,1747
