1811,1871,1802
1782,1855,1876
1761,1867,1931
1783,1870,1862
1827,1847,1793
1783,1853,1811
1792,1872,1886
1799,1855,1845
1802,1854,1811
1787,1853,1824
1751,1870,1872
1759,1846,1810
1833,1838,1826
1877,1883,1856
1776,1922,1918
1797,1869,1872
1796,1835,1802
1750,1856,1814
1786,1891,1878
1810,1846,1827
1857,1842,1832
1873,1886,1871
1856,1891,1932
1854,1869,1875
1859,1842,1785
1780,1868,1831
1729,1845,1846
1815,1823,1808
1823,1823,1795
1849,1893,1891
1815,1894,1920
1867,1861,1831
1836,1839,1775
1801,1856,1850
1790,1867,1893
1808,1859,1891
1909,1888,1885
1937,1882,1847
1856,1847,1840
1767,1837,1840
1834,1845,1829
1803,1843,1830
1803,1892,1855
1819,1872,1857
1849,1845,1818
1842,1855,1840
1864,1861,1861
1803,1851,1838
1819,1856,1808
1837,1849,1869
1773,1877,1919
1917,1873,1887
1856,1831,1814
1886,1837,1845
1793,1888,1929
1747,1853,1841
1796,1815,1750
1844,1857,1831
1914,1904,1918
1864,1847,1867
1717,1836,1798
1846,1850,1818
1841,1887,1934
1835,1856,1901
1904,1823,1806
1869,1881,1838
1809,1887,1886
1792,1828,1806
1856,1828,1805
1865,1872,1858
1806,1884,1895
1808,1858,1838
1853,1825,1808
1879,1908,1867
1904,1882,1904
1804,1811,1815
1814,1809,1761
1870,1872,1874
1852,1857,1903
1842,1840,1850
1874,1857,1835
1840,1870,1871
1840,1907,1931
1815,1851,1824
1856,1856,1791
1850,1873,1823
1818,1886,1903
1865,1850,1854
1866,1843,1818
1863,1882,1856
1887,1889,1895
1857,1834,1840
1859,1841,1792
1887,1856,1814
1904,1906,1920
1813,1858,1840
1793,1830,1791
1858,1882,1856
1866,1882,1875
1864,1890,1898
1875,1856,1833
1835,1827,1819
1808,1868,1859
1826,1859,1830
1889,1817,1809
1980,1859,1824
1839,1894,1901
1810,1883,1882
1865,1857,1809
1847,1877,1847
1847,1926,1915
1886,1890,1897
1904,1843,1811
1859,1831,1767
1841,1856,1861
1831,1855,1870
1855,1845,1808
1904,1858,1819
1885,1887,1879
1876,1862,1858
1887,1850,1819
1919,1875,1856
1890,1911,1887
1842,1856,1813
1850,1805,1773
1835,1846,1840
1904,1911,1911
1883,1863,1834
1915,1865,1860
1885,1893,1872
1856,1862,1861
1878,1855,1825
1887,1826,1749
1840,1856,1803
1873,1909,1930
1874,1873,1911
1878,1854,1786
1911,1871,1805
1872,1873,1856
1843,1877,1891
1847,1835,1849
1869,1842,1831
1885,1873,1865
1890,1866,1837
1887,1840,1766
1903,1866,1806
1858,1905,1904
1889,1901,1874
1930,1846,1826
1881,1839,1830
1833,1872,1872
1866,1861,1854
1910,1854,1818
1904,1872,1861
1846,1865,1882
1869,1863,1831
1856,1808,1726
1843,1843,1778
1887,1903,1904
1965,1904,1859
1953,1836,1775
1873,1840,1840
1845,1872,1872
1841,1853,1874
1910,1894,1859
1905,1877,1802
1849,1863,1834
1827,1840,1821
1863,1812,1798
1883,1872,1808
1881,1884,1911
1889,1888,1919
1889,1885,1805
1842,1819,1776
1822,1840,1833
1874,1898,1822
1906,1857,1776
1918,1840,1831
1866,1841,1869
1907,1872,1859
1982,1843,1760
1899,1826,1797
1801,1872,1910
1808,1867,1863
1897,1829,1828
1961,1875,1840
1866,1887,1861
1819,1844,1818
1865,1838,1773
1904,1870,1802
1904,1902,1908
1914,1875,1874
1965,1838,1766
1867,1856,1806
1802,1857,1863
1855,1827,1827
1875,1825,1789
1904,1869,1885
1869,1889,1893
1920,1872,1854
1936,1841,1811
1869,1839,1850
1838,1855,1894
1833,1844,1808
1881,1795,1763
1933,1840,1834
1911,1905,1902
1835,1857,1812
1831,1833,1771
1867,1837,1825
1877,1884,1893
1904,1865,1850
1919,1862,1826
1936,1895,1895
1853,1877,1872
1827,1817,1781
1910,1808,1783
1886,1932,1813
1829,1925,1878
1855,1889,1830
1904,1829,1792
1966,1833,1826
1871,1869,1882
1801,1835,1842
1856,1859,1821
1904,1869,1842
1887,1821,1846
1877,1872,1842
1878,1791,1797
1859,1884,1819
1872,1891,1902
1872,1821,1852
1893,1760,1777
1851,1901,1791
1858,1941,1896
1911,1903,1941
1917,1838,1843
1893,1835,1809
1858,1875,1832
1811,1853,1819
1869,1829,1811
1895,1856,1806
1890,1920,1899
1907,1891,1895
1856,1885,1776
1872,1819,1803
1857,1886,1888
1862,1890,1847
1900,1882,1796
1946,1878,1811
1923,1881,1895
1861,1877,1902
1835,1866,1821
1859,1854,1826
1835,1879,1863
1867,1888,1846
1890,1847,1791
1935,1861,1765
1890,1886,1882
1841,1863,1877
1840,1834,1793
1889,1875,1825
1861,1872,1871
1856,1882,1874
1858,1872,1792
1919,1902,1847
1858,1893,1904
1858,1872,1863
1867,1851,1792
1856,1913,1809
1862,1889,1919
1871,1872,1862
1861,1853,1773
1872,1773,1850
1863,1932,1906
1871,1910,1890
1872,1795,1761
1917,1885,1866
1874,1894,2074
1840,1839,2798
1868,1911,2594
1857,1875,1918
1887,1849,1695
1877,1877,1762
1876,1847,1776
1856,1809,1839
1833,1844,1906
1840,1846,1843
1902,1872,1999
1885,1904,3182
1825,1855,3535
1856,1839,2960
1899,1779,2716
1904,1846,4095
1863,1893,4095
1794,1855,2512
1828,1838,1438
1902,1839,1326
1840,1841,1595
1826,1856,1984
1881,1782,1890
1856,1840,1821
1844,1871,1825
1849,1881,1790
1863,1818,1808
1878,1808,1841
1851,1871,1877
1842,1837,1909
1904,1827,1850
1866,1922,1687
1808,1835,2102
1763,1745,1995
1751,1574,1693
1776,1709,1524
1765,1773,2001
1724,1711,3271
1511,1441,1719
1422,1394,856
1316,1341,1622
1286,1295,965
1459,1377,1284
1613,1509,1797
1735,1639,1933
1737,1600,2960
1556,1410,2916
1392,1314,1262
1324,1298,2173
1247,1184,2032
1186,1022,1207
1257,1139,671
1392,1403,1483
1571,1494,1943
1691,1390,1890
1728,1565,1687
1712,1627,1521
1744,1680,1386
1840,1691,1313
1846,1744,1325
1760,1770,1263
1763,1751,1183
1837,1703,1105
1900,1741,1098
1857,1807,1197
1859,1811,1180
1909,1840,1104
1902,1810,1046
1936,1941,1162
1909,1872,1118
1876,1835,1040
1890,1842,1081
1942,1917,1116
1934,1901,1104
1920,1870,1062
1969,2000,1090
1947,1919,1078
1994,1965,1062
1921,1933,1087
1929,1947,1135
1937,1966,1166
1991,1967,1136
1954,1943,1078
1903,1935,1086
1949,2082,1178
1936,1961,1117
1977,1962,1136
1965,1965,1150
1969,1979,1219
1946,2000,1175
1937,1984,1137
1970,1943,1168
1936,2000,1223
1949,1968,1221
2000,1980,1172
1997,1964,1200
1958,2019,1262
1938,2000,1270
1958,1935,1221
1967,2022,1257
1926,2011,1279
1926,2000,1271
1973,1998,1241
1988,2000,1305
1985,2029,1392
1925,1970,1629
1935,1973,1671
1943,2000,1806
1910,2010,1850
1943,1980,1843
1965,1979,1827
1966,2023,1825
1923,2035,1827
1951,2026,1826
1958,1973,1825
1947,1973,1831
1933,2025,1835
1968,2047,1842
1950,1954,1894
2026,1997,1817
1903,1970,1872
1847,1966,1797
1894,1934,1790
1936,1962,1826
1954,2006,1809
1923,1984,1797
1964,1963,1815
1931,1989,1835
1933,2032,1830
1946,2000,1826
1959,1949,1826
1929,1971,1825
1886,1984,1830
1887,1984,1826
1965,1993,1831
1978,1983,1830
1904,1970,1825
1918,2006,1827
1935,1965,1834
1963,1962,1879
1971,1999,1914
1923,1978,1858
1932,1953,1820
1936,1946,2205
1887,1980,2507
1910,1989,2155
1953,1964,1843
1968,1985,1826
1939,1986,1904
1915,1961,1863
1933,1908,1749
1905,1947,1760
1906,1984,1856
1933,1964,1830
1952,1954,1773
1923,1950,1787
1934,1945,1776
1934,1933,1799
1901,1930,1745
1893,1937,1808
1902,1983,1851
1936,1963,1782
1930,1918,1744
1937,1927,1781
1898,1946,1819
1855,1923,1744
1941,1903,1678
1978,1965,1802
1893,1939,1840
1895,1922,1792
1955,1922,1712
1913,1913,1737
1873,1936,1845
1887,1945,1841
1914,1936,1726
1970,1940,1761
1931,1938,1795
1893,1933,1776
1895,1882,1712
1959,1938,1802
1882,1933,1808
1888,1913,1785
1910,1922,1729
1943,1920,1757
1885,1930,1794
1906,1914,1794
1954,1902,1773
1966,1917,1750
1924,1959,1812
1862,1921,1794
1878,1891,1752
1909,1916,1744
1899,1941,1808
1909,1924,1801
1985,1911,1766
1929,1903,1751
1858,1919,1840
1873,1904,1834
1910,1874,1749
1936,1921,1773
1903,1909,1797
1872,1872,1770
1904,1870,1781
1938,1920,1790
1936,1938,1841
1873,1907,1786
1878,1888,1740
1918,1925,1809
1914,1917,1838
1895,1872,1781
1904,1851,1680
1875,1877,1689
1904,1911,1851
1851,1872,1826
1871,1882,1776
1871,1863,1745
1894,1914,1843
1979,1927,1853
1917,1879,1762
1849,1884,1761
1845,1908,1837
1894,1895,1827
1887,1865,1701
1903,1875,1745
1867,1910,1837
1858,1898,1812
1927,1857,1782
1935,1872,1757
1902,1881,1816
1848,1856,1809
1879,1869,1791
1962,1920,1834
1885,1903,1862
1840,1874,1795
1858,1821,1703
1923,1885,1765
1903,1889,1842
1857,1878,1814
1877,1859,1729
1903,1876,1781
1863,1882,1871
1851,1867,1808
1843,1846,1744
1923,1878,1808
1915,1903,1881
1856,1853,1808
1892,1846,1743
1884,1875,1805
1872,1897,1840
1874,1874,1795
1931,1857,1795
1906,1849,1808
1826,1867,1820
1803,1865,1806
1886,1863,1791
1923,1885,1792
1941,1904,1895
1876,1857,1837
1824,1813,1777
1855,1844,1790
1917,1911,1871
1901,1891,1840
1889,1841,1823
1887,1856,1778
1889,1894,1835
1823,1841,1793
1869,1846,1811
1907,1842,1811
1887,1872,1881
1862,1891,1852
1867,1857,1811
1868,1872,1815
1862,1857,1851
1865,1823,1871
1911,1821,1779
1876,1875,1801
1824,1860,1843
1850,1847,1843
1914,1850,1821
1918,1863,1837
1908,1870,1843
1861,1856,1845
1891,1869,1799
1897,1863,1798
1861,1868,1843
1821,1825,1797
1887,1808,1791
1887,1863,1822
1853,1853,1856
1840,1822,1848
1911,1838,1825
1890,1859,1821
1859,1894,1885
1840,1842,1847
1866,1808,1767
1904,1859,1837
1883,1894,1905
1856,1857,1829
1843,1805,1731
1877,1856,1815
1858,1876,1871
1866,1830,1840
1878,1814,1810
1862,1825,1798
1865,1875,1809
1846,1851,1840
1871,1839,1840
1883,1839,1869
1853,1875,1885
1878,1858,1851
1913,1856,1779
1856,1806,1775
1824,1834,1854
1845,1841,1889
1901,1838,1853
1907,1834,1814
1861,1873,1909
1854,1846,1904
1833,1823,1787
1855,1824,1761
1855,1867,1933
1873,1867,1901
1872,1834,1791
1875,1812,1815
1814,1851,1820
1826,1822,1824
1869,1810,1831
1891,1841,1872
1851,1863,1926
1835,1838,1871
1851,1837,1808
1845,1831,1792
1857,1853,1849
1873,1842,1867
1873,1835,1841
1867,1856,1877
1857,1861,1890
1840,1831,1822
1843,1802,1759
1874,1835,1840
1847,1861,1942
1850,1859,1869
1899,1829,1872
1863,1830,1884
1829,1857,1839
1855,1838,1837
1895,1842,1808
1898,1847,1867
1873,1861,1926
1825,1837,1778
1829,1789,1788
1858,1836,1854
1887,1877,1933
1856,1857,1885
1861,1792,1789
1850,1815,1795
1821,1853,1841
1862,1853,1879
1873,1835,1835
1859,1838,1843
1835,1853,1857
1855,1822,1914
1899,1819,1889
1904,1859,1895
1847,1871,1900
1795,1823,1815
1831,1803,1775
1889,1858,1878
1904,1893,1920
1859,1831,1889
1830,1793,1751
1865,1849,1888
1808,1857,1874
1824,1851,1806
1855,1818,1860
1879,1811,1857
1841,1855,1845
1825,1826,1794
1831,1805,1854
1856,1866,1850
1874,1872,1922
1838,1831,1853
1826,1819,1838
1875,1838,1869
1858,1831,1870
1826,1833,1872
1875,1809,1790
1887,1832,1807
1821,1857,1981
1808,1856,1853
1843,1820,1815
1837,1815,1861
1840,1847,1892
1841,1855,1843
1842,1840,1829
1846,1852,1861
1843,1860,1933
1843,1822,1877
1861,1825,1803
1903,1867,1853
1895,1877,1937
1819,1827,1871
1817,1789,1703
1842,1827,1808
1839,1863,1899
1853,1845,1849
1890,1824,1861
1891,1861,1845
1860,1855,1906
1821,1819,1897
1840,1840,1881
1821,1815,1794
1843,1870,1901
1851,1854,1866
1872,1819,1845
1867,1846,1840
1861,1887,1911
1867,1859,1943
1827,1799,1787
1840,1823,1858
1862,1877,1958
1851,1883,1936
1889,1829,1834
1891,1827,1814
1857,1843,1898
1829,1829,1829
1870,1840,1791
1872,1886,1877
1872,1874,1955
1859,1817,1891
1883,1808,1813
1856,1840,1831
1818,1877,1904
1863,1849,1887
1894,1825,1831
1889,1855,1859
1883,1885,1905
1856,1846,1841
1900,1828,1818
1840,1858,1867
1783,1834,1883
1826,1840,1873
1872,1819,1839
1862,1839,1862
1856,1853,1862
1840,1860,1841
1904,1846,1855
1842,1821,1842
1817,1855,1890
1835,1847,1866
1878,1822,1791
1885,1840,1839
1931,1867,1901
1931,1891,1866
1875,1814,1791
1861,1838,1845
1840,1856,1842
1841,1839,1863
1854,1829,1825
1902,1878,1872
1856,1907,1909
1856,1840,1856
1904,1841,1818
1872,1834,1821
1853,1856,1888
1872,1847,1860
1870,1840,1840
1904,1857,1822
1870,1918,1936
1888,1859,1872
1855,1822,1817
1821,1815,1799
1849,1874,1885
1857,1855,1855
1830,1819,1800
1872,1847,1862
1813,1894,1907
1857,1910,1887
1956,1840,1795
1871,1835,1808
1790,1840,1875
1808,1855,1869
1878,1850,1823
1869,1856,1840
1814,1879,1897
1857,1839,1840
1904,1845,1808
1824,1852,1850
1801,1861,1903
1812,1835,1841
1858,1836,1787
1904,1867,1838
1821,1894,1902
1827,1872,1856
1858,1843,1840
1879,1856,1879
1855,1898,1875
1842,1842,1840
1773,1808,1810
1808,1848,2043
1879,1873,2091
1817,1866,1913
1874,1821,1799
1870,1865,1837
1867,1897,1861
1840,1866,1825
1855,1872,1817
1847,1861,1839
1831,1870,1902
1803,1861,1858
1872,1854,1795
1904,1866,1792
1793,1875,1845
1881,1841,1830
1899,1825,1775
1840,1872,1834
1854,1904,1917
1845,1879,1869
1880,1830,1771
1892,1859,1839
1840,1866,1893
1821,1859,1835
1835,1823,1754
1869,1851,1837
1863,1889,1902
1897,1874,1867
1903,1822,1786
1857,1839,1831
1810,1869,1857
1839,1857,1825
1877,1829,1744
1840,1845,1811
1868,1913,1968
1891,1863,1856
1852,1847,1798
1810,1856,1847
1765,1891,1901
1838,1836,1834
1861,1809,1756
1920,1853,1837
1845,1856,1875
1882,1872,1871
1846,1838,1819
1847,1870,1856
1854,1883,1904
1858,1847,1815
1909,1837,1716
1850,1861,1808
1808,1892,1911
1799,1876,1901
1872,1847,1838
1844,1858,1790
1812,1869,1859
1813,1840,1853
1874,1855,1799
1898,1887,1863
1875,1895,1875
1840,1856,1829
1811,1826,1776
1936,1856,1845
1837,1871,1869
1817,1855,1792
1909,1825,1779
1919,1858,1837
1821,1889,1872
1712,1841,1872
1808,1817,1807
1828,1866,1841
1833,1905,1905
1863,1883,1844
1867,1808,1757
1853,1859,1830
1787,1850,1841
1838,1840,1846
1839,1835,1821
1917,1856,1853
1830,1881,1888
1854,1873,1835
1874,1846,1797
1863,1857,1840
1808,1878,1878
1822,1848,1842
1856,1812,1799
1908,1895,1840
1875,1906,1856
1889,1883,1872
1823,1825,1887
1831,1872,2243
1833,1875,2045
1841,1835,1825
1840,1815,1776
1856,1870,1857
1895,1914,1933
1798,1893,1917
1835,1840,1822
1811,1838,1847
1827,1873,2272
1872,1872,2831
1916,1812,2406
1863,1862,1840
1904,1899,1702
1875,1842,1877
1831,1811,1808
1835,1841,4095
1309,1415,3965
428,705,2079
51,139,1735
0,0,0
0,44,0
332,465,1299
807,779,2058
1079,1007,2037
1237,1187,1868
1331,1286,1793
1446,1313,3475
1226,1125,4067
762,778,2435
414,473,1650
214,256,1511
80,143,1072
109,190,2341
0,11,2406
0,0,2087
0,0,1558
0,0,1215
0,0,1241
0,0,2544
0,0,2295
0,0,1927
0,0,1797
0,0,1953
0,0,1299
0,0,0
0,0,987
0,0,1502
0,0,2496
0,0,4095
0,0,640
0,0,1762
0,283,2588
7,327,3879
0,0,1686
0,0,489
0,0,1576
0,104,815
70,366,707
576,704,1580
974,1035,1975
1200,1301,2003
1390,1463,1834
1520,1570,1790
1711,1744,1815
1846,1880,1820
1990,1995,1825
2135,2076,1825
2209,2159,1823
2097,2197,1829
2114,2229,1831
2199,2257,2431
2148,2209,2513
2086,2207,998
2149,2243,2032
2173,2192,1997
2241,2256,1343
2206,2327,746
2230,2368,681
2341,2410,480
2435,2480,913
2226,2394,2866
1937,2181,1687
1821,2054,754
1973,2160,1227
2083,2287,2096
2109,2267,2304
2023,2143,2814
1904,2061,629
1981,2189,937
2226,2357,1631
2395,2457,1945
2455,2535,1920
2451,2588,1840
2451,2589,1813
2534,2606,1818
2586,2678,1829
2556,2736,1829
2559,2753,1829
2612,2768,1829
2619,2800,1824
2628,2827,1827
2605,2786,1825
2628,2794,1827
2691,2855,1829
2705,2893,1829
2702,2875,1825
2711,2862,1828
2726,2919,1825
2690,2960,1821
2671,2917,1827
2747,2890,1825
2709,2911,1836
2703,2944,1821
2654,2928,1724
2719,2917,1605
2709,2903,1600
2707,2943,1699
2678,2901,1646
2659,2882,1562
2701,2909,1586
2704,2928,1631
2741,2908,1616
2752,2903,1472
2720,2881,1455
2686,2941,1584
2630,2898,1535
2634,2832,1434
2695,2864,1453
2734,2929,1527
2638,2864,1483
2637,2813,1406
2646,2800,1424
2683,2885,1519
2640,2853,1460
2662,2811,1390
2640,2768,1383
2669,2800,1446
2666,2831,1426
2639,2778,1322
2605,2734,1347
2559,2749,1457
2610,2790,1460
2634,2750,1410
2592,2689,1365
2630,2766,1471
2593,2725,1431
2550,2687,1326
2556,2705,1326
2603,2704,1416
2586,2681,1435
2542,2629,1339
2559,2637,1351
2592,2654,1415
2530,2646,1441
2508,2593,1355
2544,2601,1373
2595,2621,1453
2523,2592,1399
2512,2559,1360
2512,2557,1386
2501,2607,1441
2462,2527,1397
2481,2480,1335
2515,2493,1387
2480,2521,1455
2469,2512,1426
2466,2479,1350
2483,2453,1357
2482,2509,1487
2446,2462,1493
2384,2381,1345
2429,2405,1345
2453,2468,1470
2480,2455,1509
2398,2337,1414
2379,2351,1388
2391,2335,1491
2410,2385,1505
2467,2309,1423
2411,2366,1398
2329,2307,1488
2329,2347,1499
2375,2271,1425
2449,2342,1518
2352,2287,1488
2263,2292,1413
2297,2202,1415
2384,2215,1455
2363,2305,1535
2320,2308,1535
2317,2175,1472
2323,2159,1478
2288,2224,1535
2288,2205,1527
2334,2254,1487
2335,2237,1523
2256,2225,1555
2251,2160,1557
2298,2160,1522
2285,2149,1513
2267,2169,1589
2258,2165,1603
2286,2098,1521
2266,2118,1535
2227,2171,1586
2215,2115,1618
2234,2080,1533
2266,2100,1520
2235,2130,1632
2191,2078,1664
2192,2028,1535
2217,2092,1586
2179,2109,1676
2174,2055,1663
2209,2032,1583
2202,2042,1587
2163,2067,1660
2181,2076,1694
2234,2021,1632
2191,1971,1631
2128,1987,1665
2118,1990,1639
2129,1972,1604
2181,1987,1658
2165,2039,1686
2171,1999,1679
2115,1945,1638
2103,1954,1693
2105,1979,1735
2119,1989,1702
2125,1915,1644
2096,1894,1646
2170,1979,1776
2151,1962,1698
2054,1860,1632
2059,1906,1680
2097,1938,1763
2121,1886,1707
2079,1875,1642
2086,1907,1723
2064,1947,1808
2039,1872,1749
2099,1835,1721
2101,1905,1756
2078,1914,1806
2067,1830,1719
2064,1860,1694
2038,1829,1757
2045,1885,1835
2035,1863,1761
2035,1764,1681
2062,1840,1735
2059,1911,1840
1987,1846,1818
1975,1804,1717
2064,1812,1744
2042,1840,1839
2000,1855,1823
1995,1802,1767
2033,1822,1794
2011,1861,1861
1982,1827,1827
2007,1820,1744
2026,1792,1777
2029,1770,1870
1973,1740,1818
1941,1781,1738
2026,1776,1842
1983,1802,1890
1950,1782,1802
1966,1808,1728
1975,1729,1791
1998,1802,1884
1937,1779,1815
1940,1748,1805
1986,1776,1854
1995,1805,1895
1955,1763,1834
1907,1728,1791
1947,1786,1854
1975,1763,1907
1946,1783,1897
1923,1761,1817
1936,1744,1845
1909,1776,1901
1892,1835,1872
1926,1702,1835
1949,1776,1834
1919,1746,1909
1894,1760,1918
1934,1682,1854
1945,1713,1880
1911,1728,1907
1872,1807,1872
1919,1742,1808
1958,1722,1863
1920,1684,1953
1869,1767,1930
1882,1687,1859
1904,1742,1869
1897,1807,1914
1860,1705,1873
1862,1679,1845
1926,1757,1913
1872,1745,1945
1841,1671,1850
1935,1686,1815
1921,1708,1895
1861,1746,1951
1831,1735,1935
1871,1616,1891
1847,1699,1902
1845,1685,1936
1873,1739,1966
1877,1726,1915
1854,1727,1898
1851,1754,1962
1825,1725,1929
1872,1675,1844
1918,1680,1838
1835,1725,2006
1839,1782,2002
1856,1702,1893
1878,1684,1894
1845,1723,1977
1847,1754,1934
1820,1692,1866
1818,1712,1891
1862,1728,2003
1839,1728,1968
1810,1681,1870
1845,1710,1899
1819,1713,1963
1808,1655,1953
1849,1616,1920
1904,1750,1937
1855,1786,1953
1808,1718,1931
1873,1699,1927
1793,1633,1861
1769,1728,1942
1779,1777,1941
1815,1698,1895
1851,1716,1936
1853,1762,1968
1793,1724,1918
1781,1669,1885
1808,1706,1932
1840,1766,2015
1845,1751,1978
1819,1707,1893
1823,1711,1897
1777,1719,1957
1792,1729,1917
1805,1691,1843
1791,1701,1914
1807,1760,2001
1830,1757,1954
1808,1722,1901
1815,1735,1948
1785,1749,1995
1795,1733,1951
1839,1713,1907
1874,1762,1931
1776,1774,1974
1715,1699,1906
1735,1687,1842
1775,1712,1902
1787,1761,2017
1793,1793,1980
1830,1734,1903
1811,1718,1890
1791,1755,1951
1780,1751,1987
1803,1713,1904
1805,1727,1875
1773,1758,1953
1808,1734,1942
1818,1749,1889
1783,1761,1911
1787,1770,1978
1767,1746,1949
1747,1725,1901
1766,1735,1912
1791,1780,2000
1784,1787,1965
1788,1745,1882
1831,1750,1859
1802,1782,1991
1737,1781,1981
1803,1751,1885
1840,1766,1872
1796,1780,1966
1743,1744,2000
1721,1709,1882
1760,1728,1891
1802,1815,1996
1793,1791,1930
1799,1758,1874
1808,1776,1909
1776,1796,1970
1762,1770,1936
1797,1779,1911
1811,1732,1910
1791,1779,1942
1765,1761,1913
1745,1730,1873
1771,1764,1927
1769,1808,1985
1771,1791,1943
1782,1765,1874
1794,1776,1904
1818,1812,1952
1808,1793,1919
1785,1726,1874
1787,1773,1948
1754,1789,1938
1729,1767,1907
1756,1743,1855
1830,1776,1935
1814,1824,1995
1760,1808,1949
1776,1777,1875
1801,1751,1840
1754,1762,1888
1734,1774,1939
1761,1781,1915
1774,1787,1887
1819,1813,1962
1830,1787,1931
1759,1738,1897
1757,1775,1915
1760,1815,1954
1769,1830,1953
1791,1792,1894
1799,1794,1927
1759,1808,1935
1755,1795,1905
1833,1776,1876
1792,1781,1914
1777,1808,1959
1777,1827,1914
1816,1790,1884
1773,1760,1884
1746,1794,1938
1742,1808,1943
1790,1789,1863
1818,1809,1888
1813,1841,1975
1776,1830,1946
1805,1782,1875
1807,1794,1869
1786,1839,1983
1776,1824,1954
1791,1791,1862
1831,1854,1890
1787,1841,1919
1780,1827,1926
1795,1786,1847
1786,1775,1869
1781,1833,1913
1799,1846,1920
1802,1816,1869
1801,1799,1874
1775,1846,1934
1761,1825,1895
1840,1817,1888
1840,1820,1889
1776,1844,1887
1826,1853,1859
1791,1837,1889
1809,1807,1898
1820,1811,1921
1773,1808,1886
1798,1797,1829
1817,1808,1857
1753,1821,1949
1757,1829,1907
1747,1823,1830
1808,1871,1886
1835,1863,1960
1808,1831,1909
1818,1834,2717
1807,1827,2857
1843,1853,2043
1827,1811,1683
1727,1770,1720
1759,1807,1818
1738,1802,3152
1535,1630,2670
1305,1392,1904
1171,1216,1709
979,1126,1473
911,1013,1680
879,979,742
1072,1134,1667
1234,1317,1961
1321,1358,1867
1387,1341,1519
1451,1413,1619
1600,1555,1815
1682,1602,1887
1733,1597,1951
1719,1634,1982
1695,1665,1825
1681,1648,1745
1697,1603,1776
1749,1642,1802
1744,1681,1797
1725,1675,1818
1775,1693,1787
1825,1745,1823
1839,1807,1833
1808,1767,1792
1747,1725,1813
1758,1762,1789
1777,1819,1837
1811,1840,1825
1835,1806,1749
1858,1856,1803
1872,1878,1803
1838,1873,1793
1866,1866,1682
1882,1886,1703
1847,1917,1751
1829,1887,1688
1856,1862,1622
1873,1857,1612
1872,1919,1719
1862,1931,4095
1897,1920,4095
1920,1918,2242
1875,1941,1397
1862,1958,1366
1874,1917,1452
1857,1933,1556
1879,1987,1603
1873,1955,1566
1872,1934,1472
1900,1936,1534
1855,1946,1574
1851,1959,1573
1890,1925,1458
1947,1949,1493
1920,2000,1582
1904,1969,1535
1896,1935,1415
1898,1967,1535
1890,2015,1630
1878,1981,1535
1922,1973,1509
1913,1937,1428
1869,1964,1525
1856,1977,1561
1931,1985,1623
1921,1959,2105
1867,1963,4095
1842,1969,4095
1856,1939,4095
1939,1955,2629
1926,2033,1535
1869,1988,1211
1860,1933,1365
1917,1966,1488
1935,2026,1480
1900,2011,1461
1883,1954,1393
1875,1939,1379
1910,2017,1472
1899,1979,1435
1920,1942,1355
1925,1954,1406
1887,1987,1463
1872,1984,1428
1879,1939,1347
1943,1954,1427
1902,2010,1520
1873,1994,1454
1889,1949,1294
1905,1993,1421
1882,2018,1441
1922,2014,1595
1905,1952,1511
1899,1921,1391
1887,1963,1535
1858,1967,1392
1872,1943,1399
1904,1962,1490
1919,2012,1590
1872,1977,1600
1857,1917,1415
1898,1945,1444
1968,2010,1591
1935,2017,1590
1840,1935,1472
1838,1938,1491
1867,1983,1590
1871,1956,1556
1931,1950,1520
1925,1950,1522
1905,1958,1535
1877,1959,1533
1861,1941,1488
1895,1945,1597
1877,1953,1642
1891,1955,1563
1919,1926,1569
1894,1922,1535
1883,1986,1706
1901,1989,1674
1841,1890,1520
1890,1902,1569
1889,1931,1667
1888,1970,1629
1879,1935,1557
1872,1889,1653
1899,1978,1759
1882,1935,1648
1868,1872,1587
1857,1905,1619
1850,1943,1701
1862,1934,1711
1902,1921,1617
1870,1887,1611
1892,1941,1774
1910,1941,1775
1836,1874,1605
1857,1920,1620
1857,1945,1671
1906,1942,1673
1898,1917,1649
1871,1897,1650
1851,1907,1687
1839,1920,1710
1885,1911,1685
1936,1936,1726
1904,1933,1729
1859,1923,1705
1877,1910,1679
1872,1899,1680
1867,1929,1811
1856,1903,1712
1856,1882,1680
1919,1907,1687
1889,1933,1744
1840,1872,1728
1875,1898,1721
1898,1907,1702
1865,1925,1757
1878,1891,1760
1867,1867,1720
1844,1873,1709
1845,1953,1794
1856,1919,1814
1897,1876,1750
1909,1909,1755
1864,1925,1789
1853,1898,1750
1856,1853,1731
1840,1869,1777
1823,1939,1839
1840,1932,1793
1878,1851,1734
1918,1877,1767
1910,1903,1845
1859,1904,1842
1851,1863,1759
1885,1893,1811
1893,1942,1853
1867,1887,1840
1872,1844,1769
1861,1861,1769
1819,1907,1842
1842,1904,1823
1881,1862,1798
1872,1871,1805
1840,1876,1864
1858,1878,1845
1932,1891,1811
1904,1887,1781
1811,1868,1813
1808,1840,1841
1855,1840,1783
1888,1888,1808
1914,1952,1921
1972,1905,1901
1778,1808,1739
1758,1827,1779
1869,1899,1886
1897,1913,1885
1840,1852,1840
1859,1871,1828
1889,1884,1861
1826,1872,1861
1865,1871,1821
1936,1843,1795
1840,1867,1870
1802,1891,1895
1813,1872,1836
1911,1881,1865
1923,1905,1923
1910,1873,1883
1856,1840,1811
1861,1845,1794
1787,1891,1879
1869,1856,1908
1879,1840,1830
1866,1861,1842
1904,1909,1954
1842,1872,1877
1853,1834,1806
1874,1840,1840
1856,1877,1920
1808,1889,1961
1820,1838,1856
1823,1837,1855
1842,1893,1936
1853,1885,1897
1856,1839,1811
1857,1829,1832
1805,1861,1909
1860,1881,1935
1847,1839,1855
1855,1847,1858
1830,1870,1877
1839,1878,1928
1863,1847,1872
1858,1851,1869
1841,1875,1925
1854,1836,1901
1850,1823,1875
1858,1866,1927
1758,1861,1907
1755,1840,1879
1822,1811,1834
