1862,1815,1801
1889,1863,1844
1850,1904,1877
1844,1840,1808
1883,1844,1790
1904,1904,1877
1873,1883,1889
1837,1854,1797
1863,1792,1776
1894,1857,1855
1873,1899,1899
1841,1860,1780
1853,1840,1747
1867,1824,1852
1874,1882,1950
1857,1871,1873
1895,1877,1835
1854,1895,1833
1843,1898,1874
1872,1855,1861
1860,1777,1807
1845,1834,1825
1856,1849,1902
1875,1872,1855
1873,1796,1799
1887,1840,1843
1891,1842,1905
1853,1838,1842
1842,1876,1750
1867,1932,1840
1872,1893,1922
1840,1835,1847
1852,1811,1793
1859,1859,1838
1871,1872,1891
1856,1865,1871
1900,1878,1851
1872,1873,1853
1823,1856,1840
1821,1823,1808
1877,1824,1781
1873,1863,1856
1840,1866,1882
1856,1885,1861
1872,1867,1822
1883,1808,1858
1826,1840,1877
1816,1840,1850
1866,1859,1779
1894,1886,1837
1882,1955,1919
1835,1968,1881
1854,1825,1795
1861,1829,1804
1866,1871,1898
1863,1842,1862
1877,1879,1838
1866,1851,1835
1840,1882,1868
1838,1840,1855
1842,1808,1794
1867,1869,1874
1852,1885,1903
1838,1838,1845
1886,1847,1825
1882,1867,1840
1847,1949,1885
1865,1914,1865
1872,1826,1809
1881,1827,1859
1861,1855,1902
1840,1853,1828
1860,1750,1802
1884,1917,1847
1860,1887,1905
1854,1920,1853
1872,1841,1808
1880,1889,1840
1859,1922,1874
1839,1920,1839
1872,1855,1809
1889,1882,1840
1898,1955,1902
1867,1862,1869
1808,1821,1786
1822,1841,1827
1856,1857,1883
1859,1902,1830
1863,1837,1795
1873,1874,1863
1856,1958,1922
1837,1888,1847
1872,1861,1794
1922,1877,1849
1920,1879,1916
1872,1866,1869
1823,1818,1765
1811,1822,1825
1842,1889,1901
1869,1885,1863
1868,1831,1793
1866,1863,1827
1879,1895,1901
1877,1891,1855
1864,1872,1803
1854,1840,1826
1863,1865,1876
1883,1856,1863
1913,1842,1805
1891,1835,1873
1840,1918,1903
1842,1833,1783
1856,1871,1761
1869,1903,1840
1841,1949,1922
1813,1740,1834
1857,1855,1773
1885,1860,1840
1858,1888,1899
1838,1854,1843
1848,1827,1775
1858,1856,1834
1866,1872,1890
1872,1895,1872
1877,1850,1817
1890,1901,1879
1845,1881,1865
1826,1861,1793
1840,1840,1744
1902,1872,1831
1891,1891,1889
1808,1840,1812
1842,1811,1799
1871,1862,1849
1840,1895,1875
1835,1858,1808
1856,1841,1807
1856,1850,1829
1840,1863,1885
1858,1867,1859
1864,1847,1766
1872,1873,1829
1888,1912,1901
1840,1851,1809
1863,1815,1760
1859,1860,1806
1819,1872,1840
1842,1862,1825
1862,1846,1802
1874,1872,1843
1872,1891,1872
1854,1863,1808
1825,1823,1746
1845,1849,1776
1866,1904,1872
1847,1851,1853
1862,1825,1801
1873,1875,1840
1877,1915,1859
1873,1872,1841
1867,1818,1777
1839,1855,1811
1833,1867,1856
1831,1839,1823
1856,1817,1762
1874,1857,1808
1871,1904,1872
1855,1872,1840
1857,1822,1775
1879,1863,1846
1856,1872,1881
1872,1875,1840
1898,1853,1782
1847,1851,1820
1821,1856,1872
1843,1846,1838
1873,1840,1808
1888,1881,1858
1881,1885,1901
1834,1829,1794
1851,1824,1766
1860,1857,1843
1841,1872,1889
1840,1834,1830
1866,1810,1786
1879,1856,1808
1880,1872,1893
1809,1837,1815
1839,1814,1810
1891,1870,1883
1872,1894,1906
1831,1857,1827
1861,1829,1771
1879,1879,1861
1873,1909,1897
1837,1840,1798
1846,1813,1769
1871,1869,1854
1869,1899,1907
1862,1849,1836
1856,1813,1779
1872,1873,1837
1865,1913,1904
1853,1860,1808
1853,1824,1788
1859,1842,1850
1850,1872,1897
1840,1850,1811
1885,1831,1741
1896,1874,1829
1822,1872,1871
1815,1845,1835
1872,1838,1792
1895,1870,1860
1866,1904,1901
1874,1847,1849
1858,1811,1775
1864,1869,1808
1861,1890,1856
1872,1837,1806
1828,1805,1753
1858,1865,1840
1840,1869,1862
1872,1870,1831
1899,1850,1815
1869,1847,1835
1871,1883,1862
1859,1838,1805
1905,1823,1793
1879,1858,1856
1829,1874,1870
1826,1840,1787
1845,1819,1767
1893,1872,1853
1872,1894,1882
1859,1870,1846
1866,1808,1762
1859,1857,1810
1841,1895,1904
1869,1847,1850
1865,1785,1749
1858,1878,1826
1874,1910,1892
1851,1840,1803
1855,1821,1781
1837,1859,1827
1851,1895,1906
1841,1863,1841
1846,1821,1776
1872,1840,1827
1841,1872,1881
1802,1829,1789
1829,1815,1751
1863,1855,1839
1861,1878,1904
1868,1851,1839
1872,1852,1788
1872,1871,1841
1843,1871,1873
1827,1839,1809
1858,1840,1776
1875,1877,1830
1818,1844,1827
1823,1837,1806
1863,1827,1814
1898,1892,1875
1856,1880,1869
1835,1859,1799
1856,1824,1776
1840,1846,1810
1828,1868,1862
1858,1856,1847
1866,1830,1806
1862,1858,1847
1873,1901,1894
1851,1845,1823
1867,1826,1779
1838,1849,1813
1841,1911,1888
1887,1901,1866
1885,1838,1782
1842,1840,1817
1842,1877,1891
1840,1841,1826
1865,1815,1781
1873,1862,1829
1838,1853,1840
1831,1838,1817
1847,1830,1789
1904,1877,1867
1885,1903,1903
1882,1859,1829
1851,1810,1775
1818,1837,1820
1805,1868,1856
1856,1849,1840
1937,1870,1835
1902,1840,1827
1820,1854,1837
1795,1835,1792
1865,1853,1795
1898,1889,1886
1861,1885,1899
1827,1828,1813
1831,1798,1741
1904,1858,1837
1872,1877,1904
1814,1850,1813
1841,1840,1787
1866,1877,1866
1843,1883,1901
1837,1855,1808
1847,1856,1766
1855,1856,1838
1833,1857,1875
1833,1826,1818
1856,1815,1783
1867,1855,1837
1871,1894,1904
1797,1856,1823
1833,1857,1792
1869,1895,1856
1856,1891,1869
1825,1840,1810
1840,1825,1791
1844,1855,1843
1830,1879,1890
1837,1837,1840
1877,1840,1812
1850,1849,1815
1841,1872,1878
1835,1846,1846
1856,1840,1801
1877,1904,1872
1851,1879,1898
1838,1839,1835
1887,1863,1808
1833,1847,1815
1831,1855,1853
1814,1839,1837
1862,1840,1817
1879,1863,1857
1840,1866,1877
1825,1874,1838
1870,1851,1820
1882,1881,1842
1846,1870,1870
1834,1840,1827
1844,1809,1795
1869,1855,1846
1852,1889,1902
1846,1854,1840
1854,1823,1786
1857,1872,1859
1827,1859,1862
1833,1830,1814
1869,1823,1792
1856,1849,1843
1847,1891,1920
1871,1872,1842
1871,1830,1773
1827,1835,1808
1839,1867,1863
1872,1857,1854
1856,1815,1807
1823,1842,1847
1819,1873,1876
1845,1850,1813
1904,1826,1797
1904,1853,1857
1854,1869,1904
1836,1840,1856
1839,1834,1802
1898,1895,1893
1872,1887,1876
1825,1824,1809
1837,1796,1771
1847,1819,1827
1841,1861,1878
1858,1847,1871
1879,1843,1840
1898,1883,1857
1904,1911,1917
1854,1872,1840
1847,1830,1803
1796,1815,1787
1822,1856,1874
1827,1829,1822
1900,1841,1820
1875,1840,1858
1856,1871,1887
1806,1819,1790
1826,1796,1783
1856,1861,1877
1845,1857,1915
1814,1808,1786
1845,1790,1723
1876,1856,1856
1861,1859,1906
1840,1873,1849
1861,1839,1825
1904,1854,1866
1851,1855,1877
1859,1860,1842
1859,1789,1766
1878,1835,1842
1815,1860,1875
1777,1826,1803
1839,1824,1779
1908,1865,1855
1859,1895,1899
1795,1808,1806
1826,1790,1787
1838,1846,1827
1873,1883,1887
1888,1871,1854
1855,1828,1817
1829,1835,1854
1830,1873,1900
1834,1841,1808
1830,1802,1760
1846,1830,1847
1840,1866,1915
1832,1840,1835
1851,1833,1791
1859,1884,1851
1822,1887,1926
1841,1841,1883
1904,1842,1834
1872,1856,1852
1808,1849,1849
1795,1827,1787
1815,1802,1778
1854,1853,1843
1846,1872,1873
1856,1861,1862
1841,1851,1829
1856,1877,1872
1834,1872,1918
1843,1818,1860
1867,1831,1825
1871,1871,1845
1847,1857,1906
1856,1855,1866
1870,1837,1822
1844,1840,1829
1874,1910,1875
1899,1857,1865
1856,1805,1771
1803,1830,1795
1815,1842,1904
1838,1830,1861
1867,1831,1837
1873,1872,1882
1840,1873,1885
1853,1840,1810
1904,1838,1807
1885,1856,1879
1867,1895,1936
1847,1838,1869
1830,1809,1772
1857,1847,1840
1868,1904,1934
1838,1856,1830
1894,1826,1808
1897,1852,1891
1861,1873,1911
1824,1827,1798
1840,1823,1782
1873,1855,1819
1863,1879,1895
1873,1847,1875
1918,1845,1811
1843,1855,1861
1819,1869,1861
1797,1839,1801
1855,1801,1794
1858,1838,1872
1898,1889,1920
1822,1838,1836
1807,1836,1791
1853,1865,1827
1890,1890,1882
1828,1873,1872
1824,1834,1818
1942,1877,1871
1876,1899,1919
1847,1840,1853
1856,1804,1791
1857,1871,1856
1834,1872,1879
1817,1840,1819
1856,1824,1794
1903,1873,1866
1804,1867,1893
1797,1853,1818
1841,1833,1776
1825,1887,1859
1855,1879,1926
1861,1851,1865
1905,1834,1829
1904,1877,1890
1802,1847,1872
1803,1847,1831
1869,1863,1838
1879,1883,1856
1861,1887,1911
1854,1836,1851
1862,1829,1796
1863,1866,1853
1857,1901,1920
1868,1839,1825
1856,1823,1776
1872,1857,1838
1858,1875,1904
1872,1842,1895
1899,1840,1827
1875,1877,1850
1823,1890,1884
1826,1852,1827
1920,1868,1854
1851,1840,1856
1872,1855,1899
1773,1830,1827
1828,1812,1754
1901,1847,1845
1894,1879,1920
1917,1872,1872
1869,1838,1811
1910,1875,1853
1877,1920,1936
1858,1853,1861
1919,1814,1796
1882,1851,1846
1873,1897,1905
1851,1859,1855
1869,1805,1785
1938,1863,1877
1856,1868,1871
1885,1853,1853
1861,1851,1797
1849,1847,1824
1854,1872,1889
1833,1851,1842
1843,1829,1796
1882,1874,1863
1866,1865,1859
1845,1861,1808
1894,1847,1826
1904,1840,1872
1872,1872,1918
1839,1833,1853
1888,1817,1767
1842,1842,1815
1808,1863,1875
1782,1835,1853
1774,1839,1818
1883,1874,1866
1934,1893,1891
1872,1859,1855
1894,1835,1801
1855,1865,1851
1836,1857,1888
1824,1822,1813
1838,1822,1776
1904,1892,1855
1868,1886,1877
1790,1817,1803
1820,1803,1786
1850,1869,1843
1863,1906,1914
1887,1905,1890
1861,1810,1770
1849,1819,1824
1901,1856,1883
1824,1850,1838
1860,1855,1834
1911,1879,1848
1937,1878,1868
1915,1841,1824
1893,1847,1827
1886,1851,1851
1869,1924,1891
1886,1843,1804
1833,1792,1787
1839,1849,1861
1877,1865,1888
1833,1839,1809
1759,1836,1729
1875,1878,1819
1842,1883,1906
1904,1836,1871
1846,1851,1829
1887,1854,1840
1810,1902,1899
1842,1843,1833
1857,1809,1805
1776,1869,1857
1849,1854,1890
1906,1831,1854
1879,1829,1808
1833,1853,1848
1867,1875,1888
1831,1851,1824
1872,1812,1795
1859,1867,1889
1812,1885,1903
1813,1849,1807
1870,1830,1782
1875,1851,1838
1936,1895,1897
1846,1855,1827
1868,1805,1806
1861,1853,1840
1853,1904,1917
1872,1869,1872
1951,1837,1814
1829,1866,1845
1925,1874,1886
1834,1843,1828
1855,1792,1779
1867,1853,1821
1841,1883,1872
1840,1861,1846
1942,1840,1813
1895,1863,1851
1866,1857,1886
1808,1836,1812
1872,1849,1777
1859,1831,1810
1862,1840,1872
1889,1867,1885
1883,1821,1820
1843,1842,1808
1829,1872,1890
1863,1865,1877
1889,1819,1801
1881,1872,1829
1876,1891,1902
1842,1827,1808
1838,1808,1728
1872,1844,1839
1837,1863,1907
1837,1849,1840
1886,1825,1802
1901,1870,1874
1861,1911,1931
1827,1842,1840
1830,1804,1760
1871,1863,1836
1887,1899,1917
1843,1834,1840
1840,1818,1762
1868,1872,1840
1843,1871,1884
1840,1850,1831
1849,1831,1763
1860,1838,1808
1853,1884,1891
1840,1835,1809
1861,1829,1789
1895,1887,1885
1855,1895,1936
1869,1858,1854
1877,1815,1789
1857,1835,1828
1840,1872,1885
1823,1856,1829
1856,1851,1787
1888,1902,1851
1869,1883,1881
1866,1846,1844
1849,1822,1795
1853,1847,1835
1855,1888,1886
1845,1871,1824
1861,1840,1773
1869,1871,1840
1887,1904,1923
1850,1872,1850
1840,1855,1791
1860,1872,1843
1855,1921,1895
1842,1861,1830
1859,1817,1783
1897,1862,1865
1879,1893,1926
1856,1851,1830
1855,1824,1762
1878,1872,1839
1835,1882,1873
1841,1845,1848
1857,1840,1793
1894,1869,1855
1886,1889,1908
1833,1836,1822
1872,1831,1776
1858,1866,1825
1830,1874,1890
1840,1842,1840
1856,1839,1794
1879,1879,1872
1865,1894,1907
1840,1856,1805
1867,1845,1775
1863,1872,1845
1878,1903,1904
1877,1857,1875
1858,1813,1802
1893,1859,1856
1832,1872,1861
1808,1808,1792
1862,1832,1808
1869,1872,1845
1847,1893,1859
1847,1861,1839
1866,1849,1829
1879,1888,1875
1857,1886,1898
1843,1842,1827
1867,1834,1792
1899,1897,1854
1890,1903,1904
1841,1853,1861
1845,1829,1808
1874,1857,1872
1848,1877,1888
1843,1843,1799
1867,1824,1759
1861,1877,1822
1843,1884,1895
1840,1844,1841
1866,1835,1775
1850,1845,1797
1827,1889,1844
1847,1867,1869
1845,1810,1802
1856,1842,1834
1872,1894,1895
1846,1857,1843
1855,1831,1786
1879,1863,1829
1868,1915,1897
1873,1879,1851
1871,1840,1777
1835,1847,1797
1826,1891,1872
1835,1859,1840
1862,1835,1798
1883,1853,1827
1871,1884,1873
1866,1867,1826
1870,1862,1797
1878,1870,1833
1855,1862,1872
1869,1857,1866
1869,1817,1799
1867,1857,1841
1886,1922,1881
1872,1856,1806
1837,1824,1744
1818,1840,1790
1834,1884,1885
1818,1842,1841
1855,1854,1796
1884,1869,1841
1873,1890,1904
1846,1844,1821
1861,1856,1792
1894,1894,1859
1856,1899,1889
1850,1862,1850
1878,1810,1780
1875,1856,1817
1830,1886,1888
1841,1866,1857
1853,1831,1777
1866,1870,1820
1876,1894,1904
1873,1846,1854
1851,1823,1776
1843,1859,1809
1853,1886,1874
1859,1861,1840
1879,1840,1807
1904,1879,1850
1861,1893,1920
1834,1856,1854
1843,1824,1786
1855,1849,1811
1847,1878,1891
1835,1843,1840
1841,1826,1759
1872,1882,1843
1843,1878,1860
1839,1833,1801
1862,1835,1776
1876,1867,1869
1851,1904,1863
1846,1861,1792
1872,1835,1755
1870,1872,1837
1875,1904,1888
1865,1843,1823
1822,1791,1816
1831,1840,1812
1817,1872,1793
1845,1889,1836
1861,1847,1788
1859,1853,1840
1855,1872,1885
1860,1861,1875
1883,1872,1872
1885,1862,1841
1873,1882,1898
1856,1840,1786
1862,1822,1817
1847,1854,1830
1860,1898,1903
1840,1841,1872
1838,1806,1761
1872,1883,1841
1847,1870,1829
1852,1835,1839
1858,1809,1810
1892,1854,1842
1859,1883,1879
1819,1829,1815
1843,1810,1746
1866,1839,1831
1867,1888,1901
1843,1859,1831
1873,1861,1831
1901,1902,1843
1823,1883,1863
1808,1854,1810
1857,1813,1793
1882,1870,1863
1871,1904,1890
1852,1874,1872
1849,1842,1769
1870,1855,1837
1877,1910,1915
1843,1862,1844
1838,1815,1776
1852,1841,1794
1870,1897,1871
1855,1849,1836
1861,1831,1807
1883,1863,1823
1869,1895,1914
1888,1881,1895
1855,1837,1770
1867,1847,1824
1871,1904,1905
1847,1873,1807
1863,1840,1779
1879,1882,1853
1858,1887,1895
1847,1863,1840
1858,1839,1769
1882,1872,1841
1863,1918,1915
1856,1871,1823
1867,1831,1777
1873,1853,1823
1903,1915,1904
1856,1856,1867
1856,1819,1763
1879,1885,1833
1853,1921,1887
1833,1861,1751
1869,1832,1807
1895,1876,1862
1852,1905,1892
1813,1840,1834
1829,1817,1771
1874,1886,1823
1870,1908,1905
1849,1867,1790
1870,1840,1792
1860,1869,1838
1855,1921,1927
1841,1877,1851
1859,1834,1779
1865,1840,1833
1861,1872,1903
1824,1841,1823
1838,1829,1707
1866,1870,1873
1869,1895,1886
1856,1869,1859
1856,1838,1785
1872,1870,1847
1842,1895,1879
1824,1865,1805
1911,1881,1826
1869,1877,1866
1803,1872,1875
1822,1837,1869
1847,1808,1766
1872,1856,1875
1830,1872,1866
1825,1842,1831
1826,1837,1808
1856,1871,1837
1867,1886,1906
1831,1837,1814
1865,1833,1794
1863,1890,1840
1808,1875,1904
1836,1840,1825
1894,1855,1843
1872,1872,1807
1842,1891,1899
1849,1862,1807
1853,1822,1795
1847,1853,1851
1845,1891,1953
1841,1866,1830
1843,1840,1749
1880,1883,1837
1870,1904,1891
1838,1834,1872
1847,1835,1797
1857,1900,1855
1839,1890,1849
1857,1859,1868
1834,1808,1779
1830,1857,1840
1831,1891,1902
1873,1867,1867
1905,1861,1787
1859,1861,1808
1841,1879,1855
1858,1862,1873
1853,1831,1797
1875,1875,1855
1847,1859,1861
1842,1839,1837
1842,1827,1831
1872,1872,1872
1855,1891,1914
1836,1847,1872
1869,1842,1837
1878,1885,1860
1874,1914,1929
1844,1869,1814
1834,1821,1783
1872,1856,1818
1919,1926,1944
1838,1849,1825
1808,1819,1749
1867,1845,1831
1840,1866,1919
1840,1857,1851
1855,1837,1805
1884,1904,1878
1840,1877,1904
1809,1822,1861
1842,1815,1808
1882,1883,1859
1879,1891,1875
1840,1847,1872
1856,1845,1798
1889,1890,1863
1847,1886,1892
1822,1827,1831
1850,1821,1827
1905,1915,1914
1844,1904,1906
1815,1840,1785
1853,1827,1781
1869,1865,1808
1843,1901,1889
1827,1849,1890
1853,1855,1795
1893,1895,1908
1871,1900,1915
1851,1865,1808
1876,1840,1815
1872,1869,1834
1840,1909,1891
1840,1866,1856
1845,1840,1791
1872,1860,1872
1872,1904,1898
1868,1860,1863
1863,1833,1808
1866,1869,1855
1846,1900,1908
1872,1869,1857
1872,1819,1808
1894,1861,1861
1871,1893,1925
1842,1845,1859
1869,1834,1776
1936,1907,1887
1863,1894,1911
1808,1838,1786
1856,1845,1798
1864,1865,1849
1825,1870,1870
1855,1889,1872
1883,1835,1830
1856,1859,1835
1841,1904,1885
1883,1872,1855
1903,1828,1801
1871,1842,1855
1832,1879,1893
1859,1872,1843
1887,1825,1850
1889,1862,1850
1868,1913,1902
1840,1834,1787
1847,1825,1761
1886,1878,1847
1877,1918,1913
1836,1849,1840
1842,1798,1779
1879,1869,1758
1893,1902,1883
1843,1848,1843
1870,1836,1786
1871,1855,1803
1851,1901,1911
1843,1869,1853
1872,1860,1847
1872,1850,1795
1879,1862,1823
1873,1840,1815
1895,1830,1785
1861,1874,1849
1872,1904,1867
1872,1865,1875
1834,1809,1739
1843,1853,1794
1846,1895,1859
1854,1860,1814
1887,1866,1819
1867,1851,1889
1841,1849,1872
1861,1831,1845
1879,1834,1790
1873,1877,1829
1872,1903,1917
1858,1840,1839
1866,1827,1763
1905,1872,1853
1872,1901,1905
1856,1874,1853
1875,1845,1819
1853,1826,1811
1808,1855,1846
1850,1841,1814
1897,1825,1879
1872,1847,1840
1840,1871,1901
1842,1840,1808
1867,1830,1854
1876,1858,1798
1879,1900,1913
1887,1855,1842
1872,1828,1764
1854,1869,1802
1872,1893,1904
1871,1854,1840
1855,1846,1723
1835,1841,1790
1840,1862,1856
1855,1859,1818
1895,1833,1787
1899,1850,1861
1850,1878,1872
1827,1838,1783
1859,1813,1774
1904,1876,1866
1904,1894,1923
1904,1850,1819
1886,1828,1796
1857,1867,1831
1821,1893,1901
1841,1840,1793
1874,1823,1808
1879,1859,1863
1840,1887,1847
1825,1853,1789
1872,1841,1737
1873,1861,1837
1869,1882,1911
1879,1849,1862
1889,1841,1866
1886,1863,1878
1840,1875,1878
1834,1843,1839
1872,1838,1789
1888,1899,1865
1890,1889,1910
1888,1872,1865
1846,1799,1767
1822,1808,1791
1820,1887,1878
1849,1872,1872
1878,1825,1795
1902,1872,1837
1858,1886,1923
1863,1861,1854
1873,1837,1761
1859,1855,1840
1843,1870,1925
1835,1854,1824
1841,1837,1788
1872,1858,1854
1877,1883,1920
1865,1887,1854
1833,1818,1757
1854,1855,1791
1847,1889,1861
1837,1847,1840
1871,1814,1815
1882,1874,1882
1853,1887,1904
1830,1845,1808
1865,1840,1781
1881,1847,1840
1839,1878,1902
1835,1837,1855
1814,1801,1759
1861,1867,1820
1873,1923,1911
1861,1870,1845
1859,1813,1797
1862,1845,1840
1844,1884,1953
1819,1840,1804
1872,1839,1791
1902,1861,1834
1855,1878,1891
1811,1813,1872
1818,1808,1825
1847,1858,1875
1879,1891,1872
1830,1857,1853
1856,1839,1800
1878,1881,1876
1871,1899,1898
1834,1851,1855
1828,1810,1786
1854,1831,1820
1843,1872,1884
1831,1842,1839
1861,1840,1809
1872,1866,1791
1858,1906,1920
1857,1855,1902
1832,1811,1808
1839,1859,1840
1829,1898,1900
1856,1853,1841
1865,1812,1810
1875,1872,1859
1913,1926,1947
1822,1856,1824
1808,1808,1765
1842,1849,1837
1855,1903,1889
1861,1882,1803
1856,1811,1813
1857,1851,1813
1860,1903,1934
1844,1840,1856
1886,1851,1826
1869,1873,1765
1827,1872,1898
1828,1846,1718
1861,1849,1680
1871,1873,1879
1827,1873,1872
1839,1855,1850
1842,1835,1776
1870,1856,1823
1844,1874,1887
1840,1826,1825
1847,1833,1801
1863,1886,1872
1823,1889,1879
1803,1846,1841
1871,1826,1787
1893,1881,1947
1830,1878,1887
1777,1824,1783
1820,1808,1754
1881,1887,1852
1851,1874,1943
1856,1846,1823
1856,1810,1811
1827,1857,1820
1846,1883,1895
1856,1859,1881
1867,1846,1818
1895,1887,1840
1840,1875,1858
1807,1824,1777
1845,1829,1851
1850,1839,1808
1856,1877,1845
1855,1849,1831
1846,1823,1766
1839,1851,1821
1822,1866,1873
1810,1826,1809
1859,1819,1770
1905,1872,1869
1840,1876,1892
1808,1841,1840
1827,1823,1838
1861,1879,1844
1852,1890,1855
1862,1868,1815
1848,1806,1773
1854,1842,1818
1840,1888,1906
1851,1859,1861
1875,1831,1856
1878,1842,1809
1826,1852,1817
1819,1875,1821
1856,1855,1755
1850,1851,1808
1842,1888,1941
1840,1861,1823
1851,1833,1831
1862,1872,1808
1846,1885,1916
1838,1856,1900
1872,1839,1759
1888,1878,1761
1858,1891,1885
1833,1850,1855
1840,1818,1776
1853,1847,1884
1830,1875,1888
1840,1862,1825
1870,1823,1765
1873,1863,1840
1840,1885,1860
1836,1840,1808
1845,1808,1782
1873,1857,1879
1870,1879,1911
1854,1840,1841
1853,1818,1782
1857,1855,1830
1861,1872,1904
1854,1858,1853
1854,1854,1794
1836,1865,1815
1840,1855,1872
1842,1818,1795
1872,1829,1808
1855,1846,1855
1836,1879,1873
1857,1854,1837
1899,1823,1808
1872,1841,1853
1849,1887,1903
1824,1866,1827
1845,1828,1777
1884,1872,1853
1837,1876,1872
1822,1847,1807
1822,1808,1744
1841,1838,1807
1851,1870,1895
1834,1849,1841
1875,1852,1818
1876,1865,1843
1863,1884,1888
1838,1841,1821
1853,1809,1751
1859,1840,1846
1861,1878,1874
1830,1839,1786
1840,1814,1786
1840,1859,1850
1857,1891,1899
1859,1843,1827
1853,1787,1730
1847,1827,1811
1836,1878,1913
1843,1872,1847
1875,1840,1799
1879,1842,1829
1867,1849,1860
1878,1826,1831
1885,1850,1802
1860,1841,1808
1803,1860,1848
1763,1825,1826
1854,1829,1803
1904,1856,1854
1838,1901,1903
1834,1863,1825
1797,1805,1765
1888,1840,1841
1841,1872,1881
1814,1826,1826
1823,1811,1773
1931,1871,1830
1847,1894,1883
1842,1875,1842
1856,1837,1791
1863,1847,1829
1824,1842,1860
1808,1823,1827
1854,1830,1796
1846,1855,1854
1872,1875,1887
1872,1841,1843
1898,1801,1793
1871,1856,1840
1869,1895,1918
1833,1846,1847
1841,1830,1776
1873,1872,1855
1851,1886,1905
1901,1871,1844
1875,1836,1794
1866,1840,1822
1872,1872,1902
1843,1840,1855
1856,1822,1793
1843,1859,1843
1856,1870,1884
1809,1853,1823
1856,1841,1783
1894,1872,1826
1882,1897,1882
1854,1861,1847
1865,1839,1811
1874,1870,1859
1889,1862,1872
1872,1822,1804
1871,1838,1822
1813,1861,1867
1831,1895,1921
1787,1839,1855
1867,1853,1819
1844,1862,1823
1907,1897,1893
1843,1862,1844
1867,1847,1791
1878,1872,1826
1823,1855,1867
1788,1840,1827
1808,1844,1799
1869,1873,1873
1879,1893,1895
1906,1857,1841
1903,1872,1831
1886,1872,1858
1866,1873,1879
1847,1851,1808
1866,1822,1776
1838,1858,1846
1856,1883,1895
1882,1859,1843
1866,1829,1797
1871,1834,1808
1863,1873,1856
1847,1841,1811
1850,1825,1795
1878,1859,1875
1877,1872,1889
1896,1872,1856
1884,1839,1824
1858,1870,1840
1842,1904,1878
1831,1856,1823
1834,1809,1771
1881,1869,1861
1819,1905,1915
1829,1844,1808
1852,1811,1782
1889,1856,1846
1776,1862,1849
1902,1838,1783
1871,1856,1799
1865,1903,1859
1856,1892,1885
1866,1840,1822
1913,1856,1797
1895,1872,1872
1838,1856,1903
1862,1857,1869
1840,1815,1776
1843,1855,1823
1851,1884,1904
1839,1839,1822
1885,1826,1781
1894,1872,1844
1866,1903,1898
1874,1868,1835
1861,1821,1779
1887,1838,1812
1872,1895,1910
1931,1877,1874
1897,1823,1792
1855,1837,1827
1807,1890,1891
1819,1869,1845
1863,1813,1760
1869,1853,1852
1873,1885,1898
1826,1857,1837
1856,1863,1799
1842,1869,1842
1845,1888,1890
1823,1844,1805
1855,1837,1790
1884,1872,1901
1863,1915,1938
1887,1879,1847
1840,1819,1744
1843,1846,1803
1857,1883,1893
1931,1882,1857
1897,1850,1805
1958,1862,1840
1887,1892,1895
1849,1868,1835
1850,1829,1777
1865,1855,1826
1847,1878,1888
1838,1870,1830
1918,1851,1795
1922,1879,1880
1851,1899,1917
1854,1869,1837
1877,1849,1803
1872,1872,1817
1824,1889,1863
1791,1829,1808
1849,1852,1815
1896,1895,1883
1812,1870,1883
1821,1840,1811
1845,1809,1763
1936,1865,1830
1761,1875,1883
1863,1883,1842
1882,1863,1813
1875,1872,1860
1875,1890,1890
1808,1872,1831
1840,1820,1766
1873,1876,1862
1871,1891,1918
1839,1843,1834
1853,1839,1776
1844,1846,1813
1846,1879,1894
1856,1876,1850
1887,1872,1818
1855,1856,1827
1826,1898,1877
1821,1866,1827
1853,1834,1765
1873,1853,1842
1834,1897,1914
1807,1862,1819
1856,1862,1791
1886,1891,1858
1866,1913,1908
1845,1883,1856
1834,1822,1759
1847,1871,1824
1854,1881,1894
1870,1857,1853
1871,1843,1786
1869,1883,1842
1815,1890,1888
1834,1865,1833
1861,1814,1795
1861,1858,1835
1845,1882,1877
1835,1872,1828
1866,1847,1815
1898,1897,1867
1854,1871,1870
1853,1856,1838
1886,1837,1791
1865,1844,1808
1859,1874,1886
1854,1879,1862
1873,1851,1829
1882,1873,1872
1824,1865,1877
1818,1840,1826
1851,1843,1777
1859,1867,1835
1878,1897,1907
1872,1872,1870
1878,1856,1807
1858,1871,1831
1876,1904,1911
1869,1844,1856
1844,1845,1764
1865,1862,1792
1837,1883,1888
1849,1866,1887
1879,1843,1797
1854,1865,1843
1829,1909,1888
1811,1840,1853
1871,1807,1778
1847,1837,1773
1840,1876,1855
1846,1858,1873
1863,1841,1855
1847,1849,1819
1841,1882,1859
1847,1872,1867
1853,1846,1803
1845,1866,1828
1857,1893,1895
1870,1842,1852
1843,1819,1776
1835,1860,1831
1822,1869,1856
1844,1845,1799
1856,1823,1785
1893,1873,1883
1887,1906,1932
1811,1840,1808
1839,1829,1792
1874,1857,1851
1843,1863,1897
1834,1871,1833
1872,1865,1789
1809,1782,1760
1795,1838,1839
1871,1871,1872
1891,1857,1866
1893,1887,1883
1839,1874,1882
1825,1834,1822
1873,1863,1802
1857,1845,1807
1833,1866,1891
1815,1838,1845
1838,1827,1793
1873,1856,1781
1909,1888,1860
1884,1878,1915
1850,1843,1815
1809,1836,1808
1838,1871,1906
1879,1905,1827
1885,1855,1761
1838,1817,1776
1808,1863,1857
1842,1862,1871
1855,1829,1813
1862,1888,1855
1861,1897,1887
1871,1849,1839
1854,1812,1787
1842,1835,1834
1850,1883,1905
1838,1841,1855
1853,1823,1813
1862,1853,1823
1839,1872,1835
1808,1846,1801
1834,1811,1790
1881,1853,1872
1882,1890,1916
1846,1847,1827
1856,1830,1776
1861,1858,1819
1831,1872,1872
1863,1854,1876
1872,1834,1805
1875,1861,1854
1843,1856,1870
1857,1865,1840
1869,1834,1789
1875,1856,1845
1846,1888,1897
1828,1848,1837
1862,1808,1779
1861,1854,1845
1854,1863,1891
1852,1856,1837
1840,1840,1769
1872,1879,1851
1813,1839,1854
1826,1840,1839
1875,1833,1811
