1817,1845,1838
1810,1841,1837
1840,1845,1805
1867,1838,1819
1857,1842,1845
1827,1836,1798
1840,1830,1753
1895,1885,1834
1820,1856,1871
1791,1802,1783
1882,1856,1813
1947,1860,1870
1820,1860,1853
1793,1792,1810
1838,1792,1760
1862,1854,1885
1838,1835,1845
1834,1792,1744
1856,1782,1710
1846,1805,1830
1766,1840,1841
1791,1797,1751
1850,1808,1745
1810,1826,1795
1774,1808,1817
1822,1778,1760
1824,1774,1765
1809,1817,1853
1762,1791,1807
1779,1759,1709
1775,1774,1694
1779,1808,1760
1760,1808,1790
1744,1744,1702
1794,1749,1783
1774,1808,1835
1766,1810,1776
1758,1769,1699
1787,1765,1674
1776,1808,1840
1742,1799,1842
1792,1763,1727
1841,1798,1694
1787,1827,1831
1768,1821,1835
1774,1783,1767
1776,1779,1737
1799,1821,1840
1779,1827,1830
1777,1776,1750
1820,1806,1757
1869,1866,1833
1795,1851,1787
1795,1815,1791
1815,1817,1767
1814,1857,1836
1887,1878,1856
1879,1840,1800
1808,1829,1770
1817,1870,1862
1840,1873,1925
1839,1840,1826
1823,1825,1792
1799,1856,1853
1863,1873,1865
1814,1823,1771
1857,1857,1803
1851,1892,1911
1832,1882,1875
1840,1847,1780
1888,1867,1808
1897,1904,1881
1803,1853,1873
1777,1829,1795
1866,1853,1797
1882,1879,1975
1851,1871,1899
1855,1855,1739
1850,1860,1834
1851,1879,1859
1839,1879,1891
1852,1839,1776
1859,1865,1808
1861,1920,1905
1831,1915,1904
1856,1853,1817
1867,1852,1811
1887,1879,1872
1909,1886,1887
1829,1831,1808
1803,1839,1795
1823,1876,1906
1872,1895,1904
1917,1867,1737
1918,1855,1840
1824,1902,1935
1833,1895,1852
1869,1902,1856
1909,1875,1875
1895,1892,1974
1824,1888,1855
1811,1855,1813
1904,1892,1801
1873,1910,1931
1849,1872,1927
1861,1840,1851
1887,1866,1857
1871,1904,1903
1813,1882,1855
1836,1861,1837
1917,1887,1831
1926,1919,1907
1843,1911,1903
1883,1847,1833
1872,1840,1823
1870,1872,1835
1810,1890,1882
1831,1866,1841
1920,1858,1810
1906,1911,1885
1821,1894,1872
1847,1840,1817
1866,1856,1821
1871,1923,1975
1851,1904,1936
1874,1872,1858
1911,1874,1871
1914,1911,1915
1847,1904,1892
1887,1902,1879
1930,1875,1817
1887,1911,1872
1840,1911,1911
1892,1895,1913
1999,1942,1889
1934,1904,1843
1850,1918,1936
1857,1904,1899
1886,1870,1889
1871,1898,1946
1875,1902,1970
1931,1893,1820
1913,1904,1905
1919,1943,1938
1936,1934,1957
1874,1866,1877
1878,1904,1886
1906,1952,1973
1936,1936,1920
1904,1883,1859
1883,1885,1847
1874,1914,1934
1847,1921,1923
1874,1851,1849
1966,1895,1876
1914,1927,1967
1909,1958,1943
1891,1883,1815
1879,1877,1839
1887,1941,1936
1911,1927,1907
1893,1858,1799
1913,1883,1841
1877,1930,1954
1825,1893,1933
1871,1874,1863
1907,1877,1872
1909,1919,1931
1918,1887,1889
1906,1862,1824
1875,1900,1844
1874,1913,1959
1864,1904,1912
1856,1862,1771
1903,1871,1831
1972,1904,1966
1914,1911,1919
1856,1875,1814
1939,1861,1840
1787,1872,1895
1894,1910,1874
1920,1842,1790
1875,1856,1840
1942,1936,1901
1924,1943,1930
1910,1871,1803
1815,1834,1792
1807,1904,1954
1846,1922,1968
1929,1835,1823
1877,1845,1776
1855,1895,1859
1835,1877,1853
1870,1825,1791
1909,1823,1839
1853,1890,1920
1899,1905,1901
1857,1873,1813
1891,1856,1808
1838,1889,1890
1841,1871,1920
1890,1862,1855
1939,1865,1834
1907,1904,1881
1899,1859,1864
1927,1840,1729
1895,1855,1834
1871,1885,1965
1817,1877,1943
1897,1862,1843
1937,1873,1827
1872,1859,1829
1782,1855,1836
1904,1856,1807
1902,1850,1827
1880,1881,1914
1867,1889,1915
1918,1855,1829
1949,1834,1808
1875,1876,1891
1829,1883,1900
1821,1854,1831
1924,1868,1823
1982,1904,1921
1858,1887,1875
1835,1819,1815
1903,1840,1843
1867,1895,1904
1836,1872,1883
1817,1843,1845
1886,1840,1781
1866,1869,1839
1855,1858,1898
1886,1863,1852
1872,1860,1850
1921,1927,1958
1822,1854,1865
1789,1800,1773
1897,1836,1807
1845,1882,1915
1854,1881,1904
1825,1860,1829
1902,1847,1825
1883,1860,1857
1870,1859,1921
1834,1834,1839
1888,1869,1808
1872,1858,1850
1840,1867,1901
1837,1819,1829
1862,1833,1805
1870,1906,1907
1839,1866,1901
1863,1831,1822
1909,1854,1811
1917,1877,1904
1888,1869,1878
1845,1815,1809
1861,1831,1810
1904,1883,1899
1883,1872,1904
1846,1811,1801
1869,1828,1813
1877,1874,1893
1831,1886,1899
1967,1811,1715
1842,1844,1803
1792,1885,1946
1840,1871,1927
1857,1816,1814
1970,1860,1787
1887,1881,1868
1841,1885,1952
1829,1840,1867
1811,1823,1779
1830,1858,1872
1856,1866,1903
1868,1839,1812
1967,1875,1846
1907,1863,1872
1825,1857,1895
1817,1835,1852
1855,1835,1840
1882,1885,1883
1841,1877,1877
1803,1826,1834
1835,1841,1855
1909,1853,1856
1871,1892,1874
1734,1843,1827
1820,1808,1791
1803,1859,1840
1833,1873,1867
1853,1823,1795
1861,1861,1839
1821,1874,1900
1842,1860,1866
1807,1843,1856
1777,1825,1801
1770,1872,1858
1879,1859,1875
1795,1817,1842
1761,1834,1812
1776,1876,1874
1734,1882,1872
1648,1828,1795
1829,1818,1805
1712,1867,1869
1835,1909,1883
1842,1845,1802
1776,1818,1809
1776,1856,1918
1817,1849,1887
1821,1808,1793
1990,1808,1835
1919,1840,1859
1904,1839,1827
1940,1827,1802
2028,1829,1814
2083,1877,1898
2158,1843,1877
2139,1794,1781
2309,1828,1799
2323,1872,1866
2320,1838,1869
2338,1795,1854
2411,1776,1830
2406,1851,1857
2441,1855,1851
2513,1802,1779
2451,1791,1774
2506,1868,1890
2559,1857,1894
2526,1813,1776
2518,1818,1783
2691,1849,1847
2539,1888,1890
2603,1818,1789
2688,1827,1792
2619,1842,1877
2551,1851,1884
2545,1856,1842
2639,1837,1783
2559,1873,1863
2438,1851,1853
2310,1793,1774
2339,1842,1804
2321,1873,1868
2255,1882,1892
2199,1818,1796
2160,1822,1802
2170,1873,1872
2146,1859,1875
2096,1845,1842
2047,1843,1828
2034,1872,1889
2014,1863,1900
2000,1823,1815
2017,1840,1797
1975,1899,1879
1909,1879,1910
1904,1828,1839
1930,1836,1821
1941,1904,1879
1902,1883,1886
1905,1855,1858
1913,1849,1861
1840,1863,1863
1811,1901,1902
1856,1872,2226
1825,1834,2131
1797,1874,1859
1778,1897,1782
1724,1840,2000
1763,1799,1891
1811,1856,1797
1751,1872,1738
1664,1795,1741
1719,1810,1808
1703,1859,1840
1715,1871,1840
1759,1835,1834
1753,1851,1829
1710,1883,1831
1687,1878,1828
1719,1851,1827
1732,1858,1831
1759,1873,1829
1750,1914,1830
1738,1849,1829
1696,1841,1831
1691,1889,1829
1714,1904,1830
1680,1826,1831
1712,1837,1834
1751,1894,1829
1791,1903,1824
1707,1840,1827
1653,1846,1829
1660,1892,1831
1695,1903,1828
1734,1865,1872
1733,1843,1823
1713,1903,1793
1670,1892,1712
1648,1840,1597
1695,1840,1603
1715,1902,1875
1679,1895,2403
1669,1834,1863
1758,1859,1535
1819,1904,1626
1731,1904,1684
1616,1851,1657
1674,1856,1650
1757,1899,1726
1790,1904,1712
1745,1882,1600
1742,1853,1593
1761,1922,1725
1729,1895,1728
1751,1869,1669
1776,1866,1646
1766,1885,1723
1803,1894,1722
1744,1836,1655
1712,1840,1647
1728,1889,1712
1737,1902,1733
1782,1845,1674
1789,1863,1669
1798,1915,1723
1748,1879,1727
1766,1839,1681
1805,1875,1719
1777,1919,1754
1789,1888,1739
1746,1857,1680
1821,1847,1707
1840,1897,1791
1779,1903,1819
1751,1858,1717
1808,1850,1702
1774,1883,1777
1774,1906,1780
1802,1857,1696
1853,1868,1700
1856,1892,1731
1789,1881,1804
1749,1849,1754
1783,1845,1746
1779,1877,1780
1822,1890,1798
1813,1814,1710
1759,1841,1721
1779,1904,1851
1776,1910,1863
1791,1875,1766
1836,1851,1723
1877,1897,1827
1787,1869,1782
1738,1837,1705
1792,1854,1712
1854,1895,1809
1861,1901,1850
1804,1826,1785
1802,1845,1806
1811,1890,1837
1805,1890,1808
1814,1826,1728
1791,1828,1777
1786,1894,1862
1783,1886,1852
1781,1814,1722
1835,1839,1680
1828,1895,1859
1763,1893,1904
1774,1837,1783
1792,1808,1731
1817,1884,1807
1757,1894,1872
1759,1840,1811
1792,1846,1774
1826,1897,1827
1784,1897,1898
1747,1842,1846
1763,1830,1793
1776,1878,1844
1819,1907,1854
1837,1838,1778
1770,1834,1839
1759,1891,1885
1712,1937,1865
1737,1826,1776
1799,1817,1776
1823,1847,1871
1810,1872,1910
1762,1895,1822
1754,1899,1793
1729,1825,1840
1757,1836,1873
1770,1850,1821
1855,1885,1872
1865,1907,1947
1792,1851,1919
1680,1749,1798
1722,1827,1775
1803,1914,1895
1775,1847,1933
1757,1799,1822
1812,1808,1813
1808,1882,1901
1767,1879,1907
1743,1815,1808
1824,1849,1811
1850,1895,1871
1781,1894,1902
1808,1851,1882
1796,1821,1859
1775,1904,1904
1761,1935,1901
1798,1833,1803
1845,1856,1790
1804,1826,1910
1706,1866,1869
1744,1847,1827
1792,1839,1840
1783,1863,1881
1796,1892,1906
1806,1850,1823
1851,1872,1850
1819,1911,1953
1745,1876,1916
1716,1809,1757
1747,1808,1766
1755,1872,1879
1750,1855,1891
1787,1850,1840
1840,1842,1833
1798,1883,1906
1763,1881,1927
1763,1836,1840
1778,1830,1835
1791,1863,1894
1812,1885,1903
1887,1928,1840
1842,1821,1852
1802,1915,1919
1743,1793,1882
1753,1847,1795
1819,1837,1822
1888,1888,1902
1849,1872,1936
1818,1792,1860
1867,1842,1838
1831,1881,1902
1777,1919,1893
1788,1807,1792
1860,1840,1798
1895,1878,1920
1850,1842,1925
1863,1853,1839
1893,1806,1833
1842,1840,1890
1780,1891,1878
1821,1845,1811
1882,1786,1817
1875,1870,1901
1866,1889,1908
1894,1866,1873
1866,1825,1810
1804,1838,1872
1829,1868,1893
1857,1868,1845
1874,1850,1846
1857,1882,1906
1797,1872,1905
1856,1809,1866
1858,1851,1825
1855,1814,1851
1797,1966,1909
1793,1851,1850
1805,1810,1823
1830,1882,1904
1838,1908,1904
1815,1724,1833
1808,1872,1861
1808,1888,1904
1827,1876,1899
1835,1842,1887
1787,1702,1859
1750,1872,1857
1791,1896,1904
1807,1838,1808
1808,1818,1814
1761,1840,1882
1765,1859,1885
1794,1819,1811
1808,1837,1808
1783,1891,1927
1807,1895,1941
1845,1835,1880
1851,1803,1866
1814,1853,1893
1787,1901,1954
1775,1893,1858
1787,1824,1834
1795,1852,1886
1811,1876,1922
1870,1821,1819
1867,1843,1759
1821,1852,1919
1791,1889,1957
1803,1815,1834
1823,1856,1789
1815,1764,1904
1855,1823,1916
1847,1819,1836
1856,1881,1882
1899,1933,1962
1878,1903,1911
1795,1776,1774
1833,1820,1831
1825,1855,1911
1798,1872,1904
1766,1808,1773
1860,1803,1805
1893,1872,1924
1853,1898,1968
1836,1894,1859
1826,1872,1805
1857,1887,1877
1831,1902,1916
1842,1841,1855
1847,1837,1850
1834,1893,1914
1840,1883,1882
1857,1929,1808
1881,1862,1871
1838,1873,1947
1779,1859,1911
1792,1810,1808
1841,1856,1776
1840,1838,1885
1835,1838,1913
1862,1883,1839
1858,1851,1824
1802,1843,1898
1793,1890,1899
1837,1829,1824
1871,1853,1862
1856,1936,1927
1808,1758,1887
1809,1802,1822
1857,1842,1847
1905,1895,1931
1838,1873,1906
1821,1813,1808
1872,1821,1780
1847,1892,1904
1843,1887,1930
1858,1876,1855
1850,1822,1795
1833,1870,1891
1837,1898,1958
1872,1851,1835
1851,1815,1795
1834,1854,1867
1841,1911,1919
1851,1849,1841
1815,1808,1809
1831,1862,1884
1831,1885,1914
1840,1861,1840
1879,1863,1862
1871,1870,1924
1830,1848,1887
1869,1839,1853
1911,1857,1840
1894,1885,1901
1827,1891,1862
1840,1839,1803
1863,1825,1817
1878,1884,1909
1872,1897,1919
1897,1843,1798
1881,1834,1764
1861,1878,1920
1839,1879,1935
1855,1854,1809
1931,1851,1789
1920,1889,1894
1856,1900,1904
1873,1851,1840
1879,1851,1834
1915,1901,1894
1897,1886,1885
1886,1861,1831
1891,1824,1830
1834,1856,1890
1856,1885,1882
1897,1874,1838
1920,1856,1840
1883,1866,1917
1840,1875,1913
1856,1847,1841
1883,1859,1843
1902,1884,1907
1887,1868,1916
1877,1859,1843
1940,1897,1865
1909,1863,1903
1844,1853,1890
1860,1837,1818
1907,1856,1840
1889,1888,1891
1871,1897,1899
1887,1830,1781
1904,1826,1790
1861,1881,1905
1857,1887,1936
1853,1831,1827
1872,1831,1811
1917,1902,1910
1893,1907,1931
1939,1891,1881
1917,1842,1791
1863,1856,1848
1830,1855,1876
1849,1827,1825
1892,1845,1811
1905,1904,1903
1873,1869,1872
1870,1851,1808
1879,1842,1820
1885,1877,1895
1890,1904,1936
1849,1843,1831
1858,1826,1776
1882,1872,1883
1855,1887,1878
1845,1827,1776
1879,1820,1808
1899,1862,1872
1853,1883,1890
1807,1839,1803
1869,1851,1780
1879,1877,1855
1876,1862,1901
1836,1823,1839
1842,1827,1810
1863,1873,1866
1872,1888,1903
1870,1841,1817
1872,1826,1776
1895,1862,1847
1922,1872,1876
1902,1840,1814
1856,1840,1799
1843,1853,1837
1893,1886,1877
1931,1840,1801
1904,1810,1800
1918,1837,1849
1936,1883,1878
1923,1838,1788
1904,1823,1782
1920,1857,1863
1920,1854,1879
1952,1810,1795
1990,1826,1782
1953,1840,1857
1893,1842,1836
1899,1830,1771
1895,1826,1783
1929,1872,1892
1913,1870,1867
1914,1793,1731
1899,1829,1809
1858,1862,1867
1849,1856,1891
1894,1820,1813
1918,1823,1773
1891,1861,1851
1881,1873,1877
1852,1834,1779
1866,1813,1774
1840,1827,1808
1850,1846,1859
1846,1838,1830
1850,1824,1808
1843,1840,1840
1813,1827,1815
1823,1818,1808
1829,1811,1792
1815,1862,1872
1802,1845,1833
1808,1783,1753
1822,1805,1772
1848,1859,1888
1763,1853,1850
1771,1789,1743
1839,1818,1775
1813,1851,1841
1770,1817,1809
1812,1803,1781
1809,1807,1781
1746,1826,1819
1782,1851,1897
1810,1796,1792
1823,1809,1779
1765,1810,1778
1743,1825,1816
1766,1802,1753
1829,1803,1783
1815,1826,1787
1779,1826,1829
1760,1808,1808
1809,1825,1761
1843,1836,1856
1824,1840,1882
1792,1803,1759
1807,1778,1786
1826,1825,1832
1826,1867,1925
1843,1818,1749
1817,1776,1776
1808,1813,1815
1814,1839,1886
1814,1788,1776
1856,1803,1778
1826,1853,1855
1828,1841,1870
1840,1795,1814
1870,1791,1808
1856,1805,1809
1818,1812,1831
1829,1795,1771
1920,1850,1808
1895,1839,1804
1821,1808,1831
1842,1778,1770
1863,1797,1791
1865,1829,1808
1828,1842,1855
1854,1811,1796
1856,1795,1764
1883,1820,1863
1872,1813,1833
1831,1808,1775
1866,1824,1801
1929,1865,1840
1870,1837,1830
1819,1776,1777
1857,1783,1808
1863,1815,1855
1856,1834,1898
1862,1798,1777
1887,1792,1727
1883,1825,1852
1840,1840,1819
1857,1796,1830
1888,1771,1755
1900,1840,1856
1843,1838,1874
1842,1818,1835
1866,1785,1755
1921,1807,1872
1904,1855,1878
1837,1785,1776
1825,1757,1728
1868,1825,1823
1878,1827,1806
1833,1779,1733
1847,1776,1727
1854,1819,1832
1841,1831,1828
1881,1803,1744
1889,1815,1808
1825,1817,1823
1824,1815,1854
1903,1822,1757
1935,1811,1791
1859,1835,1830
1810,1808,1833
1835,1767,1740
1891,1840,1776
1882,1845,1867
1853,1822,1860
1866,1759,1691
1847,1779,1727
1838,1833,1808
1825,1840,1829
1840,1811,1799
1907,1811,1744
1863,1838,1822
1868,1840,1862
1901,1814,1815
1891,1797,1773
1891,1851,1843
1881,1842,1811
1835,1777,1729
1825,1795,1766
1835,1824,1795
1849,1828,1786
1879,1801,1776
1857,1776,1728
1905,1830,1797
1849,1839,1835
1862,1819,1668
1877,1809,1776
1927,1872,1874
1837,1829,1855
1851,1778,1763
1926,1799,1745
1893,1826,1808
1828,1829,1840
1817,1790,1781
1859,1792,1765
1888,1840,1856
1897,1854,1901
1869,1786,1777
1904,1790,1742
1889,1848,1845
1893,1846,1838
1866,1803,1742
1872,1786,1746
1926,1851,1861
1894,1829,1798
1883,1772,1750
1897,1791,1738
1885,1840,1886
1901,1883,1859
1907,1782,1759
1885,1761,1806
1920,1833,1865
1905,1873,1863
1819,1771,1745
1872,1779,1670
1942,1824,1808
1878,1833,1874
1843,1792,1774
1888,1803,1781
1927,1847,1888
1925,1845,1839
1884,1794,1779
1899,1799,1689
1904,1840,1843
1920,1843,1870
1929,1795,1761
1919,1792,1773
1923,1847,1859
1870,1825,1847
1889,1805,1745
1903,1793,1745
1873,1808,1790
1894,1854,1876
1904,1806,1782
1908,1778,1740
1900,1847,1824
1897,1878,1825
1879,1810,1776
1898,1803,1774
1913,1856,1898
1903,1867,1881
1914,1815,1854
1939,1862,1804
1881,1842,1823
1845,1830,1813
1872,1790,1827
1904,1807,1756
1923,1851,1841
1889,1845,1844
1871,1827,1791
1901,1826,1797
1919,1835,1842
1894,1839,1840
1939,1841,1824
1955,1822,1797
1910,1838,1840
1906,1857,1855
1901,1819,1791
1904,1798,1774
1884,1842,1830
1874,1856,1847
1888,1811,1794
1981,1793,1808
1925,1827,1872
1872,1856,1867
1879,1804,1767
1925,1819,1767
1943,1881,1883
1893,1855,1883
1904,1822,1825
1938,1815,1792
1904,1840,1815
1936,1857,1851
1877,1808,1822
1890,1807,1808
1910,1831,1839
1920,1843,1826
1918,1846,1806
1905,1813,1809
1902,1840,1835
1891,1845,1830
1923,1853,1806
1882,1812,1772
1846,1840,1842
1920,1861,1872
1966,1861,1829
1909,1815,1790
1850,1839,1814
1917,1872,1873
1914,1834,1808
1905,1835,1794
1890,1845,1847
1910,1872,1859
1924,1835,1791
1925,1785,1753
1831,1849,1856
1869,1881,1908
1947,1840,1813
1973,1863,1799
1904,1840,1824
1855,1854,1867
1862,1827,1792
1947,1825,1791
1934,1862,1840
1907,1873,1864
1907,1845,1811
1926,1824,1763
1877,1838,1835
1915,1852,1878
1967,1827,1804
1935,1847,1793
1957,1870,1860
1924,1872,1920
1859,1823,1795
1846,1816,1771
1941,1886,1873
1989,1885,1859
1904,1818,1796
1898,1808,1795
1872,1854,1856
1853,1881,1876
1911,1827,1808
1935,1827,1802
1959,1886,1877
1889,1879,1904
1849,1817,1790
1917,1818,1754
1927,1873,1841
1895,1867,1902
1919,1823,1838
1943,1840,1846
1882,1855,1855
1854,1842,1840
1893,1811,1787
1873,1845,1827
1935,1871,1904
1857,1883,1893
1845,1875,1851
1893,1829,1802
1887,1821,1829
1879,1852,1843
1827,1854,1840
1856,1877,1861
1892,1858,1870
1879,1869,1841
1814,1809,1822
1929,1829,1809
1889,1877,1881
1821,1888,1889
1852,1803,1819
1883,1808,1797
1863,1872,1872
1812,1899,1918
1883,1851,1860
1938,1853,1837
1893,1870,1840
1854,1874,1876
1847,1840,1840
1872,1826,1814
1914,1872,1900
1913,1879,1894
1883,1840,1813
1840,1846,1817
1883,1868,1875
1946,1897,1889
1963,1868,1840
1883,1826,1819
1889,1860,1830
1856,1863,1862
1878,1851,1836
1857,1842,1837
1863,1884,1887
1871,1892,1891
1953,1841,1808
1935,1818,1801
1871,1878,1886
1856,1883,1905
1851,1805,1781
1867,1823,1790
1921,1935,1920
1894,1904,1927
1840,1821,1846
1855,1796,1762
1875,1865,1838
1910,1904,1936
1907,1870,1897
1914,1856,1837
1869,1863,1854
1873,1856,1883
1888,1851,1854
1838,1823,1793
1946,1882,1847
1879,1903,1872
1835,1844,1850
1849,1855,1808
1969,1903,1856
1942,1872,1899
1847,1846,1872
1842,1840,1841
1926,1902,1927
1952,1915,1943
1943,1846,1835
1885,1826,1783
1930,1871,1867
1884,1897,1942
1924,1854,1856
2013,1825,1776
1966,1853,1838
1869,1909,1879
1785,1875,1866
1882,1872,1844
2000,1901,1850
1911,1873,1903
1946,1885,1883
1904,1855,1851
1842,1865,1872
1847,1885,1889
1917,1872,1855
1915,1840,1799
1927,1865,1871
1924,1874,1894
1872,1845,1821
1853,1851,1807
1951,1886,1893
1895,1887,1903
1923,1857,1856
1966,1841,1840
1888,1873,1862
1902,1923,1926
1895,1907,1905
1865,1840,1839
1926,1839,1855
1879,1858,1858
1956,1834,1840
1937,1847,1791
1904,1872,1870
1883,1885,1916
1839,1859,1865
1926,1856,1850
1926,1871,1890
1879,1873,1917
1901,1842,1845
1920,1855,1808
1904,1882,1837
1918,1936,1979
1903,1882,1915
1850,1818,1806
1834,1851,1840
1862,1874,1858
1878,1842,1817
1918,1843,1818
1947,1895,1898
1927,1911,1905
1840,1838,1830
1835,1840,1849
1869,1894,1934
1923,1897,1913
1889,1850,1819
1869,1833,1804
1887,1886,1893
1915,1914,1936
1888,1863,1813
1869,1851,1809
1890,1869,1889
1883,1904,1915
1872,1866,1840
1947,1872,1821
1925,1872,1863
1830,1872,1913
1840,1850,1874
1891,1875,1862
1920,1911,1913
1933,1896,1902
1887,1866,1841
1910,1853,1846
1856,1877,1879
1840,1894,1898
1846,1857,1826
1935,1858,1855
1917,1877,1889
1902,1903,1905
1927,1850,1807
1942,1877,1824
1872,1904,1906
1883,1926,1968
1870,1870,1858
1895,1851,1831
1934,1904,1910
1919,1919,1923
1896,1828,1843
1904,1827,1808
1875,1881,1867
1867,1907,1905
1855,1851,1829
1913,1854,1821
1956,1888,1891
1951,1902,1905
1878,1875,1845
1904,1859,1837
1923,1909,1943
1827,1890,1895
1843,1843,1811
1886,1853,1823
1917,1906,1934
1903,1904,1907
1917,1856,1826
1889,1846,1809
1871,1891,1907
1872,1919,1933
1885,1867,1840
1866,1832,1774
1889,1859,1839
1922,1914,1925
1887,1874,1870
1858,1836,1815
1883,1875,1877
1862,1889,1904
1872,1854,1827
1918,1840,1799
1930,1881,1864
1853,1858,1853
1835,1824,1809
1855,1837,1829
1891,1899,1921
1916,1903,1927
1968,1863,1865
1859,1831,1818
1794,1862,1869
1824,1890,1893
1910,1877,1855
1904,1846,1813
1901,1897,1925
1922,1882,1919
1863,1825,1766
1847,1847,1793
1886,1890,1924
1905,1935,1981
1856,1854,1838
1856,1823,1801
1883,1863,1904
1893,1919,1923
1874,1858,1837
1911,1839,1824
1910,1872,1861
1906,1900,1934
1891,1859,1863
1857,1819,1774
1888,1863,1834
1918,1937,1984
1836,1846,1838
1843,1840,1838
1881,1854,1883
1897,1876,1888
1881,1866,1856
1888,1856,1809
1940,1900,1895
1898,1873,1894
1829,1837,1851
1840,1838,1821
1935,1901,1877
1973,1933,1927
1887,1855,1878
1851,1822,1856
1826,1869,1854
1856,1879,1861
1859,1841,1811
1907,1878,1857
1892,1926,1916
1867,1872,1883
1942,1862,1869
1948,1869,1826
1808,1857,1814
1786,1857,1936
1823,1814,1863
1844,1834,1777
1868,1920,1898
1869,1897,1958
1891,1844,1862
1909,1857,1834
1914,1893,1887
1873,1872,1890
1878,1810,1759
1887,1840,1791
1860,1919,1910
1836,1911,1936
1879,1884,1877
1913,1860,1774
1841,1813,1808
1798,1840,1900
1873,1856,1861
1920,1863,1842
1920,1903,1892
1942,1896,1895
1919,1865,1797
1824,1840,1743
1817,1808,1874
1856,1822,1941
1850,1853,1826
1872,1840,1805
1875,1807,1850
1890,1872,1895
1879,1880,1857
1857,1836,1798
1870,1823,1879
1876,1917,1903
1884,1932,1854
1915,1890,1835
1915,1853,1852
1910,1867,1870
1904,1834,1770
1882,1847,1821
1868,1906,1926
1842,1879,1915
1842,1825,1818
1875,1813,1786
1877,1874,1859
1906,1918,1955
1872,1865,1866
1873,1840,1808
1867,1872,1843
1850,1876,1893
1900,1907,1857
1895,1873,1826
1883,1855,1840
1872,1889,1895
1842,1873,1855
1869,1869,1835
1858,1911,1862
1872,1922,1889
1842,1817,1824
1885,1815,1808
1855,1851,1867
1841,1914,1904
1843,1869,1826
1899,1847,1865
1904,1925,1905
1863,1926,1942
1887,1853,1867
1965,1863,1834
1889,1817,1838
1818,1893,1857
1796,1841,1789
1836,1834,1814
1895,1904,1909
1882,1904,1931
1902,1862,1862
1885,1838,1821
1856,1852,1862
1872,1890,1918
1811,1815,1820
1852,1859,1789
1880,1850,1886
1888,1923,1941
1857,1809,1850
1871,1807,1766
1874,1837,1815
1875,1932,1889
1869,1861,1831
1860,1889,1839
1834,1877,1875
1819,1861,1875
1838,1871,1826
1887,1861,1838
1853,1840,1866
1853,1904,1920
1841,1877,1854
1881,1871,1836
1904,1904,1869
1909,1844,1931
1879,1920,1856
1834,1860,1778
1853,1853,1839
1856,1903,1895
1839,1853,1827
1889,1851,1819
1883,1875,1887
1890,1919,1936
1899,1861,1820
1907,1839,1810
1869,1867,1840
1845,1895,1866
1847,1837,1855
1925,1717,1863
1904,1851,1843
1872,1897,1893
1841,1786,1856
1862,1850,1819
1921,1777,1851
1888,1872,1841
1828,1882,1840
1837,1904,1847
1894,1779,1893
1845,1870,1898
1834,1847,1813
1879,1852,1773
1937,1879,1870
1885,1923,1950
1857,1894,1890
1857,1861,1775
1855,1869,1814
1854,1862,1859
1915,1857,1808
1846,1843,1791
1828,1902,1867
1838,1917,1936
1877,1863,1872
1854,1857,1815
1830,1889,1853
1869,1875,1885
1857,1905,1840
1870,1827,1786
1879,1884,1878
1850,1884,1930
1857,1914,1865
1855,1872,1801
1895,1883,1857
1901,1877,1872
1819,1835,1789
1850,1831,1773
1859,1843,1859
1837,1872,1883
1820,1808,1776
1861,1830,1825
1856,1863,1886
1869,1889,1895
1851,1867,1835
1865,1868,1840
1846,1856,1863
1866,1951,1907
1870,1840,1813
1875,1842,1804
1872,1941,1894
1862,1873,1867
1836,1826,1793
1856,1825,1783
1872,1893,1881
1872,1930,1935
1857,1854,1825
1868,1841,1808
1863,1872,1883
1834,1879,1909
1835,1823,1808
1870,1818,1764
1869,1872,1858
1856,1917,1915
1883,1927,1842
1901,1857,1814
1859,1855,1861
1791,1822,1869
1843,1811,1808
1943,1843,1820
1869,1870,1835
1865,1938,1904
1853,1862,1826
1872,1853,1813
1861,1829,1846
1830,1848,1872
1829,1917,1837
1882,1814,1761
1840,1840,1847
1882,1897,1919
1849,1857,1842
1875,1840,1803
1869,1894,1853
1813,1889,1898
1828,1829,1840
1869,1808,1779
1902,1873,1874
1856,1903,1892
1871,1856,1791
1873,1847,1801
1872,1883,1893
1827,1895,1881
1822,1840,1802
1856,1834,1798
1852,1863,1871
1887,1889,1907
1871,1856,1826
1841,1810,1775
1847,1870,1842
1872,1891,1910
1887,1851,1856
1861,1823,1815
1874,1868,1836
1869,1886,1888
1847,1858,1829
1852,1842,1792
1872,1856,1854
1895,1874,1897
1906,1835,1855
1877,1840,1776
1846,1856,1792
1824,1866,1875
1857,1859,1848
1859,1821,1809
1881,1853,1840
1889,1875,1898
1856,1833,1835
1840,1809,1782
1850,1861,1872
1846,1884,1936
1866,1856,1849
1933,1866,1822
1878,1846,1841
1841,1840,1868
1847,1837,1852
1894,1843,1802
1879,1853,1834
1936,1890,1905
1872,1831,1823
1824,1838,1767
1838,1840,1849
1831,1872,1891
1803,1837,1812
1826,1823,1786
1872,1855,1859
1875,1856,1840
1860,1856,1855
1857,1842,1814
1891,1871,1859
1894,1872,1885
1849,1814,1817
1822,1826,1808
1838,1883,1851
1840,1872,1860
1839,1843,1850
1844,1821,1803
1840,1842,1856
1840,1872,1867
1838,1839,1791
1899,1860,1789
1891,1901,1876
1841,1885,1899
1829,1854,1808
1839,1819,1773
1847,1840,1839
1894,1882,1880
1872,1855,1835
1872,1822,1787
1872,1845,1831
1895,1877,1835
1835,1823,1761
1855,1822,1790
1883,1852,1853
1857,1872,1872
1847,1856,1817
1878,1819,1792
1963,1854,1857
1848,1855,1862
1853,1841,1818
1863,1816,1783
1902,1857,1876
1879,1858,1851
1827,1818,1787
1876,1815,1778
1883,1847,1835
1843,1866,1831
1829,1824,1779
1898,1840,1788
1902,1881,1859
1849,1863,1871
1839,1815,1795
1903,1823,1758
1878,1862,1849
1847,1883,1889
1838,1805,1779
1853,1802,1770
1836,1842,1831
1867,1899,1911
1891,1836,1766
1842,1810,1745
1849,1843,1856
1810,1858,1865
1808,1828,1809
1843,1824,1774
1899,1870,1841
1892,1878,1891
