1917,1842,1860
1838,1883,1968
1828,1818,1889
1918,1840,1798
1954,1877,1823
1898,1889,1930
1872,1857,1881
1861,1859,1797
1884,1882,1872
1887,1889,1927
1923,1921,1863
1903,1837,1787
1916,1889,1892
1904,1877,1947
1906,1840,1871
1907,1824,1780
1998,1881,1848
1906,1890,1890
1905,1863,1902
1884,1802,1810
1885,1839,1815
1906,1879,1901
1871,1843,1861
1915,1879,1835
1943,1905,1897
1940,1892,1910
1909,1824,1835
1921,1801,1773
1890,1871,1889
1869,1916,1963
1872,1872,1867
1957,1819,1783
1934,1791,1853
1888,1875,1897
1856,1859,1846
1891,1844,1796
1903,1845,1844
1873,1875,1915
1877,1771,1877
1902,1827,1774
1951,1936,1883
1906,1952,1947
1861,1827,1870
1870,1746,1808
1926,1889,1859
1911,1904,1885
1916,1845,1904
1927,1840,1778
1919,1875,1858
1856,1872,1899
1854,1856,1865
1846,1823,1813
1877,1854,1862
1879,1902,1921
1873,1862,1849
1919,1861,1766
1917,1930,1876
1821,1945,1921
1818,1859,1831
1895,1811,1819
1936,1901,1900
1938,1936,1934
1904,1891,1898
1840,1801,1803
1822,1851,1791
1843,1883,1872
1840,1813,1854
1881,1876,1837
1887,1851,1885
1847,1877,1872
1879,1887,1872
1898,1859,1840
1904,1938,1872
1883,1927,1911
1861,1845,1819
1887,1818,1808
1949,1852,1867
1872,1923,1904
1843,1873,1866
1904,1866,1840
1856,1847,1846
1823,1894,1883
1887,1840,1853
1912,1861,1795
1927,1893,1871
1886,1924,1926
1840,1861,1862
1872,1824,1808
1922,1855,1840
1899,1933,1921
1846,1810,1863
1887,1821,1809
1920,1866,1883
1913,1921,1931
1870,1910,1886
1883,1893,1822
1955,1872,1859
1885,1877,1915
1856,1845,1873
1890,1842,1803
1939,1882,1846
1885,1875,1883
1872,1815,1808
1885,1859,1808
1886,1849,1872
1902,1926,1926
1898,1869,1855
1911,1821,1763
1871,1851,1837
1849,1893,1923
1889,1862,1875
1905,1858,1821
1905,1878,1838
1866,1863,1839
1844,1858,1844
1866,1851,1827
1937,1850,1847
1925,1914,1910
1899,1892,1846
1899,1856,1808
1889,1856,1861
1850,1878,1875
1856,1845,1827
1861,1851,1832
1900,1889,1901
1861,1903,1924
1872,1871,1859
1921,1871,1811
1924,1874,1818
1862,1895,1860
1811,1851,1831
1881,1838,1796
1903,1881,1867
1917,1900,1925
1913,1875,1857
1899,1842,1783
1936,1914,1861
1841,1878,1905
1826,1823,1818
1854,1820,1791
1925,1904,1833
1906,1920,1923
1878,1881,1910
1869,1868,1832
1829,1853,1807
1824,1863,1850
1853,1851,1797
1901,1854,1808
1952,1901,1911
1893,1894,1863
1904,1872,1822
1899,1875,1854
1847,1888,1863
1840,1905,1889
1862,1856,1835
1904,1829,1776
1937,1865,1854
1914,1915,1908
1833,1861,1831
1835,1837,1787
1920,1882,1865
1855,1875,1909
1818,1853,1798
1862,1830,1746
1902,1851,1833
1914,1900,1931
1883,1873,1863
1876,1850,1785
1887,1863,1856
1889,1883,1904
1856,1852,1845
1853,1869,1805
1848,1873,1840
1865,1886,1921
1878,1883,1875
1968,1873,1798
1862,1829,1802
1824,1857,1888
1854,1854,1856
1901,1856,1782
1921,1885,1815
1889,1879,1863
1856,1827,1799
1903,1824,1789
1881,1860,1871
1876,1921,1943
1843,1862,1859
1873,1872,1815
1893,1878,1856
1901,1899,1907
1883,1856,1847
1828,1809,1750
1850,1851,1802
1857,1902,1901
1885,1904,1872
1936,1870,1808
1885,1872,1819
1870,1882,1857
1889,1852,1797
1874,1846,1782
1859,1867,1859
1866,1899,1901
1872,1902,1867
1913,1858,1801
1913,1866,1859
1840,1869,1911
1815,1843,1808
1893,1870,1792
1920,1900,1856
1871,1898,1910
1863,1829,1836
1909,1804,1764
1885,1889,1850
1866,1920,1895
1829,1889,1840
1817,1820,1748
1872,1870,1835
1872,1950,1919
1856,1891,1877
1830,1811,1797
1869,1856,1840
1878,1878,1890
1875,1872,1859
1915,1858,1808
1908,1874,1857
1872,1879,1904
1840,1872,1856
1850,1819,1775
1905,1867,1853
1919,1904,1893
1872,1872,1821
1872,1856,1808
1905,1889,1891
1866,1920,1927
1823,1851,1827
1837,1808,1747
1851,1853,1808
1873,1921,1909
1899,1887,1891
1870,1815,1782
1857,1849,1826
1858,1894,1891
1841,1857,1811
1882,1859,1775
1903,1889,1898
1840,1880,1912
1834,1866,1879
1875,1859,1840
1872,1865,1818
1872,1897,1891
1867,1883,1866
1889,1867,1823
1867,1843,1831
1815,1851,1869
1845,1842,1795
1887,1831,1824
1868,1872,1861
1849,1886,1904
1847,1867,1834
1886,1854,1759
1907,1891,1852
1881,1897,1969
1852,1857,1855
1875,1833,1807
1840,1858,1910
1858,1878,1874
1883,1888,1840
1906,1856,1826
1905,1872,1861
1840,1883,1909
1806,1851,1819
1846,1835,1795
1930,1915,1918
1871,1899,1898
1824,1856,1854
1845,1835,1805
1872,1842,1840
1910,1872,1821
1903,1879,1863
1882,1858,1766
1831,1856,1856
1836,1898,1963
1841,1866,1842
1918,1893,1776
1903,1856,1816
1818,1859,1867
1799,1856,1840
1856,1840,1840
1955,1905,1872
1920,1897,1870
1805,1850,1871
1794,1814,1812
1860,1859,1872
1907,1899,1907
1878,1878,1859
1897,1861,1829
1875,1858,1885
1904,1899,1990
1854,1872,1808
1825,1845,1797
1822,1866,1814
1826,1869,1872
1841,1857,1823
1893,1857,1819
1904,1891,1853
1877,1902,1891
1853,1889,1856
1870,1845,1773
1847,1850,1815
1877,1889,1903
1840,1865,1839
1806,1843,1778
1827,1866,1825
1893,1906,1851
1898,1879,1836
1850,1826,1838
1833,1855,1850
1824,1905,1882
1875,1904,1878
1880,1821,1841
1867,1844,1821
1902,1898,1930
1811,1859,1825
1871,1818,1731
1869,1861,1827
1846,1907,1888
1854,1879,1899
1814,1842,1777
1819,1830,1810
1825,1904,1927
1875,1902,1903
1877,1835,1802
1872,1853,1799
1827,1871,1854
1783,1862,1865
1826,1827,1751
1895,1853,1869
1900,1886,1858
1805,1842,1813
1808,1840,1789
1840,1874,1841
1871,1890,1931
1872,1855,1859
1869,1839,1789
1891,1875,1865
1897,1905,1890
1792,1808,1825
1786,1808,1773
1842,1873,1845
1861,1897,1876
1907,1851,1869
1859,1831,1782
1874,1869,1829
1872,1867,1887
1859,1854,1883
1857,1847,1872
1846,1845,1823
1933,1904,1878
1879,1837,1827
1840,1831,1835
1835,1866,1851
1840,1877,1872
1856,1849,1830
1883,1807,1771
1843,1851,1847
1823,1876,1907
1805,1843,1841
1851,1837,1789
1895,1878,1821
1894,1889,1953
1854,1830,1813
1862,1829,1773
1858,1871,1830
1839,1879,1889
1808,1859,1887
1871,1842,1794
1955,1871,1861
1867,1840,1823
1790,1792,1837
1805,1806,1869
1857,1874,1909
1866,1892,1919
1869,1851,1807
1853,1831,1750
1925,1862,1851
1927,1891,1893
1801,1815,1835
1843,1827,1877
1878,1872,1863
1866,1868,1808
1876,1851,1890
1936,1855,1810
1917,1869,1867
1856,1859,1939
1851,1835,1935
1885,1837,1875
1917,1840,1821
1902,1862,2867
1938,1857,2657
1983,1875,1916
1971,1857,1655
1924,1860,1945
1890,1840,1955
1951,1851,1847
1969,1886,1802
1939,1885,1877
1909,1859,1870
1941,1823,1937
1951,1840,1946
1921,1873,1872
1907,1855,1805
1908,1829,1698
1968,1884,1842
1955,1909,1965
1941,1875,1872
1981,1835,1807
1955,1862,1806
1930,1867,1815
1963,1845,1803
1953,1835,1856
1946,1878,1837
1953,1896,1862
1917,1841,1830
1901,1831,1828
1936,1867,1840
1913,1881,1821
1905,1866,1827
1930,1842,1830
1948,1857,1829
1968,1920,1830
1940,1871,1829
1890,1809,1831
1914,1846,1830
1920,1876,1829
1909,1879,1826
1922,1847,1828
1977,1894,1835
1901,1878,1831
1841,1840,1827
1872,1824,1831
1902,1872,1829
1895,1901,1827
1883,1856,1829
1915,1858,1829
1921,1872,1828
1859,1875,1825
1839,1863,1746
1879,1840,1658
1919,1842,1661
1898,1891,1829
1836,1863,1810
1861,1861,1734
1939,1903,1776
1887,1916,1808
1830,1867,1744
1823,1834,1703
1872,1875,1808
1846,1893,1827
1796,1829,1712
1793,1845,1664
1877,1874,1744
1915,1919,1862
1815,1841,1776
1817,1808,1702
1856,1857,1737
1777,1895,1801
1872,1853,1771
1970,1846,1776
1926,1889,1845
1840,1893,1833
1842,1855,1747
1905,1846,1758
1884,1883,1806
1887,1905,1831
1872,1867,1759
1845,1825,1749
1881,1873,1843
1894,1902,1902
1851,1888,1808
1835,1839,1743
1837,1861,1795
1893,1885,1810
1904,1866,1801
1888,1865,1798
1881,1893,1836
1845,1900,1858
1849,1867,1803
1856,1821,1760
1898,1863,1828
1942,1908,1915
1846,1844,1811
1821,1840,1718
1845,1872,1794
1853,1933,1854
1888,1866,1830
1863,1805,1767
1823,1835,1808
1803,1859,1851
1797,1839,1789
1855,1829,1771
1880,1874,1839
1850,1874,1893
1828,1874,1850
1835,1847,1753
1909,1882,1831
1846,1899,1875
1785,1840,1801
1839,1811,1751
1818,1841,1808
1751,1856,1873
1748,1838,1846
1873,1831,1818
1863,1845,1815
1826,1868,1844
1815,1839,1853
1876,1808,1809
1811,1855,1829
1811,1893,1874
1856,1844,1813
1840,1804,1715
1834,1811,1776
1865,1843,1884
1841,1845,1854
1919,1807,1790
1898,1854,1814
1771,1847,1878
1808,1831,1792
1788,1779,1756
1765,1777,1819
1776,1813,1815
1810,1824,1773
1857,1808,1826
1802,1827,1842
1776,1840,1853
1811,1807,2000
1856,1774,1845
1827,1824,1929
1829,1839,1751
1788,1786,1765
1821,1747,1817
1830,1774,1838
1814,1809,1860
1680,1793,1859
1718,1758,1811
1839,1797,1809
1807,1849,1825
1872,1826,1825
1850,1766,1829
1977,1808,1826
1834,1838,1825
1776,1786,1826
1789,1755,1830
1872,1792,1828
1894,1839,1827
1856,1822,1825
1835,1727,1825
1798,1723,1827
1810,1807,1826
1827,1808,1830
1870,1809,1829
1972,1819,1826
1936,1813,1829
1769,1785,1824
1776,1728,1824
1905,1790,1831
1913,1840,1829
1791,1783,1827
1827,1753,1807
1968,1787,1920
1857,1791,1993
1875,1778,1909
1933,1753,1851
1798,1770,1878
1947,1808,1944
1857,1796,1891
1920,1763,1813
2010,1785,1892
1927,1798,1905
1913,1763,1859
1903,1735,1783
1936,1807,1867
1887,1803,1923
1923,1758,1867
1968,1755,1856
1979,1778,1856
1937,1811,1879
1907,1753,1787
1939,1744,1776
1999,1775,1901
2025,1827,1905
1986,1770,1773
2046,1731,1789
1883,1749,1856
1931,1790,1909
1978,1789,1845
2014,1755,1808
2032,1788,1840
2094,1808,1859
2017,1741,1843
1936,1725,1744
2017,1786,1808
2031,1827,1881
2017,1769,1810
2035,1717,1748
2068,1729,1739
2044,1789,1858
2011,1781,1838
2109,1702,1722
2096,1744,1786
2078,1792,1885
2013,1778,1835
2103,1750,1735
2151,1761,1770
2143,1788,1846
2039,1739,1776
2153,1712,1711
2145,1735,1764
2114,1759,1823
2098,1756,1785
2168,1745,1731
2168,1742,1795
2132,1749,1872
2133,1719,1778
2277,1760,2200
2190,1711,2061
2037,1684,1815
2047,1680,1850
2115,1670,1858
2143,1681,1805
2194,1686,1660
2202,1671,1744
2128,1664,1809
2161,1680,1840
2185,1699,1838
2177,1663,1832
2229,1667,1831
2210,1703,1834
2197,1719,1822
2219,1712,1823
2261,1664,1827
2261,1670,1833
2235,1699,1829
2235,1682,1825
2285,1681,1829
2298,1731,1831
2268,1759,1835
2267,1701,1830
2321,1675,1826
2335,1725,1831
2346,1758,1828
2276,1710,1829
2239,1655,1830
2279,1703,1831
2352,1744,1827
2351,1749,1826
2306,1685,1830
2309,1669,1839
2371,1728,1843
2403,1744,1746
2368,1703,1535
2375,1695,1565
2330,1759,1622
2297,1743,1535
2379,1682,1648
2443,1741,1785
2387,1775,1725
2320,1695,1530
2349,1664,1430
2412,1726,1486
2427,1751,1602
2405,1734,1499
2396,1680,1412
2389,1735,1518
2427,1786,1614
2416,1712,1517
2416,1715,1491
2438,1728,1533
2409,1750,1601
2391,1712,1588
2448,1689,1571
2439,1738,1603
2443,1774,1648
2437,1725,1534
2511,1686,1459
2473,1744,1535
2437,1786,1779
2422,1733,2047
2477,1712,1771
2515,1744,1607
2450,1744,1535
2452,1714,1876
2481,1695,1894
2551,1732,1858
2480,1744,1901
2437,1719,1840
2462,1695,1746
2501,1729,1783
2512,1756,1831
2543,1759,1840
2531,1712,1830
2511,1743,1826
2459,1731,1835
2467,1717,1823
2523,1728,1826
2543,1714,1827
2519,1744,1833
2512,1757,1826
2511,1712,1828
2504,1717,1830
2515,1758,1831
2497,1750,1822
2512,1712,1830
2559,1767,1831
2546,1776,1829
2550,1749,1829
2544,1721,1829
2534,1738,1835
2518,1744,1827
2559,1737,1826
2529,1722,1831
2535,1762,1831
2533,1791,1827
2529,1740,1831
2544,1701,1902
2580,1729,1985
2582,1773,2054
2497,1735,1999
2513,1737,1931
2599,1745,1957
2608,1797,2019
2491,1729,1921
2496,1712,1867
2543,1750,1927
2531,1779,1983
2518,1739,1927
2544,1735,1862
2544,1748,1919
2527,1763,1959
2506,1750,1904
2516,1724,1863
2534,1763,1927
2490,1777,1923
2497,1726,1855
2546,1739,1874
2584,1797,1904
2496,1776,1883
2498,1723,1867
2585,1696,1804
2558,1732,1840
2498,1796,1906
2453,1770,1882
2454,1689,1826
2537,1755,1875
2531,1809,1909
2519,1757,1805
2455,1698,1773
2483,1745,1849
2512,1787,1943
2492,1751,1854
2485,1716,1789
2480,1721,1792
2513,1769,1882
2493,1762,1821
2527,1742,1729
2475,1738,1801
2441,1759,1938
2435,1739,1869
2466,1727,1743
2496,1750,1777
2511,1779,1853
2435,1735,1793
2437,1666,1717
2489,1744,1781
2495,1814,1907
2389,1727,1794
2418,1719,1744
2480,1759,1814
2476,1738,1815
2518,1745,1874
2480,1730,2517
2413,1794,2133
2393,1749,1794
2410,1719,1681
2406,1728,1703
2443,1776,1774
2467,1751,1872
2422,1755,1749
2387,1730,1663
2422,1763,2068
2415,1834,2663
2386,1758,2373
2367,1677,1760
2416,1759,1698
2405,1751,1770
2375,1739,1793
2395,1703,1823
2416,1744,2055
2351,1767,1773
2298,1793,1729
2356,1769,1793
2399,1742,1838
2323,1710,1837
2321,1760,1831
2355,1714,1825
2366,1750,1829
2352,1782,1890
2331,1776,1729
2341,1719,1774
2313,1739,1820
2294,1806,1840
2335,1761,1830
2393,1745,1828
2346,1775,1825
2308,1829,1830
2322,1797,1825
2301,1714,1826
2347,1776,1827
2299,1801,1827
2310,1771,1825
2294,1744,1826
2320,1802,1827
2334,1843,1831
2314,1759,2386
2290,1787,2559
2319,1811,1919
2261,1799,1699
2227,1744,1753
2251,1795,1826
2274,1739,1843
2268,1869,1840
2271,1807,1831
2283,1808,1829
2316,1783,1830
2322,1831,1827
2247,1773,1826
2219,1714,1833
2210,1837,1830
2232,1818,1829
2208,1767,1828
2249,1823,1828
2277,1793,1831
2287,1806,1828
2221,1813,1827
2197,1718,1827
2192,1793,1829
2192,1852,1829
2199,1815,1826
2250,1770,1828
2255,1797,1829
2209,1829,1827
2167,1781,1826
2170,1778,1831
2230,1842,1829
2246,1873,1833
2184,1808,1831
2141,1782,1825
2128,1808,1834
2162,1847,1851
2177,1808,1801
2166,1822,1739
2160,1828,1808
2203,1970,1867
2143,1851,1810
2158,1782,1727
2143,1877,1791
2102,1835,1805
2125,1889,1791
2177,1930,1731
2186,1842,1807
2107,1840,1829
2087,1844,1786
2106,1783,1744
2126,1861,1801
2157,1910,1865
2105,1858,1779
2118,1793,1670
2133,1808,1749
2079,1869,1854
2090,1872,1831
2081,1776,1731
2099,1799,1763
2031,1843,1769
2015,1798,1735
2070,1840,1755
2099,1829,1805
2070,1838,1834
2029,1837,1780
2073,1826,1724
2118,1875,1729
2013,1879,1742
2039,1760,1791
2043,1703,1728
2061,1749,1744
2039,1872,1776
2014,1766,1770
2032,1760,1723
2018,1886,1735
2030,1776,1806
2034,1831,1765
2058,1779,1702
2003,1776,1739
1954,1856,1774
1932,1780,1723
1987,1840,1712
2006,1794,1759
2004,1803,1776
1994,1744,1681
2005,1787,1654
1902,1706,1708
1904,1783,1758
1894,1747,1689
1904,1745,1621
1969,1763,1714
1966,1872,1771
1872,1753,1701
1859,1706,1665
1872,1774,1699
1903,1838,1754
1875,1766,1673
1902,1701,1648
1911,1798,1693
1919,1821,1744
1881,1759,1712
1875,1808,1712
1886,1751,1744
1909,1838,1786
1889,1791,1739
1879,1727,1647
1855,1663,1685
1831,1802,1812
1811,1795,1728
1841,1729,1648
1879,1782,1735
1840,1807,1788
1814,1795,1743
1792,1776,1686
1831,1819,1728
1871,1856,1790
1821,1807,1747
1840,1814,1765
1882,1883,1808
1839,1843,1822
1799,1791,1763
1778,1791,1722
1870,1840,1827
1862,1847,1825
1808,1853,1766
1820,1851,1744
1841,1861,1792
1856,1901,1891
1855,1875,1852
1840,1840,1773
1866,1895,1843
1829,1907,1871
1836,1872,1824
1835,1849,1783
1852,1885,1842
1872,1935,1899
1870,1905,1862
1840,1854,1805
1806,1879,1826
1840,1946,1873
1842,1911,1872
1799,1878,1785
1808,1904,1837
1804,1937,1905
1802,1903,1835
1863,1856,1747
1847,1887,1829
1807,1917,1927
1757,1875,1883
1793,1877,1818
1841,1925,1871
1781,1959,1927
1770,1888,1883
1793,1885,1847
1795,1936,1925
1787,1951,1952
1776,1927,1921
1795,1898,1893
1776,1899,2427
1711,1890,1697
1695,1841,1718
1680,1810,1587
1709,1850,1775
1712,1899,1950
1731,1878,1839
1717,1840,1729
1717,1849,1789
1718,1885,1831
1703,1851,1839
1744,1858,1834
1750,1903,1830
1711,1920,1830
1702,1904,1827
1742,1878,1827
1733,1915,1833
1681,1909,1834
1680,1893,1829
1803,1875,1831
1713,1887,1831
1687,1939,1830
1681,1927,1827
1664,1866,1827
1713,1909,1830
1722,1968,1830
1682,1915,1827
1728,1917,1827
1753,1920,1831
1755,1974,1827
1679,1936,1825
1675,1897,1827
1679,1929,1775
1652,1938,1487
1677,1940,1679
1729,1911,1840
1742,1906,1867
1719,1943,1840
1645,1929,1822
1651,1894,1823
1715,1938,1829
1693,1966,1833
1682,1937,1827
1655,1891,1834
1658,1909,1827
1671,1942,1828
1727,1961,1827
1698,1895,1829
1682,1951,1830
1689,1991,1827
1657,1936,1831
1685,1906,1828
1728,1945,1827
1702,1975,1827
1642,1938,1830
1642,1920,1829
1676,1936,1826
1681,1974,1827
1723,1947,1829
1746,1935,1831
1705,1963,1836
1648,1971,1830
1632,1967,1829
1669,1937,1830
1703,1965,1834
1658,1950,1827
1655,1942,1823
1750,1931,2555
1679,1948,2337
1602,1954,2004
1615,1949,2741
1669,1925,2453
1727,1939,1945
1709,1952,1793
1648,1935,1761
1648,1891,1776
1686,1933,1835
1685,1995,1925
1701,2018,1908
1638,1904,1767
1616,1885,1776
1659,1942,1839
1675,1922,1813
1698,1932,1778
1685,1978,1843
1664,1966,1890
1635,1937,1884
1651,1906,2107
1677,1920,3921
1710,1951,2677
1686,1933,1760
1649,1924,1654
1645,1947,1854
1628,1958,2237
1622,1907,2471
1647,1909,1982
1650,1922,1747
1661,1970,1760
1616,1918,1817
1663,1879,1840
1689,1900,1840
1697,1935,1830
1613,1917,1827
1646,1920,1835
1674,1907,2254
1533,1782,4095
1002,1327,1310
900,1210,161
1168,1351,1683
1185,1391,3616
937,1189,3126
511,803,1615
385,695,0
692,956,835
1008,1168,1922
1219,1324,2082
1296,1420,1904
1273,1476,1859
1275,1498,1817
1360,1532,1810
1463,1646,1842
1509,1730,1839
1474,1697,1842
1481,1694,1797
1520,1749,1861
1527,1790,1830
1584,1788,1802
1616,1797,1825
1646,1860,1893
1591,1857,1847
1575,1865,1725
1617,1862,1648
1668,1927,1695
1646,1936,1791
1639,1935,1729
1675,1915,1641
1728,1965,1671
1699,1975,1693
1673,1923,1569
1722,1967,1535
1744,1993,1617
1702,2029,1671
1650,1981,1637
1690,1947,1584
1763,1995,1737
1774,2031,1762
1697,2005,1586
1703,1966,1507
1741,2019,1495
1729,2039,1585
1730,2064,1616
1731,2032,1488
1757,2021,1520
1797,2041,1571
1753,2032,1522
1762,2023,1488
1728,2027,1507
1727,2073,1590
1766,2047,1510
1840,2032,1452
1773,2064,1535
1711,2055,1554
1730,2032,1469
1760,2007,1470
1753,2063,1535
1741,2084,1604
1786,2073,1535
1800,2047,1515
1798,2064,1819
1741,2043,1911
1719,2031,1874
1747,2019,1791
1783,2078,1811
1725,2066,1856
1711,2011,1819
1789,2017,1822
1882,2083,1811
1727,2059,1845
1703,2026,1814
1784,2022,1827
1786,2032,1842
1792,2077,1834
1696,2005,1854
1729,1990,1805
1776,2037,1827
1802,2093,1834
1756,2023,1831
1766,1990,1836
1821,2007,1825
1774,2065,1827
1743,2046,1825
1738,1997,1798
1770,2054,1827
1776,2054,1831
1808,1983,1835
1767,1973,1850
1744,2027,1820
1757,2063,1849
1758,2019,1747
1758,1973,1904
1755,2000,1814
1775,2061,1893
1787,2016,1883
1811,1978,1823
1779,1975,1834
1799,2064,2001
1744,1998,1896
1766,1966,1697
1861,2010,1831
1797,2001,1842
1729,1968,1815
1775,1967,1797
1775,2001,1816
1757,2032,1914
1747,2015,1886
1767,1966,1775
1805,1984,1770
1815,2031,1879
1808,1985,1842
1808,1953,1773
1824,1995,1767
1756,1989,1852
1761,1983,1775
1822,1951,1747
1789,1970,1856
1745,1983,1809
1758,1936,1717
1777,1939,1679
1790,1958,1789
1745,1959,1881
1747,1957,1787
1773,1936,1763
1808,1967,1830
1808,1956,1830
1782,1936,1803
1744,1906,1729
1762,1936,1750
1767,1970,1845
1780,1930,1756
1780,1891,1697
1718,1906,1701
1712,1953,1821
1749,1925,1812
1798,1903,1738
1823,1931,1783
1779,1937,1833
1715,1887,1755
1729,1858,1694
1787,1904,1783
1765,1940,1811
1793,1910,1756
1776,1871,1648
1750,1914,1747
1749,1909,1834
1782,1893,1798
1788,1872,1712
1761,1858,1748
1744,1918,1854
1763,1888,1815
1766,1846,1750
1737,1873,1782
1744,1922,1742
1760,1897,1782
1760,1866,1729
1787,1895,1766
1825,1942,1880
1775,1893,1782
1742,1817,1721
1745,1866,1744
1767,1923,1818
1786,1910,1827
1801,1833,1718
1781,1875,1772
1738,1887,1820
1760,1885,1793
1828,1878,1755
1821,1914,1801
1759,1886,1830
1747,1848,1765
1759,1856,1738
1796,1889,1797
1804,1920,1837
1776,1869,1776
1793,1840,1786
1840,1897,1846
1776,1899,1840
1772,1869,1799
1795,1842,1725
1818,1862,1766
1812,1889,1824
1824,1878,1808
1807,1855,1740
1823,1859,1781
1796,1921,1855
1773,1890,1815
1747,1841,1723
1803,1866,1822
1817,1902,1875
1799,1866,1775
1789,1829,1683
1817,1872,1807
1741,1904,1877
1819,1871,1850
1808,1871,1791
1871,1875,1807
1799,1876,1817
1735,1847,1799
1751,1821,1771
1808,1862,1810
1811,1913,1856
1783,1877,1840
1841,1859,1792
1829,1866,1810
1855,1914,1840
1857,1899,1832
1856,1823,1777
1809,1843,1788
1789,1882,1855
1860,1866,1840
1855,1799,1737
1820,1850,1762
1810,1906,1871
1815,1884,1854
1801,1828,1749
1837,1843,1803
1810,1839,1824
1849,1833,1843
1859,1860,1808
1838,1907,1863
1800,1891,1893
1808,1831,1808
1799,1793,1743
1810,1830,1811
1785,1873,1851
1824,1857,1856
1887,1855,1802
1834,1846,1787
1829,1848,1835
1840,1853,1863
1815,1830,1811
1832,1860,1810
1845,1899,1890
1849,1868,1879
1833,1802,1753
1806,1813,1760
1847,1866,1866
1809,1835,1821
1798,1815,1780
1886,1886,1860
1901,1930,1937
1787,1840,1837
1749,1787,1725
1815,1852,1782
1831,1872,1841
1872,1843,1878
1795,1833,1823
1819,1822,1846
1858,1846,1905
1798,1831,1821
1807,1817,1747
1829,1850,1797
1846,1874,1920
1858,1881,1927
1803,1824,1803
1813,1815,1821
1837,1861,1875
1750,1839,1808
1840,1821,1835
1859,1830,1855
1834,1856,1911
1825,1840,1876
1849,1819,1803
1904,1840,1855
1825,1872,1887
1787,1843,1821
1826,1822,1795
1872,1868,1859
1827,1872,1859
1801,1845,1833
1873,1806,1770
1847,1838,1872
1821,1871,1907
1829,1851,1862
1822,1819,1823
1830,1815,1851
1835,1872,1905
1839,1846,1861
1877,1837,1814
1882,1846,1856
1836,1889,1916
1966,1843,1840
1875,1825,1810
1871,1843,1840
1794,1875,1890
1843,1849,1882
1848,1837,1810
1871,1847,1821
1701,1872,1906
1853,1867,1871
1919,1821,1787
1871,1817,1810
1798,1857,1906
1786,1834,1840
1828,1798,1791
1862,1809,1852
1858,1863,1900
1827,1883,1875
1846,1851,1808
1865,1831,1812
1905,1855,1856
1884,1844,1863
1886,1803,1808
1829,1814,1790
1865,1835,1861
1814,1842,1872
1898,1853,1835
1870,1870,1851
1808,1840,1795
1744,1818,1838
1774,1817,1853
1914,1843,1861
1873,1893,1923
1862,1803,1793
1899,1827,1771
1831,1850,1799
1857,1855,1920
1851,1847,1904
1776,1788,1738
1909,1837,1770
1838,1865,1845
1847,1838,1872
1857,1818,1821
1845,1858,1791
1862,1844,1844
1855,1828,1882
1860,1808,1822
1857,1827,1810
1904,1881,1885
1887,1845,1810
1846,1796,1775
1792,1839,1805
1806,1873,1829
1850,1867,1852
1865,1806,1839
1856,1807,1842
1773,1855,1915
1883,1840,1819
1834,1808,1762
1899,1840,1851
1878,1876,1925
1791,1823,1793
1787,1833,1743
1872,1870,1818
1872,1871,1898
1855,1837,1839
1892,1799,1749
1901,1837,1776
1827,1869,1920
1745,1781,1858
1803,1792,1791
1890,1842,1834
1863,1866,1843
1729,1837,1825
1838,1821,1765
1869,1840,1794
1833,1852,1847
1807,1824,1821
1803,1808,1813
1898,1902,1874
1935,1925,1959
1839,1827,1770
1776,1777,1706
1791,1783,1795
1840,1872,1863
1844,1847,1828
1829,1792,1808
1844,1825,1843
1843,1889,1904
1837,1868,1794
1883,1791,1787
1847,1794,1815
1851,1840,1868
1849,1856,1866
1889,1844,1782
1829,1806,1810
1787,1833,1905
1799,1838,1791
1870,1829,1721
1871,1856,1858
1808,1838,1862
1773,1783,1765
1876,1809,1835
1902,1857,1899
1847,1862,1878
1815,1828,1795
1822,1805,1757
1869,1815,1777
1859,1856,1859
1872,1862,1934
1925,1850,1823
1834,1826,1744
1792,1835,1849
1770,1808,1831
1827,1837,1787
1870,1851,1828
1913,1872,1889
1834,1821,1795
1833,1814,1787
1835,1822,1877
1840,1865,1910
1826,1847,1819
1859,1817,1715
1879,1837,1791
1897,1915,1961
1806,1856,1872
1777,1776,1783
1840,1823,1815
1880,1899,1895
1870,1856,1879
1831,1799,1814
1871,1874,1842
1833,1828,1849
1818,1793,1806
1851,1773,1776
1867,1810,1840
1873,1873,1936
1823,1851,1878
1813,1808,1757
1904,1820,1818
1887,1858,1887
1853,1872,1855
1843,1843,1792
1832,1799,1811
1831,1807,1869
1837,1843,1856
1857,1831,1781
1847,1858,1831
1807,1854,1890
1821,1837,1827
1839,1814,1741
1879,1823,1815
1861,1847,1882
1806,1839,1835
1823,1847,1792
1890,1872,1829
1871,1861,1879
1881,1874,1881
1856,1829,1805
1811,1838,1819
1827,1845,1856
1904,1877,1850
1877,1821,1757
1856,1821,1835
1842,1873,1922
1793,1830,1811
1834,1811,1775
1873,1840,1812
1882,1875,1881
1850,1834,1863
1856,1835,1799
1863,1827,1814
1846,1847,1904
1879,1882,1901
1854,1839,1796
1844,1827,1794
1850,1839,1856
1871,1856,1877
1872,1820,1818
1873,1841,1845
1840,1872,1893
1836,1856,1836
1870,1837,1795
1903,1857,1842
1872,1869,1917
1823,1872,1873
1835,1829,1803
1855,1823,1833
1834,1872,1851
1866,1872,1840
1887,1808,1759
1840,1840,1856
1803,1856,1923
1809,1833,1851
1841,1815,1776
1895,1854,1838
1873,1877,1923
1881,1855,1840
1835,1794,1776
1823,1835,1813
1845,1871,1936
1840,1839,1905
1840,1817,1802
1872,1869,1869
1871,1908,1931
1846,1838,1840
1872,1793,1772
1870,1829,1852
1850,1858,1893
1846,1859,1839
1889,1854,1807
1873,1852,1822
1844,1869,1897
1821,1847,1862
1823,1804,1808
1840,1832,1814
1872,1872,1897
1878,1872,1873
1886,1846,1859
1947,1870,1857
1837,1831,1863
1806,1817,1814
1840,1812,1794
1842,1855,1876
1808,1873,1884
1811,1805,1846
1854,1808,1812
1893,1904,1875
1872,1903,1915
1849,1826,1858
1861,1859,1793
1883,1850,1855
