1893,1888,1878
1872,1895,1915
1842,1818,1755
1863,1810,1781
1886,1861,1814
1856,1846,1821
1841,1813,1734
1870,1840,1727
1877,1893,1862
1866,1873,1872
1856,1819,1778
1906,1845,1743
1913,1885,1897
1862,1861,2672
1838,1798,2518
1825,1817,1920
1851,1884,1697
1831,1860,1759
1855,1828,1824
1845,1785,1840
1840,1847,1839
1810,1853,1826
1821,1791,1846
1845,1788,1806
1840,1873,1835
1840,1885,1829
1835,1823,1830
1877,1842,1867
1822,1840,1865
1778,1818,1793
1834,1805,1783
1879,1817,1819
1831,1857,1829
1776,1822,1869
1815,1793,1990
1867,1818,2303
1794,1805,3882
1308,1377,4095
560,656,2432
0,72,1571
0,0,1600
0,0,1394
0,0,1765
0,0,2308
0,0,2137
0,0,1521
0,0,371
0,0,993
0,0,1535
0,0,1825
0,0,1889
0,0,1815
448,635,1804
1023,989,1858
1263,1109,1821
1371,1232,1792
1456,1361,1790
1486,1436,1799
1535,1456,1791
1634,1555,1834
1686,1663,1810
1680,1669,1857
1728,1694,1825
1777,1717,1831
1834,1854,1841
1854,1911,1825
1879,1872,1827
1926,1910,1830
1967,2015,1827
1975,2037,1828
1962,1979,1829
1993,2025,1825
2009,2131,1830
2042,2154,1825
2081,2145,1826
2096,2128,1826
2083,2223,1829
2091,2227,1829
2093,2155,1811
2117,2186,1863
2160,2278,1912
2129,2250,1486
2145,2213,1232
2176,2255,1232
2201,2327,1387
2163,2317,1305
2131,2234,1250
2205,2275,1266
2233,2330,1386
2194,2341,1365
2222,2329,1335
2226,2322,1327
2197,2351,1378
2160,2317,1355
2187,2291,1274
2226,2310,1295
2231,2381,1437
2205,2358,1409
2199,2293,1306
2272,2335,1296
2288,2368,1294
2209,2379,1434
2178,2301,1291
2212,2309,1315
2224,2363,1441
2193,2336,1364
2229,2306,1291
2259,2326,1334
2224,2355,1316
2179,2349,1372
2198,2303,1359
2224,2279,1347
2217,2325,1398
2213,2339,1445
2222,2282,1398
2246,2290,1303
2259,2381,1424
2195,2313,1437
2149,2234,1283
2192,2261,1414
2221,2345,1488
2169,2314,1467
2194,2277,1381
2261,2320,1449
2187,2295,1529
2127,2239,1482
2151,2227,1360
2203,2274,1392
2194,2286,1468
2165,2266,1428
2159,2234,1424
2212,2277,1445
2198,2305,1530
2160,2255,1510
2150,2189,1405
2173,2192,1385
2187,2275,1471
2160,2256,1531
2173,2205,1488
2164,2203,1445
2158,2242,1535
2156,2243,1554
2142,2173,1443
2163,2154,1479
2160,2221,1577
2112,2205,1560
2112,2142,1532
2123,2162,1507
2151,2212,1589
2159,2214,1582
2153,2153,1499
2160,2167,1565
2134,2189,1648
2090,2160,1617
2105,2127,1520
2151,2151,1535
2190,2211,1652
2094,2153,1616
2081,2085,1518
2107,2102,1577
2101,2163,1677
2066,2130,1648
2102,2082,1535
2139,2095,1585
2149,2168,1717
2086,2151,1699
2054,2091,1581
2094,2078,1591
2096,2117,1674
2073,2099,1711
2085,2055,1623
2114,2063,1615
2121,2112,1724
2069,2113,1731
2039,2046,1616
2071,2039,1623
2072,2073,1711
2059,2109,1728
2076,2055,1671
2106,2038,1667
2096,2096,1765
1977,2029,1727
1986,1973,1632
2043,2009,1686
2069,2060,1756
2055,2043,1770
2125,2006,1728
2080,2019,1721
2061,2043,1765
2035,2038,1782
2015,1981,1700
1999,1957,1711
2064,2035,1785
1999,2032,1814
2030,1955,1717
1985,1967,1719
2031,2016,1800
2017,1991,1807
1995,1927,1699
2039,1936,1744
2015,1999,1835
2023,1988,1843
2011,1937,1753
1967,1929,1743
1985,1976,1834
2005,1981,1871
2026,1941,1766
2003,1915,1757
1980,1952,1866
1978,1998,1870
1936,1904,1711
2009,1898,1740
1999,1962,1869
1952,1935,1900
2025,1904,1789
1965,1895,1755
1984,1930,1877
1989,1936,1856
1990,1878,1782
2021,1920,1846
2016,1969,1931
1947,1897,1824
1879,1857,1745
1936,1867,1774
1962,1921,1898
1945,1916,1916
1936,1859,1820
1987,1852,1751
1952,1896,1872
1915,1909,1920
1929,1871,1817
2007,1913,1878
1991,1946,1961
1904,1849,1890
1879,1820,1773
1927,1856,1801
2023,1936,1919
1920,1888,1917
1930,1854,1873
1927,1843,1818
1921,1870,1872
1887,1887,1943
1984,1847,1869
1999,1843,1874
1938,1903,1951
1922,1895,1957
1931,1813,1829
1929,1813,1845
1879,1889,1971
1895,1876,1927
1903,1803,1843
1920,1775,1872
1921,1870,1924
1856,1875,1911
1877,1823,1799
1943,1840,1861
1899,1891,1971
1845,1835,1958
1876,1813,1874
1940,1840,1854
1927,1883,1975
1933,1875,1984
1865,1759,1808
1871,1764,1839
1890,1840,1954
1872,1852,1953
1879,1792,1855
1922,1807,1840
1933,1853,1994
1898,1841,1984
1879,1789,1899
1915,1808,1876
1914,1904,1973
1882,1853,1972
1842,1795,1868
1866,1771,1885
1904,1839,1968
1936,1852,1968
1887,1799,1866
1893,1796,1863
1983,1828,1962
1867,1840,1980
1873,1790,1874
1904,1807,1889
1921,1869,1997
1882,1838,1997
1906,1795,1919
1917,1820,1919
1827,1823,1936
1796,1831,1937
1856,1814,1882
1933,1813,1905
1911,1838,1966
1819,1801,1955
1803,1777,1894
1887,1829,1915
1874,1871,1990
1895,1854,1985
1862,1783,1899
1840,1807,1904
1876,1879,1978
1814,1863,1950
1911,1830,1905
1954,1839,1915
1805,1883,1965
1867,1857,1975
1895,1775,1879
1835,1814,1890
1904,1889,1985
1939,1870,1978
1847,1831,1903
1845,1823,1912
1877,1874,1997
1867,1851,1962
1903,1808,1862
1905,1820,1858
1861,1887,1999
1792,1888,2029
1867,1835,1910
1967,1866,1926
1840,1879,1970
1777,1845,1937
1783,1799,1872
1833,1823,1887
1878,1878,1964
1856,1877,1986
1873,1863,1921
1789,1833,1874
1824,1843,1963
1871,1845,1968
1858,1815,1898
1879,1843,1914
1824,1887,1996
1809,1872,1967
1808,1815,1882
1905,1828,1901
1971,1903,2007
1861,1860,2013
1806,1796,1879
1805,1813,1872
1838,1876,1975
1776,1870,1986
1840,1811,1888
1870,1828,1899
1812,1888,2001
1834,1873,1995
1858,1811,1895
1867,1827,1898
1850,1877,1973
1833,1867,1975
1841,1828,1898
1863,1840,1899
1859,1887,1989
1840,1870,1990
1851,1814,1909
1882,1834,1919
1887,1890,2005
1856,1867,1994
1850,1818,1904
1885,1827,1909
1886,1875,1987
1853,1871,1986
1863,1819,1904
1885,1823,1899
1881,1865,1988
1850,1845,1978
1856,1802,1893
1892,1815,1906
1885,1855,1986
1856,1834,1979
1878,1776,1889
1899,1782,1901
1891,1827,1979
1871,1813,1984
1911,1780,1893
1919,1805,1917
1857,1812,1984
1831,1780,1969
1857,1737,1897
1910,1770,1904
1895,1808,1968
1857,1787,1968
1862,1737,1887
1896,1744,1891
1901,1791,1970
1858,1777,1968
1867,1728,1881
1891,1738,1891
1894,1783,1978
1857,1769,1965
1872,1718,1876
1891,1728,1872
1890,1771,1961
1863,1760,1962
1872,1707,1877
1902,1723,1887
1887,1769,1965
1859,1749,1948
1859,1699,1863
1895,1712,1872
1893,1756,1957
1870,1742,1950
1869,1693,1863
1891,1706,1867
1890,1751,1946
1870,1742,1947
1881,1691,1862
1904,1708,1866
1901,1759,1951
1870,1733,1946
1872,1680,1854
1898,1697,1857
1891,1744,1949
1863,1730,1949
1861,1671,1860
1892,1680,1866
1893,1739,1954
1865,1722,1947
1870,1665,1853
1894,1673,1862
1895,1726,1949
1861,1711,1939
1878,1661,1847
1897,1671,1861
1898,1715,1933
1863,1706,1933
1872,1649,1856
1904,1664,1859
1906,1713,1946
1868,1708,1936
1872,1658,1852
1898,1667,1855
1903,1714,1933
1869,1701,1918
1873,1649,1840
1904,1665,1843
1899,1713,1936
1867,1705,1930
1866,1642,1840
1889,1664,1839
1890,1709,1915
1864,1693,1909
1868,1648,1833
1897,1661,1845
1903,1712,1920
1856,1693,1904
1861,1645,1815
1888,1662,1828
1886,1714,1915
1854,1694,1920
1861,1655,1825
1877,1670,1821
1875,1712,1907
1844,1693,1904
1855,1655,1819
1872,1667,1823
1869,1710,1904
1840,1691,1897
1840,1648,1809
1869,1663,1808
1858,1713,1889
1838,1708,1886
1840,1653,1799
1856,1671,1808
1856,1728,1891
1821,1701,1884
1838,1666,1798
1856,1680,1799
1853,1734,1882
1823,1719,1875
1831,1665,1793
1851,1679,1796
1849,1734,1879
1820,1721,1875
1823,1687,1787
1849,1680,1778
1845,1725,1872
1807,1712,1857
1814,1665,1776
1846,1698,1781
1843,1751,1882
1821,1743,1872
1817,1678,1774
1840,1681,1774
1840,1737,1859
1815,1730,1857
1815,1681,1776
1841,1680,1779
1840,1735,1862
1809,1725,1859
1814,1686,1786
1847,1715,1792
1839,1759,1867
1803,1751,1858
1815,1698,1775
1845,1717,1783
1838,1779,1877
1799,1749,1862
1813,1699,1776
1840,1764,1791
1845,1763,1867
1808,1770,1853
1807,1684,1762
1834,1712,1776
1838,1782,1865
1805,1813,1858
1812,1682,1769
1841,1767,1776
1840,1759,1870
1809,1743,1863
1809,1721,1776
1840,1757,1773
1831,1782,1861
1801,1773,1867
1810,1675,1794
1836,1747,1779
1822,1761,1843
1787,1808,1853
1798,1706,1776
1830,1696,1776
1821,1792,1847
1789,1814,1846
1795,1732,1768
1830,1741,1777
1830,1792,1869
1796,1775,1861
1799,1751,1775
1823,1807,1776
1819,1761,1861
1791,1805,1859
1801,1795,1775
1825,1746,1779
1819,1823,1859
1782,1798,1847
1791,1731,1759
1813,1771,1774
1815,1799,1857
1786,1803,1850
1789,1759,1760
1811,1772,1773
1810,1840,1855
1775,1773,1854
1776,1758,1767
1810,1762,1772
1810,1809,1853
1782,1801,1840
1779,1762,1757
1808,1782,1766
1813,1825,1854
1781,1809,1839
1785,1739,1751
1811,1767,1761
1808,1855,1855
1776,1809,1849
1790,1762,1776
1822,1783,1776
1817,1823,1855
1789,1839,1853
1786,1809,1766
1813,1818,1769
1815,1813,1851
1784,1867,1854
1791,1808,1764
1812,1777,1763
1804,1840,1856
1775,1836,1853
1783,1774,1763
1809,1757,1773
1817,1840,1870
1788,1842,1867
1791,1791,1771
1810,1829,1779
1815,1882,1866
1786,1859,1860
1789,1782,1776
1805,1809,1779
1808,1852,1868
1775,1845,1859
1782,1797,1773
1811,1815,1770
1803,1858,1852
1773,1840,1852
1780,1805,1772
1802,1812,1760
1804,1866,1851
1776,1839,1855
1783,1741,1771
1808,1755,1773
1808,1809,1856
1775,1815,1857
1786,1766,1771
1813,1821,1782
1808,1868,1870
1778,1950,1856
1776,1877,1776
1807,1822,1776
1797,1851,1860
1774,1847,1856
1779,1813,1768
1805,1820,1776
1802,1870,1871
1766,1855,1856
1765,1814,1770
1801,1824,1775
1806,1863,1861
1776,1856,1852
1773,1801,1760
1798,1814,1777
1807,1860,1869
1773,1759,1858
1769,1790,1757
1793,1840,1765
1805,1888,1862
1766,1925,1861
1774,1795,1774
1790,1808,1773
1790,1856,1861
1769,1887,1858
1776,1799,1777
1812,1738,1779
1808,1878,1867
1777,1904,1867
1782,1859,1780
1805,1838,1774
1790,1888,1859
1762,1885,1861
1781,1854,1781
1808,1840,1789
1810,1895,1872
1786,1880,1872
1786,1849,1792
1813,1863,1791
1808,1906,1872
1775,1904,1866
1791,1841,1789
1818,1883,1802
1815,1911,1873
1777,1898,1870
1789,1839,1787
1814,1854,1787
1820,1904,1876
1794,1901,1875
1792,1853,1788
1818,1855,1795
1814,1969,1879
1787,1894,1879
1804,1863,1803
1829,1863,1808
1835,1924,1890
1801,1901,1879
1807,1846,1795
1826,1856,1799
1823,1890,1879
1797,1946,1881
1809,1859,1799
1843,1789,1808
1841,1925,1897
1806,1874,1881
1796,1882,1793
1830,1893,1803
1841,1957,1899
1809,1914,1903
1814,1859,1810
1839,1868,1810
1842,1946,1893
1808,1911,1893
1818,1868,1812
1846,1873,1818
1843,1925,1905
1802,1914,1898
1806,1867,1809
1840,1868,1811
1845,1925,1902
1815,1917,1902
1829,1870,1815
1856,1879,1817
1849,1925,1897
1810,1908,1881
1813,1862,1792
1841,1874,1802
1842,1926,1890
1813,1904,1885
1822,1857,1798
1850,1872,1806
1837,1919,1885
1808,1909,1885
1818,1858,1806
1841,1859,1805
1849,1920,1890
1824,1918,1888
1822,1858,1794
1846,1867,1794
1847,1931,1879
1829,1911,1890
1815,1840,1782
1841,1865,1791
1829,1907,1871
1799,1887,1851
1808,1845,1770
1867,1873,1793
1879,1935,1901
1805,1879,1857
1786,1811,1755
1818,1853,1776
1823,1905,1869
1795,1891,1857
1808,1845,1779
1847,1839,1799
1827,1897,1877
1785,1913,1866
1790,1857,1778
1824,1862,1777
1834,1908,1872
1818,1903,1883
1818,1855,1791
1822,1856,1776
1817,1906,1862
1792,1898,1898
1840,1870,1888
1867,1878,1851
1808,1891,1846
1775,1879,1830
1792,1842,1790
1829,1853,1854
1839,1904,1921
1834,1899,1904
1827,1858,1789
1841,1851,1778
1841,1934,1877
1794,1907,1867
1814,1854,1799
1833,1846,1789
1829,1894,1866
1799,1895,1856
1795,1840,1746
1820,1833,1759
1873,1895,1895
1851,1910,1891
1810,1823,1776
1818,1742,1743
1855,1893,1851
1830,1914,1885
1776,1840,1759
1776,1808,1734
1787,1830,1830
1814,1846,1826
1869,1840,1753
1867,1862,1763
1834,1873,1882
1805,1857,1858
1722,1744,1702
1759,1776,1742
1845,1927,1838
1838,1927,1884
1714,1744,1712
1766,1798,1680
1806,1866,1776
1837,1983,1883
1839,1951,1798
1779,1872,1655
1858,1914,1824
1858,1982,1879
1910,1972,1842
1744,1850,1725
1682,1949,1758
1753,2004,1781
1735,1914,1648
1859,1995,1767
1848,2069,1935
1727,1999,1871
1755,1954,1715
1780,1991,1502
1839,2081,1232
1762,2064,1584
1796,2082,1853
1861,2103,1975
1805,2160,1902
1870,2174,1840
1859,2096,1837
1809,2083,1798
1808,2194,1954
1868,2224,1984
1849,2125,1859
1815,2182,1814
1863,2224,1988
1828,2209,2027
1798,2179,1917
1898,2254,1912
1891,2275,1915
1805,2202,1968
1799,2161,1897
1825,2191,1846
1937,2291,1968
1937,2305,2043
1841,2202,1937
1869,2206,1908
1875,2249,2003
1866,2257,1987
1859,2160,1856
1887,2176,1887
1855,2224,1914
1865,2197,2045
1858,2190,1945
1935,2198,1885
1939,2223,1997
1854,2175,1983
1883,2133,1868
1923,2122,1868
1904,2183,1995
1874,2166,1999
1891,2141,1897
1901,2148,1836
1865,2123,1969
1861,2128,2011
1943,2117,1978
1904,2039,1889
1835,2096,1931
1842,2127,1970
1884,2047,1831
1935,2070,1921
1970,2115,2064
1906,2070,1920
1849,2014,1851
1888,2030,1858
1919,2079,1939
1893,2058,1933
1951,2032,1901
1963,2001,1922
1871,2011,1991
1831,2000,1936
1886,1964,1856
1946,1981,1915
1957,2055,1910
1915,2025,1991
1839,1921,1926
1867,1956,1904
1872,2006,1933
1939,2006,2004
1927,1941,1908
1890,1931,1910
1859,1945,1945
1863,1965,1933
1911,1905,1861
1911,1929,1846
1942,2033,1962
1936,1979,1981
1904,1878,1844
1879,1904,1869
1897,1951,1973
1914,1904,1963
1970,1882,1873
1947,1891,1825
1872,1934,1933
1828,1913,1985
1867,1888,1889
2017,1931,1876
1947,1930,1915
1813,1911,1946
1840,1831,1879
1885,1844,1847
1937,1953,1972
1906,1932,1924
1961,1874,1876
1969,1854,1932
1919,1875,1982
1861,1862,1894
1859,1814,1786
1913,1874,1867
1955,1927,1969
1923,1918,1947
1883,1834,1827
1905,1819,1865
1903,1867,1949
1929,1897,1968
1996,1907,1923
1947,1871,1873
1871,1854,1965
1879,1861,1931
1904,1810,1775
1946,1859,1857
1940,1906,1929
1936,1906,1913
1901,1824,1872
1946,1850,1883
1915,1888,1883
1872,1875,1914
1898,1839,1834
1953,1859,1904
1951,1898,1947
1897,1847,1912
1923,1856,1856
1955,1881,1853
1939,1878,1907
1943,1863,1920
1926,1843,1892
1904,1862,1818
1935,1918,1883
1938,1888,1937
1920,1855,1851
1917,1834,1839
1890,1886,1929
1870,1865,1913
1931,1863,1831
2003,1888,1851
1901,1887,1855
1853,1843,1857
1909,1813,1876
1923,1828,1760
1978,1899,1984
1946,1887,1948
1921,1835,1805
1933,1840,1840
1904,1903,1915
1870,1863,1889
1899,1790,1761
1914,1809,1796
1923,1872,1918
1905,1883,1908
1932,1847,1836
1940,1838,1872
1907,1859,1914
1875,1858,1911
1911,1840,1872
1995,1878,1835
1934,1890,1865
1870,1851,1874
1876,1801,1845
1936,1813,1899
1901,1847,1811
1882,1859,1886
1889,1818,1786
1946,1842,1811
1990,1889,1923
1910,1858,1881
1872,1827,1853
1918,1821,1776
1967,1905,1929
1956,1888,1920
1926,1804,1811
1889,1791,1712
1894,1866,1938
1862,1855,1866
1919,1823,1814
1969,1845,1857
1937,1904,1869
1871,1873,1883
1910,1837,1835
1974,1886,1774
1950,1904,1872
1935,1863,1864
1915,1829,1854
1901,1802,1781
1922,1845,1858
1851,1810,1870
1894,1810,1803
1929,1822,1821
1904,1878,1906
1923,1876,1941
1894,1813,1814
1954,1860,1825
1936,1859,1898
1886,1842,1889
1926,1831,1809
1936,1837,1811
1909,1851,1869
1904,1840,1975
1930,1829,1805
1937,1828,1777
1925,1860,1872
1883,1841,1873
1906,1783,1786
1987,1840,1827
1955,1892,1938
1891,1887,1894
1851,1783,1792
1919,1808,1803
1945,1886,1889
1904,1858,1929
1904,1814,1808
1938,1861,1830
1938,1887,1850
1932,1883,1901
1899,1776,1747
1920,1815,1823
1907,1872,1921
1882,1871,1873
1925,1803,1808
2010,1883,1872
1958,1872,1895
1872,1840,1854
1856,1799,1747
1886,1821,1775
1900,1859,1866
1920,1890,1923
1910,1827,1803
1876,1790,1738
1891,1823,1862
1922,1863,1898
1906,1821,1813
1911,1851,1833
1927,1904,1878
1879,1855,1887
1876,1803,1818
1898,1826,1805
1908,1872,1860
1889,1852,1877
1904,1841,1808
1906,1837,1808
1882,1859,1872
1894,1877,1925
1858,1790,1751
1904,1811,1765
1857,1855,1863
1917,1844,1870
1891,1851,1810
1890,1837,1811
1888,1870,1878
1846,1833,1853
1858,1788,1767
1904,1819,1782
1870,1889,1886
1910,1870,1919
1856,1791,1808
1875,1813,1779
1954,1867,1865
1895,1853,1872
1846,1831,1806
1922,1867,1817
1904,1904,1908
1885,1884,1883
1881,1792,1742
1895,1791,1778
1906,1889,1915
1858,1886,1914
1902,1792,1794
1856,1793,1765
1891,1859,1850
1854,1871,1850
1902,1809,1729
1917,1839,1808
1917,1899,1920
1903,1873,1868
1895,1799,1811
1962,1834,1838
1885,1829,1840
1854,1848,1902
1852,1812,1793
1872,1822,1759
1901,1875,1865
1894,1830,1843
1858,1823,1771
1881,1824,1786
1879,1874,1926
1872,1872,1893
1887,1817,1742
1903,1829,1767
1874,1880,1905
1856,1865,1904
1910,1837,1778
1881,1835,1792
1847,1872,1901
1830,1840,1840
1865,1789,1782
1839,1833,1771
1900,1861,1875
1808,1861,1897
1863,1837,1791
1933,1872,1757
1879,1878,1834
1859,1814,1850
1821,1776,1779
1934,1840,1805
1853,1893,1841
1850,1872,1878
1927,1839,1802
1869,1815,1806
1869,1873,1875
1821,1881,1831
1872,1808,1757
1882,1809,1763
1867,1867,1872
1850,1842,1882
1831,1791,1771
1883,1813,1744
1880,1870,1883
1822,1874,1897
1843,1817,1808
1904,1834,1787
1893,1887,1854
1849,1854,1865
1872,1833,1807
1862,1789,1792
1865,1853,1872
1834,1862,1875
1850,1819,1771
1856,1830,1798
1899,1883,1903
1823,1886,1810
1861,1803,1758
1891,1795,1792
1881,1862,1893
1837,1868,1893
1872,1829,1792
1953,1821,1787
1853,1859,1845
1830,1862,1835
1892,1853,1795
1904,1833,1811
1853,1881,1882
1807,1853,1837
1853,1840,1787
1912,1822,1830
1844,1816,1821
1841,1851,1805
1883,1856,1802
1898,1849,1785
1984,1892,1879
1874,1872,1905
1828,1808,1760
1837,1841,1775
1842,1877,1859
1904,1842,1872
1919,1817,1810
1893,1822,1719
1854,1875,1822
1790,1856,1860
1907,1835,1773
1872,1810,1790
1962,1892,1935
1921,1893,1894
1861,1833,1759
1873,1811,1735
1844,1872,1862
1828,1856,1850
1872,1840,1798
1875,1857,1824
1885,1885,1860
1839,1863,1856
1807,1829,1744
1873,1814,1762
1885,1856,1881
1839,1888,1872
1809,1831,1795
1851,1830,1779
1921,1870,1855
1863,1862,1856
1927,1856,1783
1846,1861,1771
1843,1904,1875
1871,1874,1895
1904,1812,1821
1801,1790,1714
1829,1857,1843
1799,1860,1840
1841,1827,1788
1936,1846,1799
1895,1887,1873
1765,1872,1844
1757,1801,1724
1792,1820,1773
1855,1919,1866
1841,1884,1857
1887,1799,1757
1830,1808,1738
1834,1886,1835
1894,1894,1921
1830,1844,1770
1850,1837,1699
1827,1872,1902
1849,1850,1935
1867,1795,1808
1895,1861,1827
1866,1889,1913
1792,1846,1810
1835,1823,1745
1881,1807,1776
1869,1857,1881
1807,1867,1840
1841,1827,1746
1853,1799,1744
1866,1867,1876
1849,1886,1909
1856,1851,1765
1875,1859,1801
1850,1897,1890
1823,1845,1879
1835,1826,1818
1867,1843,1776
1830,1855,1808
1822,1862,1857
1857,1837,1820
1883,1850,1807
1871,1907,1829
1828,1882,1825
1835,1827,1761
1847,1821,1841
1870,1854,1920
1836,1859,1824
1821,1815,1751
1918,1888,1834
1872,1879,1893
1819,1843,1879
1841,1835,1789
1841,1797,1802
1845,1812,1872
1831,1850,1857
1861,1840,1776
1872,1859,1779
1821,1866,1859
1807,1858,1871
1856,1821,1775
1892,1835,1758
1889,1901,1877
1847,1883,1926
1813,1822,1776
1831,1837,1791
1875,1866,1931
1823,1854,1889
1811,1839,1699
1866,1798,1755
1846,1841,1905
1818,1867,1868
1809,1808,1754
1850,1844,1808
1871,1890,1894
1839,1903,1895
1825,1842,1769
1849,1835,1773
1877,1895,1837
1885,1920,1921
1838,1859,1786
1811,1825,1758
1813,1871,1856
1825,1871,1901
1838,1859,1831
1887,1877,1818
1882,1910,1920
1827,1879,1893
1801,1840,1766
1846,1878,1739
1852,1907,1829
1826,1888,1873
1865,1869,1829
1873,1882,1840
1856,1909,1874
1793,1879,1856
1837,1856,1792
1895,1894,1841
1875,1920,1890
1823,1883,1872
1810,1856,1746
1856,1898,1781
1904,1914,1903
1845,1904,1904
1808,1890,1792
1838,1910,1809
1875,1945,1910
1829,1926,1872
1808,1843,1739
1872,1850,1798
1873,1925,1915
1840,1913,1886
1871,1889,1845
1850,1898,1817
1871,1955,1888
1837,1937,1847
1841,1862,1797
1849,1842,1805
1831,1905,1901
1836,1923,1909
1846,1857,1813
1846,1845,1791
1852,1913,1855
1836,1914,1893
1808,1856,1807
1856,1872,1820
1881,1938,1904
1835,1936,1881
1854,1890,1755
1860,1892,1824
1865,1934,1942
1815,1862,1879
1821,1840,1795
1863,1875,1808
1859,1904,1857
1842,1924,1893
1863,1890,1808
1883,1870,1811
1851,1903,1898
1825,1920,1891
1846,1878,1787
1904,1883,1840
1862,1918,1871
1774,1876,1799
1802,1853,1747
1907,1907,1823
1873,1917,1889
1834,1895,1888
1818,1831,1792
1849,1845,1765
1846,1881,1843
1808,1883,1883
1835,1852,1811
1881,1871,1811
1856,1905,1846
1802,1915,1846
1838,1840,1794
1868,1870,1857
1840,1920,1904
1840,1922,1890
1825,1853,1785
1823,1809,1767
1867,1893,1904
1841,1902,1922
1819,1881,1829
1855,1866,1781
1883,1905,1856
1820,1911,1877
1805,1875,1792
1859,1863,1815
1840,1856,1875
1827,1899,1857
1840,1853,1808
1831,1828,1783
1851,1936,1875
1839,1919,1875
1871,1901,1822
1851,1823,1759
1835,1962,1859
1833,1982,1864
1856,1877,1821
1858,1862,1787
1856,1930,1882
1840,1885,1904
1861,1840,1797
1872,1867,1790
1856,1879,1878
1856,1914,1909
1814,1886,1783
1819,1888,1765
1840,1872,1853
1854,1949,1890
1822,1892,1778
1886,1858,1810
1881,1879,1853
1829,1851,1857
1812,1803,1745
1866,1882,1794
1879,1931,1903
1847,1973,1930
1835,1847,1808
1846,1807,1782
1843,1872,1881
1809,1917,1881
1837,1844,1763
1865,1827,1792
1854,1891,1914
1809,1882,1877
1808,1824,1761
1849,1830,1755
1899,1948,1890
1865,1936,1900
1851,1856,1791
1810,1852,1790
1827,1919,1872
1815,1874,1856
1850,1840,1793
1849,1891,1773
1843,1904,1854
1831,1919,1875
1870,1866,1782
1854,1839,1735
1839,1876,1858
1779,1925,1893
1905,1965,1910
1886,1855,1825
1803,1871,1819
1759,1887,1825
1806,1876,1796
1872,1845,1809
1863,1886,1902
1845,1919,1904
1837,1872,1744
1862,1871,1744
1859,1952,1904
1812,1863,1911
1835,1850,1808
1917,1869,1846
1918,1915,1887
1808,1941,1860
1797,1805,1809
1823,1893,1825
1842,1946,1869
1850,1915,1847
1832,1857,1734
1840,1858,1791
1851,1889,1901
1838,1920,1923
1863,1833,1837
1899,1872,1814
1930,1924,1879
1856,1899,1904
1819,1835,1791
1859,1889,1819
1831,1907,1854
1818,1903,1840
1849,1841,1792
1878,1867,1849
1867,1919,1920
1808,1901,1849
1840,1717,1791
1901,1890,1827
1892,1924,1918
1839,1877,1867
1836,1840,1823
1866,1782,1827
1874,1922,1920
1866,1915,1895
1811,1873,1713
1867,1879,1819
1882,1936,1954
1808,1904,1917
1831,1843,1775
1871,1849,1756
1862,1889,1869
1830,1877,1904
1861,1851,1856
1878,1824,1844
1831,1877,1905
1829,1902,1895
1857,1831,1777
1887,1871,1767
1872,1888,1878
1820,1869,1898
1872,1840,1856
1879,1893,1837
1872,1893,1872
1837,1857,1863
1849,1848,1818
1892,1829,1851
1853,1812,1883
1814,1856,1899
1839,1853,1811
1875,1874,1796
1863,1824,1845
1838,1838,1872
1843,1840,1827
1872,1834,1817
1881,1889,1870
1855,1874,1907
1843,1861,1845
1840,1857,1825
1842,1907,1863
1860,1878,1901
1856,1778,1815
1877,1873,1813
1873,1876,1873
1875,1872,1863
1849,1839,1794
1855,1842,1826
1847,1872,1894
1825,1856,1843
1850,1835,1789
1901,1843,1803
1873,1893,1936
1807,1865,1925
1813,1827,1762
1906,1821,1767
2002,1919,1891
1903,1891,1917
1776,1831,1808
1827,1853,1871
1823,1956,1885
1836,1838,1874
1797,1830,1744
1851,1808,1818
1863,1888,1929
1857,1893,1921
1895,1799,1806
1875,1883,1810
1872,1871,1914
1827,1859,1871
1835,1859,1812
1840,1904,1831
1838,1847,1910
1900,1853,1888
1904,1851,1816
1872,1854,1829
1847,1903,1873
1796,1872,1872
1845,1824,1810
1906,1852,1856
1881,1904,1889
1834,1879,1879
1839,1817,1808
1856,1802,1762
1861,1897,1922
1815,1867,1904
1844,1815,1814
1875,1830,1801
1865,1871,1893
1808,1883,1911
1852,1850,1835
1901,1873,1821
1927,1903,1853
1839,1828,1878
1819,1809,1813
1874,1850,1817
1890,1884,1883
1793,1867,1863
1798,1803,1776
1851,1804,1796
1873,1889,1922
1824,1855,1902
1875,1844,1835
1874,1865,1820
1846,1901,1887
1895,1857,1868
1879,1823,1830
1840,1858,1791
1820,1872,1886
1824,1842,1937
1842,1814,1772
1879,1828,1776
1855,1875,1902
1829,1893,1920
1850,1825,1819
1874,1822,1786
1872,1914,1872
1835,1872,1859
1863,1799,1760
1859,1847,1830
1845,1889,1930
1807,1856,1870
1840,1803,1769
1867,1826,1813
1851,1869,1894
1871,1874,1905
1840,1824,1807
1861,1840,1839
1881,1875,1913
1839,1872,1907
1862,1825,1799
1876,1815,1766
1840,1889,1821
1831,1918,1887
1849,1850,1837
1856,1785,1778
1875,1856,1879
1907,1878,1936
1946,1856,1834
1867,1824,1776
1808,1852,1823
1876,1872,1879
1881,1831,1794
1890,1839,1821
1959,1904,1903
1856,1859,1840
1796,1840,1803
1821,1859,1840
1847,1901,1903
1867,1870,1915
1874,1829,1835
1862,1834,1759
1899,1873,1857
1842,1878,1895
1850,1839,1817
1852,1855,1818
1824,1878,1881
1830,1846,1850
1859,1783,1723
1904,1846,1807
1863,1904,1937
1782,1865,1901
1849,1829,1797
1892,1830,1776
1887,1870,1861
1837,1862,1916
1865,1831,1782
1902,1839,1777
1887,1873,1877
1798,1854,1883
1842,1840,1790
1899,1840,1835
1855,1883,1929
1824,1858,1869
1853,1834,1764
1928,1861,1797
1877,1907,1895
1841,1894,1925
1853,1847,1802
1885,1811,1802
1853,1875,1901
1840,1874,1861
1900,1843,1811
1875,1825,1789
1871,1878,1894
1863,1901,1895
1842,1827,1782
1840,1807,1769
1931,1895,1937
