1690,1853,1759
1680,1881,1856
1667,1843,1805
1680,1821,1745
1695,1855,1792
1679,1876,1853
1679,1843,1810
1696,1811,1758
1712,1853,1812
1783,1890,1866
1702,1855,1810
1636,1830,1770
1710,1865,1826
1682,1886,1872
1699,1843,1810
1690,1826,1770
1684,1856,1813
1701,1872,1872
1690,1839,1824
1675,1812,1774
1694,1847,1818
1681,1882,1875
1674,1843,1825
1694,1819,1777
1697,1846,1812
1681,1874,1867
1649,1840,1811
1671,1821,1765
1693,1845,1817
1675,1874,1872
1634,1841,1823
1633,1813,1775
1721,1853,1808
1689,1878,1857
1703,1842,1818
1664,1815,1776
1742,1843,1822
1708,1873,1877
1649,1840,1823
1680,1813,1771
1690,1844,1819
1650,1867,1872
1635,1828,1831
1659,1811,1782
1687,1845,1823
1717,1872,1872
1626,1835,1819
1649,1803,1773
1679,1840,1831
1693,1869,1886
1687,1826,1839
1621,1813,1782
1664,1841,1830
1682,1863,1891
1689,1825,1838
1691,1799,1783
1711,1839,1833
1654,1866,1885
1722,1828,1840
1674,1803,1793
1681,1832,1839
1681,1859,1884
1667,1825,1833
1588,1803,1791
1696,1840,1835
1680,1863,1886
1671,1823,1837
1680,1795,1791
1706,1829,1837
1700,1856,1881
1649,1815,1839
1695,1808,1791
1700,1840,1840
1677,1862,1897
1670,1823,1840
1682,1800,1795
1739,1835,1846
1584,1863,1886
1778,1825,1838
1701,1801,1796
1723,1828,1839
1785,1854,1892
1744,1819,1839
1727,1792,1791
1727,1823,1844
1705,1847,1888
1692,1819,1831
1712,1795,1797
1717,1826,1849
1691,1847,1895
1685,1826,1838
1698,1807,1788
1714,1839,1841
1693,1863,1902
1683,1829,1842
1698,1799,1792
1700,1823,1830
1690,1858,1887
1693,1828,1853
1714,1807,1806
1722,1833,1845
1709,1858,1891
1685,1821,1839
1712,1794,1795
1717,1829,1840
1709,1856,1885
1699,1824,1837
1711,1798,1793
1719,1827,1839
1709,1855,1879
1685,1814,1839
1719,1792,1802
1727,1825,1840
1713,1855,1894
1693,1814,1837
1712,1789,1787
1721,1828,1833
1709,1857,1884
1705,1827,1844
1715,1802,1797
1718,1839,1839
1699,1860,1882
1698,1820,1839
1709,1790,1786
1712,1824,1833
1698,1855,1885
1703,1829,1840
1712,1790,1791
1719,1823,1838
1709,1856,1894
1693,1819,1840
1712,1790,1783
1721,1834,1832
1718,1857,1890
1712,1829,1840
1727,1803,1799
1730,1825,1840
1717,1867,1887
1703,1830,1835
1729,1797,1783
1737,1833,1831
1719,1865,1875
1712,1827,1827
1729,1808,1792
1741,1844,1840
1730,1872,1893
1719,1833,1837
1733,1804,1781
1740,1840,1840
1734,1872,1901
1722,1843,1854
1736,1817,1805
1736,1845,1838
1721,1872,1876
1717,1834,1834
1733,1808,1802
1744,1840,1845
1733,1863,1894
1712,1835,1839
1728,1810,1782
1740,1840,1834
1726,1869,1890
1725,1838,1847
1744,1812,1797
1742,1845,1829
1730,1862,1886
1718,1819,1839
1741,1803,1780
1744,1838,1839
1741,1865,1898
1719,1833,1842
1741,1808,1792
1747,1840,1828
1731,1863,1873
1742,1836,1845
1757,1808,1803
1764,1840,1845
1747,1867,1889
1735,1831,1840
1745,1808,1789
1757,1841,1842
1748,1867,1889
1744,1830,1835
1751,1805,1780
1757,1833,1824
1737,1859,1882
1727,1831,1831
1746,1806,1781
1765,1835,1827
1746,1854,1872
1741,1829,1823
1744,1807,1776
1765,1840,1837
1757,1870,1894
1744,1835,1837
1765,1805,1779
1774,1830,1822
1754,1863,1875
1752,1827,1829
1771,1808,1786
1770,1839,1826
1750,1860,1872
1744,1823,1825
1759,1805,1781
1776,1838,1829
1763,1863,1877
1758,1830,1830
1769,1807,1787
1783,1839,1829
1770,1863,1887
1761,1827,1840
1776,1804,1798
1787,1839,1840
1765,1861,1891
1751,1834,1850
1773,1806,1789
1771,1834,1824
1758,1865,1882
1753,1829,1839
1773,1808,1795
1783,1839,1845
1769,1858,1887
1750,1827,1839
1774,1803,1787
1776,1834,1827
1767,1856,1889
1755,1831,1851
1774,1808,1803
1792,1839,1842
1772,1856,1893
1762,1819,1839
1776,1794,1789
1798,1826,1841
1783,1859,1895
1767,1822,1835
1771,1794,1790
1792,1837,1841
1776,1865,1897
1764,1813,1821
1772,1790,1765
1782,1829,1840
1774,1808,1887
1755,1840,1834
1775,1807,1785
1786,1872,1823
1783,1894,1879
1771,1808,1835
1782,1776,1789
1794,1791,1840
1783,1878,1885
1781,1809,1840
1821,1788,1808
1822,1777,1846
1764,1856,1874
1746,1812,1812
1775,1761,1779
1799,1832,1836
1775,1840,1875
1776,1808,1819
1827,1809,1769
1853,1855,1851
1817,1873,1936
1778,1867,1859
1779,1771,1790
1775,1766,1829
1698,1806,1843
1703,1776,1803
1746,1742,1771
1809,1841,1841
1814,1862,1886
1734,1798,1788
1745,1756,1762
1765,1824,1830
1751,1842,1878
1759,1797,1831
1744,1757,1769
1744,1761,1805
1739,1828,1863
1728,1847,1810
1747,1776,1761
1786,1773,1819
1787,1849,1899
1776,1819,1843
1741,1750,1759
1721,1779,1779
1749,1830,1856
1764,1799,1808
1747,1767,1749
1741,1754,1795
1775,1872,1878
1817,1820,1870
1766,1729,1787
1717,1793,1778
1723,1813,1827
1737,1722,1798
1771,1808,1763
1808,1747,1828
1807,1869,1879
1765,1845,1830
1743,1747,1755
1746,1807,1779
1757,1856,1843
1765,1758,1808
1787,1782,1760
1793,1805,1810
1769,1833,1861
1760,1840,1808
1783,1777,1755
1790,1758,1803
1777,1832,1866
1779,1747,1810
1766,1767,1739
1770,1787,1777
1756,1818,1846
1751,1791,1803
1766,1776,1751
1783,1798,1801
1770,1825,1850
1751,1790,1794
1763,1763,1744
1779,1790,1793
1769,1823,1847
1772,1797,1810
1791,1775,1760
1785,1769,1797
1767,1895,1853
1755,1827,1806
1763,1753,1745
1777,1717,1807
1769,1814,1861
1766,1770,1808
1782,1760,1758
1791,1813,1807
1773,1851,1858
1753,1808,1808
1776,1745,1754
1783,1786,1791
1771,1830,1851
1759,1804,1813
1776,1784,1757
1783,1820,1794
1780,1838,1844
1773,1801,1808
1789,1799,1759
1798,1776,1791
1779,1843,1842
1769,1847,1790
1782,1748,1741
1799,1802,1787
1782,1818,1829
1776,1728,1776
1786,1812,1718
1794,1757,1750
1778,1770,1795
1763,1730,1747
1759,1786,1684
1759,1744,1714
1733,1828,1771
1701,1789,1722
1728,1738,1664
1744,1811,1701
1728,1739,1766
1712,1755,1713
1725,1693,1664
1728,1728,1707
1706,1807,1756
1705,1729,1717
1727,1727,1664
1730,1737,1712
1707,1766,1771
1697,1738,1725
1712,1721,1671
1715,1686,1712
1700,1811,1780
1689,1747,1735
1712,1802,1681
1722,1751,1724
1703,1775,1785
1691,1759,1744
1712,1741,1695
1729,1787,1754
1712,1858,1809
1711,1715,1762
1726,1754,1712
1730,1777,1770
1728,1814,1835
1723,1792,1783
1744,1742,1748
1758,1841,1803
1744,1935,1858
1737,1791,1822
1760,1808,1778
1780,1839,1830
1767,1937,1885
1763,1872,1849
1782,1914,1807
1789,1925,1856
1786,1955,1920
1790,1901,1876
1808,1873,1837
1823,1913,1881
1813,1938,1935
1807,1916,1886
1829,1904,1851
1837,1941,1904
1825,1968,1967
1821,1943,1922
1829,1920,1873
1834,1949,1905
1827,1983,1966
1814,1951,1930
1837,1932,1880
1842,1963,1917
1826,1987,1973
1807,1949,1920
1823,1923,1870
1840,1955,1920
1827,1989,1979
1821,1958,1936
1826,1929,1883
1829,1957,1921
1827,1979,1973
1819,1951,1920
1835,1917,1860
1849,1941,1910
1842,1965,1968
1828,1939,1904
1835,1907,1850
1851,1931,1887
1840,1951,1946
1838,1921,1905
1849,1899,1845
1866,1927,1876
1856,1953,1929
1842,1917,1876
1858,1892,1840
1877,1919,1893
1872,1947,1936
1853,1915,1879
1866,1879,1829
1881,1904,1863
1850,1927,1904
1855,1899,1857
1872,1867,1812
1897,1898,1847
1878,1918,1903
1873,1891,1856
1895,1858,1806
1902,1895,1858
1885,1920,1910
1873,1899,1858
1891,1859,1809
1904,1895,1853
1889,1915,1897
1881,1873,1856
1920,1869,1823
1931,1895,1856
1914,1920,1907
1900,1899,1871
1915,1877,1818
1931,1907,1860
1927,1933,1911
1918,1906,1863
1923,1885,1809
1942,1913,1871
1936,1939,1920
1934,1915,1874
1941,1899,1834
1945,1910,1864
1936,1936,1922
1926,1906,1877
1935,1888,1817
1939,1909,1868
1930,1939,1923
1921,1902,1877
1936,1882,1827
1954,1911,1864
1946,1941,1922
1934,1905,1873
1946,1874,1822
1962,1903,1866
1946,1929,1910
1933,1902,1871
1953,1872,1819
1953,1903,1845
1936,1924,1914
1924,1890,1867
1939,1862,1807
1942,1891,1856
1936,1918,1911
1932,1890,1866
1937,1861,1808
1936,1890,1834
1923,1905,1887
1922,1886,1851
1935,1862,1805
1946,1875,1840
1920,1905,1893
1920,1875,1846
1935,1851,1807
1939,1879,1840
1929,1905,1893
1913,1872,1843
1924,1845,1803
1936,1878,1843
1919,1903,1884
1908,1876,1840
1929,1851,1802
1932,1872,1830
1919,1893,1878
1919,1870,1841
1937,1843,1795
1943,1872,1833
1921,1894,1874
1909,1865,1817
1938,1840,1776
1956,1870,1836
1945,1903,1890
1925,1874,1844
1935,1851,1783
1937,1873,1813
1913,1888,1853
1904,1855,1820
1923,1833,1787
1938,1863,1826
1921,1886,1877
1914,1856,1832
1922,1837,1776
1931,1856,1823
1918,1884,1875
1904,1849,1835
1914,1819,1787
1925,1853,1822
1907,1872,1877
1889,1840,1836
1899,1813,1776
1902,1842,1819
1885,1865,1871
1886,1842,1829
1885,1817,1782
1894,1840,1819
1879,1863,1866
1881,1840,1824
1894,1815,1782
1887,1840,1826
1857,1868,1866
1857,1839,1824
1863,1813,1774
1873,1836,1808
1856,1851,1859
1851,1825,1823
1861,1802,1770
1866,1837,1813
1853,1861,1866
1843,1830,1827
1856,1807,1744
1858,1826,1785
1838,1863,1858
1831,1822,1803
1839,1792,1728
1845,1822,1779
1829,1849,1845
1826,1819,1835
1834,1789,1739
1829,1814,1782
1821,1840,1834
1804,1807,1787
1812,1771,1739
1821,1807,1777
1808,1825,1819
1807,1798,1775
1808,1767,1711
1813,1793,1781
1805,1810,1866
1789,1781,1779
1795,1751,1686
1814,1777,1749
1799,1803,1809
1787,1775,1789
1801,1750,1683
1811,1776,1764
1802,1795,1837
1795,1766,1789
1813,1749,1699
1815,1776,1791
1801,1797,1788
1792,1776,1746
1803,1751,1722
1812,1782,1767
1798,1810,1819
1794,1785,1749
1812,1749,1720
1817,1776,1797
1794,1803,1808
1791,1788,1776
1813,1764,1730
1815,1779,1781
1791,1808,1831
1785,1787,1776
1802,1763,1730
1812,1791,1779
1796,1819,1822
1797,1791,1805
1808,1767,1738
1813,1791,1778
1792,1813,1824
1783,1789,1779
1808,1774,1746
1814,1803,1805
1803,1830,1837
1793,1799,1840
1807,1776,1742
1803,1799,1744
1787,1827,1813
1775,1799,1813
1783,1771,1739
1798,1790,1741
1791,1813,1835
1778,1791,1831
1790,1762,1782
1793,1790,1764
1779,1811,1803
1772,1782,1778
1777,1758,1733
1792,1787,1778
1777,1817,1842
1767,1789,1810
1777,1764,1681
1776,1787,1771
1776,1809,1820
1766,1776,1787
1776,1754,1776
1776,1776,1734
1762,1793,1814
1747,1757,1764
1763,1733,1711
1765,1768,1753
1760,1794,1810
1747,1765,1766
1758,1733,1714
1760,1754,1735
1744,1773,1787
1730,1739,1775
1746,1713,1690
1760,1742,1703
1744,1762,1751
1730,1735,1794
1745,1707,1709
1742,1726,1623
1718,1744,1743
1705,1716,1728
1712,1690,1683
1728,1712,1689
1713,1735,1770
1699,1696,1711
1710,1661,1654
1712,1686,1676
1695,1719,1723
1680,1683,1683
1707,1658,1638
1712,1680,1659
1682,1705,1713
1683,1684,1685
1700,1653,1684
1695,1664,1696
1675,1698,1690
1680,1679,1664
1695,1650,1585
1701,1683,1641
1703,1728,1786
1696,1723,1758
1712,1657,1681
1722,1664,1665
1712,1702,1795
1715,1694,1661
1735,1674,1646
1744,1706,1728
1712,1714,1736
1707,1691,1774
1735,1681,1626
1743,1719,1760
1733,1751,1791
1726,1727,1731
1736,1711,1677
1758,1731,1698
1769,1781,1765
1769,1755,1755
1754,1712,1681
1744,1729,1753
1733,1760,1776
1750,1758,1739
1770,1761,1662
1763,1763,1739
1761,1787,1812
1808,1771,1749
1791,1712,1729
1782,1754,1754
1738,1810,1776
1755,1794,1754
1787,1693,1739
1779,1697,1697
1730,1755,1779
1680,1794,1730
1748,1714,1713
1779,1691,1763
1729,1707,1798
1644,1675,1667
1607,1680,1658
1597,1713,1697
1552,1730,1813
1470,1657,1621
1535,1700,1621
1535,1764,1760
1409,1733,1685
1383,1736,1686
1434,1763,1633
1482,1845,1632
1481,1886,1691
1346,1777,1593
1264,1728,1581
1303,1849,1575
1473,1984,1625
1392,1898,1579
1253,1827,1520
1280,1885,1564
1223,1890,1629
1218,1917,1563
1249,1913,1526
1267,1923,1535
1257,1978,1616
1281,1984,1595
1280,1971,1535
1200,1934,1590
1199,2026,1629
1168,2038,1566
1117,2012,1490
1031,1975,1535
987,2039,1633
1040,2045,1586
966,2005,1495
979,2085,1490
1023,2174,1584
909,2150,1586
807,2062,1518
844,2109,1535
903,2189,1631
910,2183,1535
985,2176,1511
941,2210,1612
939,2270,1728
880,2213,1619
898,2171,1527
917,2257,1659
976,2310,1776
950,2288,1691
926,2206,1586
909,2249,1667
850,2293,1693
910,2259,1714
871,2226,1729
863,2218,1682
916,2253,1728
976,2253,1708
1046,2256,1712
970,2299,1764
982,2306,1803
918,2243,1829
938,2224,1762
816,2266,1791
787,2310,1885
663,2275,1808
598,2250,1828
579,2273,1907
587,2342,2000
639,2353,1966
633,2318,1901
511,2304,1872
583,2371,1988
545,2290,1962
547,2329,1951
559,2407,2017
594,2365,2087
566,2337,2035
609,2338,1959
567,2331,1961
563,2368,2125
578,2334,2046
635,2352,1977
719,2384,2095
686,2429,2101
656,2364,2135
658,2345,2185
790,2449,2163
756,2430,2183
721,2352,2137
731,2298,2142
777,2359,2173
832,2444,2249
835,2395,2193
817,2342,2094
851,2359,2155
791,2409,2158
891,2339,2239
833,2310,2203
855,2346,2192
884,2359,2207
944,2370,2215
1032,2354,2222
1063,2384,2265
1019,2365,2249
970,2328,2224
1104,2308,2250
1063,2318,2270
1055,2363,2314
1082,2326,2175
1091,2267,2163
1136,2279,2242
1162,2329,2310
1227,2305,2298
1198,2230,2223
1211,2287,2200
1237,2334,2321
1244,2285,2289
1227,2186,2189
1242,2205,2224
1250,2236,2242
1328,2256,2275
1330,2207,2215
1267,2235,2195
1232,2201,2220
1290,2165,2192
1373,2126,2176
1290,2128,2192
1430,2209,2240
1405,2144,2093
1296,2061,2096
1325,2067,2143
1303,2072,2188
1343,2028,2141
1373,2000,2076
1424,2055,2133
1421,2058,2147
1440,2058,2122
1470,1968,2113
1391,1910,2079
1401,1959,2278
1438,1971,2110
1439,1937,2115
1369,1874,1633
1412,1936,1685
1409,1856,1808
1451,1840,1854
1488,1895,1840
1466,1904,1829
1484,1888,1824
1567,1860,1826
1567,1904,1827
1607,1958,1829
1520,1885,1826
1525,1818,1829
1577,1856,1831
1585,1882,1826
1631,1858,1829
1611,1852,1826
1602,1865,1828
1639,1887,1827
1676,1840,1828
1612,1803,1823
1728,1836,1827
1616,1871,1830
1707,1818,1825
1718,1781,1827
1760,1830,1828
1703,1834,1830
1718,1791,1826
1734,1790,1825
1687,1811,1827
1755,1838,1829
1744,1783,1824
1680,1778,1817
1694,1790,1867
1758,1798,1914
1774,1781,1899
1775,1751,1846
1849,1788,1885
1845,1835,1971
1805,1802,1924
1816,1749,1850
1857,1779,1872
1854,1840,1968
1808,1800,1921
1941,1771,1851
1891,1776,1851
1905,1823,1957
1857,1794,1904
1842,1771,1841
1918,1851,1920
1963,1813,1951
1958,1805,1936
1965,1770,1842
2043,1819,1933
2019,1851,1985
1951,1815,1943
1954,1799,1840
2023,1828,1914
2018,1826,1970
1948,1802,1955
2022,1789,1879
2002,1813,1895
2021,1871,2003
2000,1808,1951
2042,1797,1889
2047,1806,1893
2037,1842,1963
2031,1811,1936
2061,1765,1861
2054,1790,1904
2068,1861,1958
2034,1807,1919
2071,1814,1916
2067,1793,1933
2075,1815,1945
2047,1782,1908
2054,1749,1853
2117,1818,1945
2073,1808,1945
2069,1803,1913
2090,1776,1847
2096,1798,1904
2115,1840,1963
2096,1796,1923
2126,1763,1869
2135,1795,1930
2098,1810,1959
2085,1772,1886
2145,1760,1846
2188,1824,1940
2167,1840,1952
2090,1758,1890
2125,1772,1862
2166,1824,1897
2103,1791,1927
2109,1744,1907
2138,1755,1858
2168,1803,1924
2133,1837,1962
2121,1808,1865
2182,1814,1894
2209,1811,1942
2160,1781,1951
2159,1790,1947
2197,1781,1895
2159,1794,1879
2135,1793,1879
2185,1831,1869
2178,1760,1854
2177,1786,1921
2158,1834,1979
2160,1787,1946
2211,1785,1867
2222,1795,1907
2189,1837,2010
2179,1808,1951
2192,1756,1809
2212,1785,1856
2185,1852,1985
2137,1805,1935
2192,1779,1866
2231,1805,1919
2177,1809,1939
2161,1808,1893
2192,1777,1856
2199,1818,1910
2192,1839,1971
2183,1790,1909
2203,1803,1813
2176,1808,1860
2190,1795,1937
2199,1797,1939
2160,1769,1830
2161,1795,1846
2157,1809,1918
2153,1776,1897
2201,1766,1875
2229,1813,1875
2193,1863,1947
2159,1808,1911
2163,1731,1841
2171,1759,1845
2172,1813,1931
2176,1802,1904
2199,1775,1833
2191,1790,1838
2164,1818,1904
2131,1793,1874
2155,1769,1819
2176,1781,1857
2169,1803,1918
2160,1787,1869
2166,1791,1840
2222,1843,1882
2187,1833,1957
2149,1806,1861
2163,1759,1829
2178,1790,1859
2156,1840,1905
2159,1831,1874
2181,1810,1825
2202,1811,1876
2157,1839,1927
2160,1824,1907
2177,1794,1829
2131,1777,1792
2161,1830,1890
2175,1829,1901
2165,1775,1872
2176,1809,1887
2158,1840,1905
2177,1827,1869
2207,1822,1825
2187,1830,1843
2127,1840,1891
2108,1777,1818
2157,1778,1802
2171,1856,1873
2166,1875,1923
2165,1835,1886
2187,1822,1838
2182,1828,1845
2112,1823,1865
2098,1808,1840
2156,1792,1807
2160,1823,1808
2124,1831,1845
2123,1808,1847
2143,1801,1818
2161,1822,1855
2142,1856,1854
2094,1776,1798
2166,1791,1841
2178,1838,1874
2098,1840,1903
2110,1810,1856
2126,1786,1751
2127,1795,1801
2127,1850,1904
2112,1827,1856
2111,1774,1787
2124,1802,1835
2118,1853,1904
2107,1826,1852
2122,1794,1778
2151,1845,1826
2130,1852,1889
2098,1820,1809
2118,1787,1768
2125,1808,1821
2094,1831,1865
2081,1779,1775
2111,1778,1755
2113,1811,1809
2082,1850,1877
2095,1822,1829
2098,1776,1776
2111,1846,1808
2123,1826,1877
2096,1823,1869
2116,1872,1806
2069,1779,1767
2045,1790,1854
2032,1846,1761
2113,1831,1754
2125,1766,1810
2059,1823,1880
2027,1858,1826
2091,1795,1745
2082,1775,1776
2064,1830,1805
2032,1765,1808
2070,1839,1790
2094,1829,1837
2064,1851,1873
2073,1749,1840
2090,1762,1739
2047,1802,1744
2002,1793,1847
2026,1819,1833
2067,1806,1727
2077,1873,1776
2000,1790,1817
2013,1803,1842
2062,1849,1766
2036,1807,1759
1995,1840,1811
2001,1844,1776
2064,1751,1730
2107,1826,1829
2012,1821,1856
1965,1779,1826
1999,1821,1765
2065,1872,1804
2027,1840,1853
2006,1812,1806
2026,1780,1758
2037,1806,1790
1984,1779,1828
1952,1838,1786
1990,1783,1731
2074,1855,1813
2035,1888,1919
1997,1834,1850
2040,1831,1787
2057,1813,1792
1995,1846,1846
2001,1798,1823
2031,1833,1745
2007,1852,1769
1980,1840,1871
1999,1872,1872
2004,1809,1791
1993,1874,1776
1978,1827,1841
1984,1857,1840
2024,1826,1783
2006,1793,1824
2000,1900,1904
2001,1837,1845
2064,1870,1801
1993,1888,1802
1991,1894,1882
1994,1839,1892
1998,1819,1761
1978,1790,1765
1994,1870,1893
2029,1910,1904
2017,1856,1823
2019,1825,1839
1962,1861,1850
1970,1840,1827
2017,1819,1778
2041,1880,1838
1995,1893,1870
1969,1857,1823
1964,1809,1760
1966,1865,1838
2007,1937,1925
1984,1867,1849
1959,1805,1776
1963,1833,1818
1933,1857,1862
1968,1840,1840
2010,1807,1771
2023,1991,1873
1943,1849,1892
1918,1816,1797
1968,1839,1775
2002,1858,1821
1969,1904,1899
1931,1856,1862
1979,1870,1785
1995,1840,1833
1926,1877,1870
1920,1872,1867
1936,1821,1775
2000,1859,1792
1981,1890,1879
1918,1847,1858
1893,1791,1786
1950,1847,1793
1969,1883,1872
1988,1871,1881
1937,1859,1776
1895,1797,1774
1888,1823,1840
1955,1879,1862
1975,1853,1803
1909,1808,1805
1882,1853,1822
1935,1870,1845
1959,1781,1808
1931,1909,1795
1916,1841,1855
1879,1817,1850
1934,1830,1814
1951,1844,1783
1904,1926,1845
1892,1802,1841
1923,1780,1774
1927,1905,1787
1897,1856,1839
1909,1884,1869
1931,1824,1789
1936,1830,1827
1877,1847,1842
1859,1824,1806
1905,1821,1782
1931,1853,1840
1936,1798,1905
1871,1840,1813
1903,1779,1780
1909,1806,1790
1891,1883,1857
1857,1827,1805
1891,1783,1756
1921,1867,1840
1871,1871,1865
1874,1840,1823
1919,1773,1793
1888,1862,1804
1868,1840,1840
1872,1843,1823
1920,1838,1808
1950,1905,1856
1871,1869,1859
1866,1811,1805
1919,1808,1802
1913,1879,1838
1854,1782,1865
1851,1947,1845
1874,1840,1811
1851,1787,1765
1872,1888,1826
1886,1850,1837
1907,1899,1837
1888,1856,1834
1866,1895,1874
1848,1856,1840
1894,1807,1823
1903,1866,1846
1901,1902,1879
1872,1830,1807
1872,1833,1786
1840,1847,1806
1819,1857,1870
1855,1850,1845
1885,1830,1782
1895,1858,1808
1897,1892,1887
1840,1853,1814
1856,1815,1774
1853,1841,1811
1867,1901,1884
1878,1872,1855
1856,1810,1745
1868,1840,1821
1851,1862,1885
1851,1841,1817
1885,1839,1775
1874,1857,1841
1834,1875,1885
1839,1861,1837
1865,1824,1781
1878,1847,1814
1879,1899,1892
1862,1867,1841
1873,1833,1779
1886,1859,1817
1862,1878,1888
1856,1853,1847
1867,1823,1808
1894,1872,1850
1862,1874,1888
1845,1859,1798
1874,1831,1743
1861,1834,1796
1840,1855,1906
1840,1836,1851
1885,1820,1785
1925,1885,1868
1871,1904,1907
1783,1840,1808
1821,1808,1757
1854,1841,1808
1867,1889,1881
1853,1863,1842
1841,1806,1781
1848,1857,1812
1847,1887,1887
1847,1845,1839
1843,1808,1744
1867,1862,1840
1856,1904,1921
1847,1879,1869
1846,1850,1787
1869,1853,1788
1919,1903,1936
1877,1889,1875
1835,1837,1763
1809,1838,1776
1852,1882,1869
1810,1826,1795
1839,1808,1783
1837,1849,1833
1865,1921,1936
1852,1869,1858
1846,1818,1758
1872,1872,1826
1866,1915,1924
1831,1885,1860
1835,1837,1775
1863,1843,1823
1827,1872,1855
1831,1862,1858
1840,1856,1807
1829,1861,1794
1857,1904,1859
1842,1861,1872
1843,1835,1821
1846,1863,1825
1831,1891,1893
1863,1880,1885
1874,1858,1827
1835,1840,1803
1844,1904,1877
1867,1876,1861
1846,1819,1743
1837,1844,1779
1821,1861,1879
1809,1865,1869
1820,1838,1829
1844,1874,1854
1840,1877,1900
1856,1872,1872
1878,1859,1830
1851,1872,1841
1830,1904,1904
1826,1866,1870
1850,1840,1803
1870,1870,1839
1874,1914,1918
1840,1897,1856
1820,1823,1793
1831,1851,1821
1829,1875,1874
1834,1857,1809
1820,1827,1795
1844,1872,1866
1856,1925,1948
1833,1858,1846
1883,1842,1788
1833,1840,1787
1790,1889,1874
1828,1872,1891
1842,1833,1821
1881,1879,1853
1825,1877,1872
1778,1824,1773
1840,1827,1775
1898,1895,1925
1847,1913,1933
1802,1834,1821
1824,1835,1762
1867,1868,1819
1841,1879,1903
1789,1840,1851
1807,1829,1760
1829,1840,1780
1872,1905,1929
1831,1873,1902
1821,1827,1799
1839,1839,1811
1821,1853,1869
1779,1824,1813
1812,1814,1762
1838,1840,1808
1808,1880,1904
1807,1843,1899
1831,1813,1758
1813,1840,1783
1778,1844,1845
1767,1813,1849
1834,1842,1837
1863,1861,1855
1803,1845,1873
1776,1826,1838
1792,1781,1760
1833,1835,1805
1817,1867,1873
1787,1840,1910
1827,1820,1813
1838,1833,1782
1813,1842,1813
1783,1821,1840
1791,1808,1747
1828,1840,1853
1825,1871,1878
1814,1840,1882
1822,1847,1814
1822,1866,1899
1815,1889,1927
1803,1837,1842
1812,1791,1808
1826,1833,1793
1814,1882,1892
1814,1854,1821
1828,1818,1799
1806,1845,1786
1796,1894,1895
1807,1871,1872
1843,1840,1792
1851,1828,1756
1813,1873,1893
1791,1871,1903
1792,1827,1749
1806,1833,1782
1811,1869,1858
1810,1860,1898
1831,1838,1802
1823,1867,1757
1776,1877,1872
1782,1838,1812
1827,1803,1796
1872,1843,1779
1839,1898,1882
1835,1862,1874
1839,1829,1791
1776,1839,1783
1776,1878,1872
1793,1850,1839
1846,1851,1838
1853,1876,1904
1812,1874,1842
1807,1853,1821
1813,1808,1755
1807,1829,1825
1811,1881,1920
1803,1852,1840
1803,1798,1766
1838,1869,1845
1850,1904,1903
1839,1840,1859
1809,1810,1809
1802,1834,1825
1808,1883,1904
1865,1903,1878
1840,1828,1780
1830,1840,1799
1825,1879,1889
1781,1831,1877
1790,1802,1792
1821,1837,1791
1799,1886,1931
1803,1887,1825
1840,1871,1802
1824,1850,1863
1808,1855,1904
1782,1840,1887
1798,1870,1793
1845,1911,1896
1777,1860,1839
1764,1821,1824
1813,1840,1778
1798,1853,1810
1753,1873,1898
1744,1841,1819
1774,1825,1790
1805,1863,1815
1760,1863,1894
1717,1851,1886
1735,1826,1778
1766,1856,1840
1760,1906,1919
1731,1857,1831
1744,1817,1767
1744,1819,1803
1693,1857,1853
1702,1854,1897
1752,1827,1931
1758,1854,1842
1728,1873,1949
1711,1871,1793
1713,1825,1777
1697,1826,1823
1690,1873,1872
1702,1861,1861
1732,1852,1813
1719,1831,1802
1710,1874,1857
1712,1869,1855
1699,1822,1833
1681,1840,1838
1691,1879,1891
1686,1849,1850
1689,1823,1760
1702,1843,1866
1713,1922,1931
1673,1843,1855
1648,1780,1758
1685,1840,1778
1710,1894,1890
1680,1887,1902
1686,1811,1776
1676,1808,1810
1651,1827,1851
1629,1826,1808
1658,1835,1843
1716,1874,1819
1680,1878,1867
1664,1859,1902
1664,1802,1816
1665,1830,1806
1647,1865,1903
1651,1851,1862
1691,1836,1737
1725,1862,1839
1661,1848,1903
1631,1826,1760
1663,1815,1786
1685,1840,1800
1680,1873,1907
1650,1840,1850
1685,1808,1758
1680,1825,1809
1650,1875,1935
1658,1856,1863
1735,1855,1856
1698,1812,1827
1679,1846,1863
1642,1836,1853
1663,1811,1753
1679,1824,1842
1668,1877,1903
1669,1854,1865
1711,1820,1808
1712,1831,1810
1694,1911,1920
1659,1870,1800
1685,1808,1810
1739,1833,1889
1706,1847,1905
1653,1833,1823
1689,1815,1792
1728,1846,1857
1706,1843,1895
1673,1853,1839
1693,1814,1763
1738,1869,1832
1685,1879,1867
1675,1828,1854
1712,1787,1815
1727,1838,1852
1712,1856,1856
1697,1843,1847
1703,1809,1807
1738,1815,1835
1740,1873,1887
1725,1874,1869
1712,1823,1777
1725,1856,1838
1730,1831,1889
1705,1808,1843
1737,1821,1778
1747,1862,1826
1743,1899,1887
1695,1813,1856
1718,1802,1808
1743,1840,1823
1753,1881,1893
1771,1861,1897
1757,1814,1795
1741,1838,1799
1730,1853,1890
1724,1808,1824
1769,1807,1781
1755,1840,1840
1728,1858,1872
1763,1843,1850
1769,1808,1789
1753,1823,1818
1745,1855,1876
1733,1812,1839
1770,1807,1812
1750,1840,1851
1758,1855,1920
1710,1830,1827
1782,1791,1755
1789,1811,1835
1762,1849,1902
1759,1826,1819
1738,1775,1776
1830,1823,1851
1772,1838,1879
1745,1811,1815
1725,1802,1772
1749,1830,1842
1792,1897,1910
1794,1853,1835
1785,1770,1751
1789,1808,1842
1827,1861,1897
1746,1833,1833
1803,1818,1799
1776,1838,1812
1784,1872,1856
1763,1845,1861
1739,1798,1790
1761,1827,1824
1746,1856,1863
1831,1862,1856
1759,1829,1801
1790,1826,1810
