1877,1840,1773
1921,1879,1831
1862,1888,1870
1815,1847,1828
1834,1824,1782
1883,1882,1829
1862,1889,1883
1851,1869,1847
1865,1845,1754
1845,1822,1774
1825,1877,1865
1847,1872,1846
1856,1845,1783
1861,1866,1808
1850,1903,1862
1857,1873,1843
1850,1835,1756
1869,1852,1863
1861,1890,1877
1843,1890,1840
1845,1833,1742
1871,1873,1783
1882,1919,1946
1839,1868,1901
1813,1808,1765
1838,1853,1783
1845,1903,1814
1842,1884,1837
1851,1839,1834
1872,1856,1833
1860,1911,1920
1841,1875,1796
1871,1850,1795
1863,1839,1750
1854,1872,1835
1831,1859,1842
1843,1856,1824
1905,1915,1817
1849,1911,1903
1827,1871,1827
1831,1817,1760
1833,1840,1783
1834,1907,1881
1825,1862,1808
1855,1843,1779
1858,1854,1835
1836,1885,1891
1842,1874,1888
1877,1861,1797
1859,1861,1821
1846,1902,1871
1856,1894,1893
1835,1813,1776
1836,1827,1797
1835,1872,1879
1858,1872,1863
1873,1851,1795
1843,1828,1792
1847,1894,1904
1860,1870,1872
1872,1825,1793
1879,1838,1808
1862,1883,1867
1835,1879,1849
1866,1860,1822
1886,1865,1835
1847,1865,1850
1830,1840,1839
1848,1819,1776
1871,1846,1823
1855,1895,1888
1825,1853,1872
1845,1830,1798
1902,1871,1847
1902,1883,1929
1817,1825,1864
1811,1809,1744
1870,1875,1847
1827,1863,1895
1854,1859,1899
1899,1841,1788
1910,1865,1891
1855,1872,1854
1839,1862,1881
1860,1831,1794
1863,1863,1870
1865,1871,1894
1837,1854,1897
1840,1819,1781
1889,1856,1837
1883,1893,1879
1850,1869,1840
1830,1814,1767
1863,1863,1851
1868,1886,1901
1841,1843,1823
1898,1859,1828
1920,1867,1840
1862,1873,1891
1815,1855,1851
1850,1825,1781
1874,1869,1840
1867,1889,1909
1848,1863,1872
1853,1828,1877
1868,1870,1819
1840,1891,1875
1837,1857,1785
1871,1823,1767
1882,1845,1797
1859,1901,1881
1847,1872,1882
1856,1831,1899
1867,1841,1814
1846,1889,1875
1834,1868,1766
1870,1837,1809
1904,1887,1877
1853,1887,1865
1808,1830,1776
1840,1827,1783
1861,1855,1817
1863,1901,1908
1874,1876,1890
1875,1831,1817
1856,1831,1801
1843,1873,1863
1830,1859,1847
1843,1830,1791
1878,1856,1808
1875,1887,1845
1829,1840,1793
1854,1813,1775
1875,1851,1812
1869,1889,1874
1849,1869,1855
1851,1834,1766
1904,1856,1895
1885,1908,1917
1808,1845,1811
1831,1808,1746
1855,1827,1815
1879,1893,1920
1853,1847,1840
1866,1822,1735
1866,1851,1849
1844,1873,1901
1858,1885,1874
1858,1833,1735
1872,1841,1809
1862,1875,1935
1843,1855,1829
1892,1842,1782
1839,1807,1789
1835,1863,1834
1857,1829,1809
1842,1814,1794
1867,1861,1853
1903,1904,2000
1851,1852,1851
1840,1809,1766
1869,1856,1813
1866,1889,1869
1861,1856,1853
1856,1833,1773
1877,1859,1843
1834,1862,1892
1825,1853,1872
1872,1834,1835
1893,1830,1758
1860,1866,1869
1853,1867,1903
1853,1831,1738
1856,1855,1839
1858,1899,1858
1872,1879,1891
1872,1840,1726
1872,1866,1861
1860,1900,1913
1883,1900,1817
1872,1842,1804
1859,1853,1811
1843,1879,1883
1903,1885,1899
1890,1819,1774
1859,1844,1809
1878,1918,1937
1840,1863,1851
1846,1824,1783
1888,1857,1846
1879,1899,1911
1834,1866,1841
1859,1843,1818
1872,1870,1850
1876,1905,1906
1863,1873,1890
1854,1840,1821
1839,1814,1791
1919,1907,1905
1885,1889,1917
1852,1826,1824
1840,1840,1799
1854,1890,1904
1836,1855,1858
1868,1824,1775
1897,1838,1808
1872,1900,1908
1855,1889,1892
1852,1839,1790
1877,1866,1836
1820,1889,1896
1843,1862,1849
1915,1856,1808
1965,1878,1878
1845,1876,1899
1840,1853,1856
1927,1833,1813
1874,1855,1841
1888,1905,1907
1874,1867,1877
1832,1808,1777
1898,1853,1827
1844,1901,1928
1906,1883,1885
1840,1839,1815
1923,1843,1827
1889,1914,1915
1878,1872,1866
1845,1813,1803
1890,1840,1861
1853,1878,1904
1839,1857,1859
1889,1840,1819
1912,1853,1815
1875,1887,1904
1862,1845,1874
1856,1823,1789
1937,1853,1843
1893,1886,1935
1857,1887,1913
1897,1857,1820
1862,1825,1776
1874,1874,1877
1920,1863,1895
1891,1814,1822
1853,1845,1868
1860,1898,1914
1831,1883,1904
1856,1830,1792
1889,1843,1825
1851,1866,1887
1846,1840,1845
1904,1856,1814
1873,1854,1824
1835,1861,1869
1876,1846,1867
1889,1851,1831
1905,1856,1840
1919,1906,1919
1856,1860,1842
1870,1810,1774
1824,1856,1830
1875,1887,1885
1854,1841,1856
1872,1862,1825
1931,1856,1843
1855,1862,1894
1878,1841,1851
1860,1815,1777
1872,1840,1818
1907,1915,1927
1841,1869,1877
1865,1823,1793
1857,1831,1806
1839,1879,1889
1835,1868,1890
1856,1831,1839
1851,1841,1826
1867,1856,1875
1892,1850,1850
1837,1823,1815
1875,1849,1840
1840,1883,1926
1822,1861,1872
1835,1830,1797
1985,1857,1863
1923,1890,1906
1855,1863,1854
1881,1822,1792
1894,1837,1822
1870,1879,1911
1837,1840,1854
1883,1828,1819
1889,1821,1825
1872,1861,1897
1842,1828,1851
1881,1808,1805
1913,1842,1867
1904,1875,1901
1808,1850,1851
1890,1808,1780
1763,1834,1803
1906,1893,1921
1865,1841,1895
1892,1799,1789
1878,1809,1803
1875,1849,1892
1852,1819,1858
1901,1795,1808
1902,1817,1862
1890,1840,1911
1847,1808,1843
1857,1788,1789
1882,1814,1827
1900,1835,1909
1899,1825,1902
1847,1792,1804
1841,1805,1823
1849,1837,1888
1837,1805,1856
1919,1753,1792
1852,1776,1823
1904,1843,1910
1805,1807,1855
1827,1761,1779
1829,1774,1818
1901,1824,1920
1794,1819,1872
1927,1798,1802
1861,1787,1811
1794,1799,1872
1827,1806,1897
1835,1731,1775
1887,1774,1841
1855,1809,1896
1814,1803,1857
1863,1747,1763
1873,1759,1827
1885,1797,1931
1853,1792,1854
1758,1728,1744
1872,1765,1804
1855,1827,1906
1872,1804,1903
1874,1741,1810
1843,1723,1781
1835,1782,1874
1863,1807,1885
1869,1765,1810
1856,1774,1822
1863,1795,1890
1847,1766,1866
1849,1731,1776
1875,1755,1808
1846,1808,1913
1783,1773,1870
1845,1728,1787
1895,1765,1829
1887,1785,1887
1817,1761,1889
1851,1714,1794
1942,1743,1791
1809,1775,1862
1815,1726,1822
1885,1730,1818
1917,1744,1836
1867,1777,1888
1814,1732,1812
1869,1691,1745
1906,1697,1791
1903,1759,1917
1819,1754,1879
1831,1709,1787
1949,1741,1808
1875,1760,1917
1833,1727,1862
1828,1686,1762
1873,1713,1782
1884,1761,1901
1857,1735,1872
1840,1680,1770
1882,1717,1811
1877,1750,1885
1851,1723,1853
1840,1716,1817
1879,1733,1806
1845,1745,1827
1807,1695,1808
1866,1703,1781
1910,1747,1861
1889,1773,1917
1852,1740,1845
1866,1693,1789
1862,1705,1826
1859,1755,1894
1840,1732,1852
1855,1683,1778
1882,1731,1835
1858,1766,1876
1851,1749,1872
1863,1702,1803
1895,1716,1797
1877,1743,1819
1855,1750,1857
1845,1705,1798
1887,1719,1870
1902,1782,1933
1845,1774,1867
1840,1706,1746
1861,1703,1779
1936,1810,1935
1872,1790,1888
1840,1703,1777
1829,1700,1735
1886,1775,1840
1879,1765,1861
1872,1745,1805
1839,1735,1797
1910,1758,1782
1853,1749,1831
1904,1760,1834
1911,1787,1861
1858,1726,1717
1872,1706,1742
1977,1753,1847
1942,1777,1889
1839,1827,1919
1819,1802,1849
1891,1771,1829
1931,1776,1875
1862,1824,1872
1805,1781,1837
1825,1731,1754
1892,1777,1883
1908,1849,1970
1881,1821,1883
1852,1753,1808
1913,1783,1855
1893,1809,1899
1846,1759,1817
1904,1771,1776
1871,1808,1803
1862,1815,1919
1837,1796,1919
1851,1801,1859
1854,1775,1780
1904,1815,1822
1877,1770,1891
1885,1777,1921
1876,1796,1902
1929,1854,1901
1882,1824,1837
1851,1764,1791
1827,1772,1806
1869,1840,1920
1887,1851,1856
1887,1791,1856
1850,1739,1806
1891,1840,1878
1879,1842,1856
1886,1808,1824
1920,1846,1893
1825,1842,1875
1827,1798,1840
1873,1766,1730
1907,1858,1899
1851,1859,1931
1887,1840,1887
1891,1777,1751
1902,1836,1866
1883,1888,1985
1840,1846,1917
1841,1793,1823
1812,1806,1776
1859,1847,1849
1868,1863,1938
1840,1798,1847
1878,1819,1797
1927,1922,1942
1871,1858,1883
1884,1822,1791
1873,1831,1771
1845,1872,1916
1808,1803,1822
1878,1823,1822
1950,1883,1837
1895,1893,1904
1813,1867,1939
1808,1814,1808
1920,1874,1887
1911,1904,1895
1809,1843,1810
1814,1814,1803
1858,1827,1826
1877,1884,1918
1839,1862,1890
1838,1809,1775
1872,1831,1806
1858,1911,1948
1854,1925,1945
1871,1840,1774
1947,1892,1819
1907,1890,1920
1769,1825,1886
1786,1817,1819
1831,1850,1819
1885,1899,1916
1858,1870,1890
1855,1853,1783
1876,1858,1818
1840,1879,1904
1865,1897,1892
1889,1835,1776
1859,1835,1807
1790,1859,1874
1815,1874,1872
1878,1865,1779
1887,1868,1840
1833,1889,1930
1809,1877,1872
1839,1871,1820
1886,1872,1808
1869,1891,1854
1879,1886,1872
1871,1794,1849
1835,1854,1839
1840,1858,1867
1823,1954,1877
1855,1893,1807
1882,1840,1826
1856,1874,1879
1843,1933,1861
1824,1802,1787
1864,1821,1857
1876,1951,1931
1872,1867,1889
1900,1860,1813
1886,1904,1815
1853,1920,1874
1819,1875,1840
1847,1869,1827
1873,1831,1855
1867,1945,1915
1837,1920,1849
1865,1831,1806
1863,1888,1838
1843,1908,1904
1833,1892,1866
1915,1870,1805
1895,1873,1846
1858,1932,1904
1795,1822,1819
1833,1786,1761
1874,1907,1863
1887,1922,1941
1867,1898,1889
1856,1856,1731
1863,1875,1771
1856,1898,1894
1840,1904,1866
1857,1809,1815
1893,1904,1846
1855,1920,1878
1820,1894,1867
1855,1857,1800
1881,1900,1857
1859,1913,1905
1857,1865,1858
1840,1847,1728
1899,1888,1806
1829,1899,1888
1813,1874,1856
1855,1854,1782
1927,1883,1873
1887,1933,1916
1841,1914,1886
1840,1883,1778
1894,1875,1814
1863,1920,1904
1821,1955,1871
1815,1771,1745
1905,1916,1823
1885,1935,1913
1876,1854,1878
1878,1856,1781
1861,1840,1757
1907,1979,1950
1875,1959,1931
1847,1822,1774
1904,1838,1845
1845,1892,1869
1834,1893,1870
1889,1865,1811
1897,1872,1808
1879,1890,1886
1870,1857,1845
1875,1840,1761
1899,1830,1843
1891,1961,1934
1886,1923,1901
1862,1862,1787
1851,1850,1822
1850,1904,1888
1843,1876,1844
1840,1831,1744
1893,1875,1830
1892,1936,1933
1873,1914,1879
1865,1840,1778
1883,1861,1804
1903,1907,1926
1852,1891,1915
1853,1882,1810
1885,1826,1812
1884,1920,1904
1854,1817,1877
1854,1969,1751
1872,1904,1798
1879,1914,1898
1870,1878,1898
1865,1799,1833
1892,1883,1840
1883,1884,1877
1867,1891,1866
1874,1786,1835
1905,1893,1822
1889,1924,1910
1840,1872,1900
1821,1839,1782
1861,1843,1785
1851,1872,1851
1872,1887,1885
1897,1861,1834
1889,1872,1840
1869,1899,1903
1879,1872,1891
1859,1855,1776
1878,1875,1778
1853,1968,1903
1833,1843,1878
1873,1857,1811
1892,1840,1831
1840,1917,1863
1861,1833,1882
1904,1858,1821
1902,1882,1846
1917,1936,1923
1857,1835,1857
1851,1802,1785
1863,1887,1815
1841,1854,1875
1857,1882,1840
1862,1850,1778
1890,1830,1840
1866,1901,1904
1872,1907,1889
1888,1885,1808
1857,1859,1818
1831,1920,1904
1835,1870,1857
1900,1839,1771
1911,1895,1875
1825,1855,1906
1809,1857,1843
1833,1879,1785
1869,1840,1823
1856,1894,1889
1872,1907,1871
1899,1914,1823
1877,1856,1813
1841,1856,1875
1809,1860,1869
1835,1839,1803
1914,1888,1840
1903,1901,1905
1871,1915,1869
1850,1815,1776
1856,1817,1809
1853,1980,1893
1856,1919,1891
1854,1872,1808
1857,1835,1819
1856,1803,1872
1858,1881,1846
1849,1846,1790
1856,1857,1817
1871,1939,1889
1871,1928,1900
1893,1873,1807
1853,1857,1776
1811,1862,1850
1861,1882,1875
1865,1861,1806
1885,1867,1815
1863,1898,1877
1840,1904,1863
1851,1885,1813
1861,1887,1804
1838,1879,1870
1867,1901,1912
1854,1849,1789
1840,1855,1775
1879,1921,1887
1872,1925,1919
1841,1847,1808
1887,1855,1822
1872,1908,1894
1811,1889,1843
1823,1856,1751
1868,1872,1807
1865,1907,1904
1871,1901,1899
1863,1853,1808
1854,1857,1776
1849,1878,1826
1878,1912,1875
1819,1836,1801
1831,1866,1824
1862,1918,1871
1861,1917,1862
1837,1856,1791
1847,1868,1808
1840,1911,1875
1840,1901,1877
1856,1853,1808
1856,1871,1809
1861,1919,1911
1895,1925,1893
1867,1869,1789
1852,1872,1808
1839,1920,1891
1840,1875,1847
1840,1865,1797
1839,1875,1797
1849,1915,1877
1815,1902,1853
1854,1861,1807
1918,1872,1837
1879,1909,1894
1861,1904,1877
1831,1853,1790
1839,1854,1775
1893,1924,1893
1878,1890,1882
1839,1849,1783
1829,1856,1795
1839,1910,1872
1857,1907,1843
1878,1862,1776
1856,1849,1773
1853,1904,1872
1869,1910,1923
1892,1877,1853
1872,1845,1791
1853,1883,1873
1838,1855,1850
1863,1833,1744
1872,1872,1801
1851,1920,1909
1850,1892,1858
1898,1854,1776
1907,1872,1806
1849,1893,1873
1808,1862,1853
1855,1861,1802
1914,1865,1831
1858,1899,1886
1849,1905,1872
1872,1875,1787
1894,1885,1795
1867,1917,1869
1871,1904,1892
1868,1863,1823
1845,1846,1801
1843,1886,1857
1863,1886,1805
1883,1867,1789
1919,1899,1886
1879,1904,1889
1843,1919,1856
1839,1836,1728
1871,1840,1782
1877,1904,1893
1857,1886,1891
1877,1869,1824
1858,1868,1790
1872,1920,1857
1892,1922,1845
1860,1845,1788
1863,1874,1801
1863,1935,1914
1883,1931,1875
1918,1884,1790
1840,1850,1808
1858,1941,1894
1855,1901,1823
1857,1827,1733
1829,1805,1761
1837,1857,1828
1857,1865,1849
1870,1837,1791
1869,1840,1822
1840,1839,1853
1879,1885,1840
1867,1858,1803
1834,1810,1718
1825,1871,1860
1856,1879,1875
1851,1807,1776
1832,1808,1770
1840,1867,1886
1843,1856,1877
1853,1833,1781
1866,1834,1781
1862,1888,1872
1841,1876,1837
1831,1803,1751
1844,1814,1807
1874,1907,1905
1846,1863,1874
1872,1814,1776
1824,1785,1732
1840,1840,1840
1835,1861,1840
1803,1777,1759
1847,1806,1787
1853,1870,1862
1806,1847,1829
1870,1823,1754
1840,1807,1748
1808,1847,1842
1826,1842,1846
1866,1798,1799
1837,1792,1738
1819,1856,1865
1781,1839,1847
1819,1775,1731
1840,1803,1738
1840,1872,1856
1872,1901,1909
1809,1776,1731
1815,1779,1736
1817,1840,1818
1838,1868,1827
1856,1810,1774
1891,1825,1842
1893,1842,1850
1780,1779,1756
1788,1765,1669
1863,1830,1774
1856,1885,1883
1859,1873,1921
1861,1823,1760
1872,1814,1818
1853,1851,1862
1840,1840,1808
1873,1808,1819
1877,1795,1763
1849,1830,1866
1842,1845,1915
1863,1807,1819
1911,1840,1837
1877,1850,1837
1839,1840,1839
1857,1806,1794
1872,1811,1805
1841,1840,1870
1821,1820,1840
1845,1809,1791
1891,1845,1849
1883,1866,1871
1853,1813,1872
1861,1777,1765
1865,1790,1763
1890,1851,1895
1859,1863,1926
1849,1796,1805
1889,1811,1766
1876,1840,1842
1824,1811,1854
1833,1793,1813
1888,1808,1815
1907,1853,1917
1847,1846,1848
1833,1801,1785
1872,1806,1827
1860,1850,1851
1857,1851,1872
1856,1783,1776
1867,1794,1793
1856,1847,1858
1872,1863,1840
1863,1803,1819
1875,1791,1754
1875,1849,1863
1863,1858,1867
1841,1780,1813
1857,1791,1790
1854,1841,1873
1847,1855,1843
1829,1801,1803
1859,1793,1840
1886,1870,1876
1825,1811,1874
1831,1806,1756
1872,1797,1846
1879,1862,1866
1840,1868,1854
1791,1773,1746
1831,1766,1777
1871,1831,1893
1853,1853,1812
1859,1809,1850
1920,1831,1840
1838,1821,1819
1808,1814,1769
1811,1806,1791
1797,1778,1755
1829,1849,1828
1888,1847,1895
1856,1795,1777
1839,1809,1762
1841,1841,1846
1891,1850,1777
1925,1834,1809
1815,1763,1778
1765,1801,1856
1814,1847,1854
1861,1808,1649
1845,1797,1731
1841,1869,1872
1833,1842,1801
1834,1793,1768
1843,1791,1815
1824,1829,1829
1870,1858,1887
1849,1802,1760
1845,1804,1829
1847,1855,1835
1845,1841,1835
1839,1808,1751
1829,1809,1746
1825,1819,1779
1852,1845,1840
1856,1803,1795
1831,1792,1774
1789,1825,1801
1808,1840,1795
1842,1795,1731
1874,1810,1779
1840,1862,1842
1823,1821,1829
1857,1825,1734
1861,1811,1728
1807,1826,1770
1811,1834,1835
1810,1776,1802
1839,1787,1776
1835,1836,1823
1781,1819,1761
1821,1828,1814
1874,1853,1798
1845,1837,1793
1847,1826,1836
1847,1786,1777
1833,1803,1822
1822,1856,1782
1810,1845,1908
1808,1787,1753
1830,1815,1745
1846,1856,1840
1827,1844,1867
1847,1819,1742
1840,1807,1755
1797,1835,1821
1807,1827,1826
1842,1797,1762
1857,1801,1746
1817,1857,1815
1817,1872,1812
1840,1820,1808
1868,1805,1771
1854,1873,1840
1805,1840,1789
1798,1765,1744
1834,1814,1853
1809,1859,1850
1805,1862,1859
1823,1827,1788
1895,1887,1809
1920,1937,1926
1839,1889,1885
1824,1871,1776
1846,1875,1783
1847,1924,1887
1881,1925,1851
1888,1882,1799
1891,1903,1847
1840,1906,1808
1818,1894,1831
1853,1846,1856
1856,1843,1814
1857,1889,1836
1886,1934,1845
1867,1857,1787
1842,1845,1799
1812,1884,1837
1837,1894,1874
1845,1846,1807
1881,1857,1776
1904,1926,1921
1839,1889,1872
1858,1834,1782
1856,1839,1787
1830,1902,1851
1846,1893,1861
1885,1870,1813
1922,1841,1805
1856,1898,1878
1810,1881,1881
1839,1818,1782
1904,1822,1825
1922,1919,1957
1865,1882,1885
1835,1838,1798
1893,1861,1822
1904,1925,1905
1879,1875,1849
1859,1824,1804
1871,1834,1806
1835,1879,1840
1854,1892,1890
1890,1847,1822
1913,1862,1831
1902,1880,1873
1898,1883,1894
1847,1845,1840
1842,1825,1777
1862,1904,1856
1887,1922,1885
1907,1849,1824
1904,1831,1811
1809,1887,1913
1863,1869,1917
1859,1857,1781
1866,1840,1730
1851,1858,1863
1904,1901,1975
1891,1843,1840
1904,1903,1826
1870,1904,1873
1882,1899,1868
1907,1851,1806
1898,1823,1833
1846,1872,1874
1861,1898,1868
1917,1854,1825
1901,1840,1841
1902,1927,1943
1879,1903,1920
1878,1837,1767
1914,1846,1791
1826,1872,1849
1867,1872,1894
1906,1901,1904
1942,1863,1827
1906,1888,1870
1860,1872,1897
1902,1856,1835
1901,1867,1856
1893,1934,1918
1917,1889,1849
1882,1821,1744
1872,1855,1841
1866,1887,1936
1889,1886,1872
1951,1839,1789
1952,1841,1842
1857,1882,1903
1870,1860,1877
1904,1835,1815
1905,1844,1811
1895,1923,1903
1835,1863,1863
1808,1812,1771
1872,1823,1790
1841,1904,1938
1826,1906,1922
1857,1833,1806
1885,1840,1808
1943,1904,1931
1904,1874,1904
1842,1827,1807
1867,1845,1821
1904,1894,1902
1938,1880,1877
1935,1821,1802
1923,1835,1810
1824,1873,1877
1900,1875,1914
1905,1845,1837
1919,1854,1840
1886,1907,1886
1939,1908,1905
1903,1838,1846
1923,1826,1821
1917,1872,1872
1873,1843,1841
1909,1842,1820
1930,1846,1792
1840,1866,1859
1857,1871,1904
1905,1830,1845
1918,1844,1819
1904,1886,1868
1877,1866,1872
1840,1808,1819
1885,1821,1808
1946,1893,1935
1877,1867,1899
1888,1813,1813
1806,1825,1795
1859,1863,1870
1886,1873,1879
1925,1807,1780
1911,1843,1856
1866,1862,1865
1758,1856,1885
1875,1790,1774
1873,1798,1770
1771,1872,1867
1924,1884,1915
1894,1805,1829
1903,1863,1840
1868,1871,1872
1847,1844,1830
1871,1786,1715
1905,1851,1813
1840,1863,1881
1837,1843,1910
1891,1805,1846
1846,1804,1778
1810,1845,1810
1822,1855,1859
1829,1834,1808
1921,1858,1842
1935,1875,1889
1891,1851,1885
1851,1819,1808
1859,1821,1808
1890,1846,1823
1834,1831,1858
1753,1809,1815
1847,1789,1774
1851,1830,1819
1929,1867,1907
1875,1840,1857
1840,1821,1805
1894,1841,1857
1854,1845,1861
1853,1839,1793
1873,1836,1839
1879,1853,1856
1867,1840,1869
1846,1808,1810
1922,1863,1862
1894,1886,1933
1890,1872,1901
1826,1821,1802
1866,1834,1750
1872,1858,1837
1834,1877,1897
1894,1835,1839
1905,1845,1797
1869,1856,1810
1859,1872,1854
1887,1833,1831
1908,1853,1853
1885,1911,1935
1913,1903,1916
1808,1834,1792
1870,1850,1802
1920,1878,1899
1839,1859,1855
1936,1846,1838
1959,1866,1872
1886,1898,1903
1889,1871,1854
1857,1839,1822
1891,1883,1872
1913,1909,1897
1849,1872,1872
1945,1855,1831
1889,1875,1828
1824,1884,1889
1842,1876,1871
1898,1829,1801
1909,1856,1819
1918,1916,1902
1918,1914,1931
1872,1825,1814
1921,1869,1839
1941,1920,1949
1898,1860,1905
1920,1825,1792
1936,1871,1808
1887,1895,1889
1839,1879,1879
1871,1837,1814
1895,1840,1789
1917,1910,1910
1904,1887,1911
1931,1858,1839
1934,1872,1838
1890,1873,1873
1902,1875,1891
1920,1867,1840
1925,1843,1826
1854,1854,1847
1860,1872,1878
1915,1857,1828
1943,1871,1839
1909,1889,1891
1879,1861,1872
1870,1808,1786
1904,1849,1810
1922,1902,1909
1905,1887,1887
1888,1822,1835
1935,1839,1810
1929,1898,1855
1887,1904,1914
1879,1850,1858
1899,1854,1808
1886,1873,1840
1860,1833,1812
1887,1798,1755
1951,1878,1891
1917,1914,1963
1871,1892,1887
1870,1801,1776
1922,1818,1809
1904,1884,1888
1881,1903,1899
1887,1821,1769
1918,1840,1791
1904,1892,1910
1862,1837,1853
1861,1824,1794
1879,1843,1813
1923,1902,1902
1934,1865,1910
1878,1817,1788
1858,1833,1776
1883,1887,1887
1910,1876,1904
1879,1823,1799
1879,1827,1792
1872,1849,1858
1872,1861,1853
1895,1857,1808
1907,1868,1856
1892,1861,1872
1866,1861,1858
1892,1846,1825
1927,1823,1836
1861,1839,1839
1847,1873,1858
1879,1839,1807
1902,1840,1802
1917,1889,1899
1893,1829,1877
1879,1803,1808
1890,1839,1834
1917,1897,1917
1897,1889,1897
1869,1813,1758
1904,1839,1783
1903,1878,1871
1899,1891,1909
1911,1833,1840
1889,1840,1832
1889,1882,1883
1893,1887,1882
1847,1811,1785
1875,1835,1791
1878,1856,1878
1903,1872,1915
1882,1827,1808
1885,1838,1808
1859,1865,1877
1856,1854,1871
1886,1819,1793
1913,1841,1817
1926,1892,1859
1903,1879,1844
1876,1851,1859
1875,1833,1817
1872,1861,1813
1891,1857,1853
1877,1817,1808
1854,1802,1823
1843,1840,1851
1890,1872,1904
1873,1818,1809
1904,1811,1788
1916,1862,1855
1847,1875,1852
1856,1829,1831
1888,1844,1846
1920,1899,1903
1862,1850,1837
1851,1819,1772
1859,1812,1805
1877,1865,1877
1870,1858,1871
1862,1802,1790
1874,1824,1808
1898,1885,1867
1904,1888,1895
1868,1818,1831
1859,1826,1815
1883,1878,1857
1872,1859,1835
1881,1813,1807
1890,1821,1818
1874,1867,1868
1825,1840,1853
1889,1840,1855
1961,1872,1863
1873,1825,1809
1879,1871,1866
1902,1856,1856
1872,1840,1840
1854,1867,1857
1869,1873,1872
1904,1839,1831
1893,1829,1831
1871,1879,1881
1859,1871,1865
1893,1831,1820
1939,1872,1865
1902,1903,1890
1833,1861,1856
1884,1825,1814
1904,1838,1815
1905,1889,1886
1889,1859,1853
1858,1818,1804
1881,1858,1866
1867,1918,1920
1856,1877,1852
1882,1879,1815
1871,1863,1827
1877,1872,1915
1922,1920,1871
1859,1838,1779
1867,1842,1808
1863,1898,1903
1851,1920,1879
1873,1885,1831
1947,1840,1882
1905,1871,1904
1872,1923,1875
1856,1857,1813
1846,1842,1777
1872,1904,1886
1863,1869,1856
1907,1851,1835
1899,1871,1837
1916,1920,1899
1865,1887,1888
1855,1831,1825
1885,1857,1845
1906,1900,1878
1886,1891,1843
1854,1840,1778
1872,1855,1818
1886,1882,1889
1892,1909,1875
1869,1841,1821
1874,1840,1779
1859,1849,1890
1904,1938,1943
1906,1841,1849
1893,1855,1837
1903,1915,1877
1873,1886,1869
1857,1776,1808
1881,1814,1783
1901,1879,1893
1898,1904,1927
1869,1846,1851
1875,1853,1776
1894,1907,1860
1893,1905,1913
1910,1869,1855
1909,1820,1826
1878,1867,1862
1872,1889,1887
1887,1854,1833
1875,1773,1811
1885,1849,1872
1856,1894,1865
1850,1892,1791
1856,1820,1775
1897,1936,1894
1892,1878,1901
1895,1887,1806
1855,1851,1806
1840,1883,1886
1871,1846,1887
1902,1786,1840
1889,1840,1805
1872,1904,1839
1871,1891,1873
1857,1837,1805
1843,1872,1802
1851,1867,1872
1856,1871,1898
1894,1900,1869
1899,1899,1836
1867,1900,1869
1841,1865,1862
1875,1765,1797
1893,1809,1793
1878,1878,1885
1871,1920,1891
1853,1840,1802
1901,1856,1842
1879,1877,1877
1859,1859,1847
1862,1860,1810
1894,1882,1840
1909,1906,1917
1859,1901,1900
1872,1823,1826
1889,1805,1821
1866,1856,1866
1872,1843,1855
1872,1826,1798
1871,1781,1815
1856,1857,1867
1878,1847,1857
1885,1851,1850
1898,1935,1856
1882,1873,1877
1889,1872,1904
1891,1841,1808
1887,1835,1783
1870,1887,1872
1875,1895,1883
1877,1829,1799
1936,1882,1863
1925,1851,1878
1882,1889,1881
1842,1818,1745
1887,1847,1840
1865,1873,1916
1884,1879,1887
1901,1778,1797
1930,1904,1840
1913,1898,1914
1859,1870,1872
1862,1791,1795
1906,1871,1829
1935,1914,1953
1851,1838,1855
1871,1839,1798
1906,1819,1820
1889,1895,1901
1845,1881,1872
1890,1815,1785
1915,1911,1823
1917,1911,1919
1893,1904,1886
1901,1759,1793
1904,1854,1835
1898,1823,1885
1859,1850,1847
1894,1797,1814
1936,1881,1875
1893,1905,1929
1875,1889,1902
1895,1817,1803
1942,1869,1803
1888,1863,1876
1878,1872,1898
1865,1893,1813
1886,1835,1792
1905,1890,1895
1899,1905,1894
1895,1853,1805
1921,1863,1819
1910,1951,1904
1877,1874,1903
1873,1826,1805
1935,1831,1859
1883,1938,1882
1872,1919,1892
1873,1831,1790
1901,1855,1757
1895,1861,1872
1867,1877,1915
1863,1857,1850
1886,1794,1831
1889,1883,1871
1925,1986,1879
1904,1822,1807
1873,1841,1840
1862,1925,1892
1921,1908,1936
1886,1803,1797
1878,1847,1803
1850,1856,1868
1831,1869,1856
1872,1827,1802
1907,1861,1796
1903,1916,1919
1873,1893,1898
1891,1850,1812
1921,1857,1858
1892,1893,1904
1850,1870,1895
1851,1846,1822
1872,1857,1802
1879,1904,1882
1930,1914,1936
1945,1870,1874
1872,1839,1779
1830,1853,1798
1834,1872,1843
1867,1839,1813
1889,1840,1776
1907,1904,1872
1859,1869,1885
1857,1846,1840
1890,1853,1819
1863,1875,1899
1857,1877,1935
1885,1868,1840
1887,1854,1791
1902,1918,1872
1872,1901,1878
1872,1837,1830
1878,1837,1783
1881,1909,1872
1851,1898,1909
1905,1872,1879
1890,1857,1813
1863,1891,1858
1847,1890,1872
1893,1843,1795
1911,1837,1797
1888,1870,1872
1865,1906,1941
1852,1871,1834
1894,1880,1835
1872,1910,1891
1872,1895,1911
1887,1876,1856
1901,1871,1809
1878,1895,1847
1865,1903,1886
1890,1856,1870
1872,1845,1835
1872,1901,1897
1882,1898,1879
1871,1857,1792
1876,1861,1789
1887,1890,1872
1867,1878,1901
1878,1840,1806
1903,1858,1833
1871,1903,1881
1861,1905,1894
1863,1862,1834
1905,1882,1824
1906,1887,1851
1872,1890,1913
1841,1840,1830
1883,1853,1807
1913,1899,1886
1882,1890,1904
1861,1846,1808
1877,1845,1806
1889,1893,1868
1895,1887,1878
1868,1843,1826
1877,1869,1821
1869,1903,1887
1872,1914,1905
1885,1840,1814
1872,1835,1744
1871,1877,1847
1887,1888,1906
1878,1854,1822
1873,1831,1821
1879,1887,1873
1874,1904,1889
1922,1897,1846
