1053,1200,1231
1072,1136,1158
1055,1139,1153
999,1162,1200
955,1109,1155
955,1041,1066
944,1038,1056
883,1118,1101
830,1006,1054
826,926,956
816,877,938
746,926,970
688,864,918
687,802,832
657,833,815
617,839,876
576,743,841
588,796,764
593,682,780
556,752,837
511,739,805
527,699,724
557,783,747
537,787,832
509,670,815
528,762,752
539,757,769
522,806,853
523,790,846
570,758,797
583,787,816
569,857,901
565,841,912
624,816,864
649,870,893
642,935,991
633,922,991
681,898,944
703,966,976
688,1003,1071
683,1015,1067
719,1023,1008
752,985,1052
747,1081,1147
737,1047,1146
790,1060,1110
821,1146,1139
808,1200,1223
819,1157,1227
868,1156,1182
894,1218,1217
867,1215,1308
866,1279,1307
919,1267,1262
955,1293,1289
945,1301,1373
946,1296,1374
1001,1296,1332
1034,1305,1365
1005,1381,1445
1008,1371,1447
1066,1361,1401
1097,1399,1434
1086,1455,1519
1075,1409,1517
1136,1415,1486
1170,1515,1519
1146,1535,1598
1133,1497,1584
1197,1488,1535
1232,1521,1583
1211,1593,1664
1203,1584,1649
1246,1530,1600
1282,1601,1637
1259,1650,1712
1262,1646,1703
1298,1606,1648
1321,1633,1679
1314,1705,1760
1317,1731,1765
1352,1658,1704
1380,1687,1715
1359,1727,1791
1344,1714,1785
1394,1688,1739
1409,1715,1760
1366,1757,1811
1351,1729,1787
1396,1693,1733
1412,1664,1745
1360,1738,1797
1327,1695,1759
1335,1679,1678
1327,1633,1670
1294,1623,1728
1266,1646,1705
1274,1633,1617
1266,1582,1605
1227,1587,1655
1201,1567,1627
1214,1520,1552
1212,1477,1535
1173,1554,1605
1155,1566,1582
1182,1533,1519
1203,1475,1533
1167,1558,1610
1149,1579,1585
1181,1491,1515
1199,1535,1530
1167,1565,1612
1148,1524,1585
1190,1515,1520
1198,1497,1535
1175,1632,1619
1170,1552,1616
1215,1507,1557
1231,1535,1567
1190,1579,1621
1187,1582,1609
1223,1535,1557
1239,1561,1575
1207,1606,1648
1199,1593,1627
1235,1501,1559
1242,1568,1569
1196,1584,1628
1179,1576,1601
1221,1597,1535
1234,1602,1565
1201,1599,1620
1181,1566,1599
1213,1585,1535
1247,1584,1582
1231,1510,1653
1210,1653,1627
1243,1587,1557
1256,1581,1575
1228,1631,1645
1227,1615,1634
1265,1586,1589
1290,1610,1607
1264,1666,1666
1250,1610,1660
1298,1602,1614
1310,1717,1627
1296,1691,1699
1287,1729,1688
1330,1680,1637
1345,1661,1664
1321,1747,1730
1316,1759,1713
1375,1643,1662
1391,1683,1687
1362,1769,1761
1353,1705,1750
1410,1661,1705
1424,1743,1727
1404,1825,1799
1392,1817,1777
1446,1709,1728
1471,1742,1762
1440,1867,1826
1426,1839,1809
1459,1728,1742
1478,1782,1758
1443,1842,1831
1441,1776,1815
1473,1748,1757
1491,1778,1770
1456,1808,1824
1426,1774,1794
1460,1747,1730
1479,1781,1744
1447,1806,1803
1440,1776,1791
1472,1747,1730
1489,1748,1746
1458,1813,1817
1453,1853,1792
1493,1770,1741
1511,1674,1760
1473,1801,1826
1465,1811,1813
1519,1709,1758
1535,1815,1776
1520,1879,1849
1511,1805,1843
1563,1824,1793
1584,1913,1821
1558,1968,1887
1558,1838,1877
1616,1840,1826
1639,1885,1855
1612,1922,1927
1617,1909,1920
1670,1919,1872
1689,1875,1895
1663,1838,1969
1659,1921,1968
1712,1933,1920
1745,1920,1943
1738,2008,2019
1741,2000,2009
1795,1968,1969
1805,1990,1982
1780,2043,2047
1776,2029,2035
1823,2000,1984
1858,2032,2022
1850,2091,2111
1843,2058,2090
1872,2064,2032
1895,2016,2063
1871,2160,2128
1869,2138,2119
1916,2127,2073
1942,2064,2095
1917,2165,2169
1915,2080,2158
1965,2147,2097
1983,2064,2112
1965,2194,2186
1951,2115,2177
2000,2147,2126
2027,2150,2143
1990,2145,2197
1975,2161,2179
2018,2118,2130
2046,2153,2151
2019,2153,2213
2000,2157,2189
2036,2112,2122
2061,2140,2144
2033,2182,2214
2021,2168,2194
2059,2160,2128
2065,2189,2135
2053,2193,2206
2046,2202,2192
2094,2128,2144
2111,2144,2163
2075,2198,2224
2054,2160,2191
2097,2133,2131
2128,2176,2163
2096,2208,2235
2074,2164,2211
2112,2150,2142
2126,2141,2144
2107,2192,2222
2096,2182,2202
2127,2139,2131
2138,2155,2147
2112,2256,2218
2098,2182,2202
2140,2154,2135
2166,2155,2161
2135,2214,2224
2131,2192,2207
2163,2143,2143
2175,2223,2162
2158,2160,2231
2134,2192,2219
2176,2208,2149
2193,2197,2165
2173,2274,2231
2159,2176,2217
2196,2213,2163
2220,2165,2179
2192,2217,2241
2171,2160,2224
2203,2171,2165
2231,2144,2185
2201,2247,2238
2189,2211,2217
2233,2160,2164
2254,2157,2186
2211,2207,2242
2195,2207,2218
2242,2111,2153
2271,2134,2181
2243,2267,2242
2224,2194,2222
2255,2163,2154
2263,2183,2165
2241,2193,2237
2224,2208,2223
2251,2165,2161
2268,2180,2172
2243,2213,2227
2224,2187,2206
2267,2155,2149
2293,2161,2159
2243,2129,2213
2229,2185,2195
2276,2176,2137
2291,2156,2156
2282,2202,2226
2237,2128,2192
2253,2110,2112
2275,2039,2131
2261,2303,2213
2250,2160,2192
2277,2137,2126
2290,2161,2135
2255,2199,2204
2242,2155,2172
2271,1958,2099
2285,2113,2112
2255,2150,2181
2235,2134,2160
2275,2097,2096
2288,2112,2106
2256,2160,2170
2231,2125,2143
2272,2096,2082
2305,2015,2107
2277,2143,2177
2270,2205,2177
2286,2128,2090
2289,2176,2093
2255,2135,2150
2247,2079,2135
2286,2071,2082
2303,2082,2093
2271,2105,2145
2257,2185,2143
2283,2160,2086
2304,2111,2091
2270,2096,2145
2272,2107,2141
2297,2146,2081
2306,2032,2091
2271,2081,2160
2260,2093,2139
2299,2128,2075
2323,2134,2089
2304,2127,2159
2271,2099,2128
2289,2039,2058
2309,2007,2074
2304,2185,2156
2290,2096,2141
2293,2057,2064
2320,2032,2079
2301,2119,2143
2263,2083,2114
2289,2080,2063
2310,2057,2071
2285,2114,2133
2267,2140,2110
2286,1997,2042
2297,2042,2046
2269,2073,2105
2250,2061,2086
2282,2055,2018
2294,1963,2032
2261,2029,2099
2253,2027,2085
2271,1970,2007
2295,2020,2033
2251,2007,2091
2238,2002,2064
2267,1991,2001
2280,2011,2022
2256,2043,2091
2241,2032,2068
2272,1951,2000
2295,1998,2006
2259,2037,2066
2241,2016,2047
2259,1968,1974
2267,1985,1990
2256,2044,2064
2224,2001,2030
2245,1962,1963
2262,1986,1982
2231,2017,2045
2211,1990,2019
2237,1951,1952
2270,1979,1981
2244,2026,2058
2217,1999,2023
2246,1968,1968
2272,1987,1990
2244,2033,2064
2227,2014,2054
2256,1981,1985
2266,1994,1998
2255,2039,2064
2231,2023,2060
2279,2007,2007
2286,2017,2001
2251,2063,2064
2242,2042,2053
2286,2007,2000
2306,2034,2027
2277,2081,2093
2257,2047,2064
2289,2003,2000
2302,2023,2011
2288,2075,2081
2271,2055,2065
2300,2009,2001
2308,2030,2013
2273,2061,2077
2231,2027,2037
2270,1989,1983
2294,2016,2001
2263,2061,2083
2234,2016,2053
2275,1986,1999
2302,2001,2014
2271,2038,2078
2261,2020,2064
2305,2000,2009
2320,2014,2019
2297,2061,2087
2288,2051,2091
2317,2019,2032
2326,2032,2043
2303,2073,2099
2289,2038,2075
2319,2013,2016
2335,2032,2064
2319,2070,2141
2289,2040,2110
2315,2006,2029
2336,2032,2054
2310,2080,2112
2293,2062,2094
2320,2017,2053
2341,2033,2675
2318,2080,2441
2284,2037,2054
2309,2005,1909
2315,2023,1967
2279,2059,2060
2256,2021,2032
2274,1977,1986
2295,1987,2288
2240,1990,1794
2205,1952,1767
2215,1895,1712
2226,1910,1723
2221,1968,1808
2204,1941,2225
2221,1888,1637
2239,1917,1655
2247,1969,1797
2224,1951,1849
2256,1936,1843
2272,1959,1830
2265,2009,1826
2243,1998,1824
2277,1962,1830
2320,1993,1829
2304,2047,1830
2289,2032,1827
2331,2001,1829
2371,2039,1827
2349,2091,1830
2324,2065,1827
2364,2037,1829
2374,2039,1827
2338,2082,1827
2327,2076,1827
2384,2053,1828
2399,2078,1829
2378,2128,1825
2352,2111,1824
2380,2066,1827
2414,2095,1829
2385,2139,1839
2374,2117,1799
2419,2095,1766
2411,2091,1769
2352,2113,1823
2345,2095,1819
2384,2064,1766
2403,2082,1780
2375,2129,1855
2353,2103,1842
2373,2064,1788
2384,2067,1793
2352,2112,1863
2342,2096,1857
2378,2066,1805
2389,2074,1819
2357,2113,1887
2336,2097,1882
2370,2064,1830
2389,2086,1855
2333,2099,1889
2305,2066,1870
2352,2037,1823
2384,2067,1857
2337,2101,1924
2314,2084,1914
2349,2035,1856
2366,2055,1862
2346,2106,1938
2321,2089,1936
2352,2047,1883
2373,2067,1902
2347,2112,1975
2318,2096,1959
2355,2066,1902
2387,2096,1927
2384,2143,2016
2370,2121,2009
2370,2064,1929
2354,2071,1933
2353,2125,2011
2353,2119,2022
2386,2091,1970
2411,2109,1995
2384,2134,2064
2341,2107,2032
2372,2064,1970
2384,2097,1987
2350,2135,2059
2320,2105,2041
2343,2063,1978
2366,2081,1996
2337,2113,2073
2320,2096,2064
2321,2035,1975
2318,2030,1971
2288,2061,2029
2266,2045,2017
2297,2015,1968
2320,2023,1988
2288,2057,2059
2259,2039,2026
2278,2002,1958
2291,2007,1969
2266,2045,2038
2251,2018,2032
2285,1984,1968
2287,1991,1979
2249,2022,2035
2219,1997,2013
2231,1937,1893
2209,1923,1927
2139,1941,1943
2118,1917,1966
2160,1876,1889
2201,1906,1949
2190,1959,2007
2180,1955,1997
2224,1934,1934
2263,1969,2001
2254,2038,2062
2256,2047,2122
2319,2034,2057
2332,2063,2059
2320,2109,2173
2306,2093,2125
2333,2064,2063
2365,2093,2117
2320,2118,2166
2279,2079,2161
2307,2028,2055
2319,2045,2085
2289,2083,2139
2256,2047,2123
2271,2004,2041
2293,2019,2540
2227,2019,2395
2165,1954,1619
2176,1891,2034
2121,1840,1836
2064,1850,1862
1990,1770,1685
2018,1734,1468
2089,1790,1838
2127,1875,1860
2128,1879,1770
2131,1843,2590
1648,1364,4095
75,2,4095
0,0,2768
0,0,1934
0,0,1563
0,0,1699
0,0,1943
0,0,1872
0,0,1618
0,0,2016
0,0,1997
0,0,1904
0,0,1899
0,0,1796
0,0,1895
0,0,1982
0,0,1523
0,0,2131
0,0,112
0,0,2071
0,0,2766
0,0,1299
0,0,0
0,0,2385
0,0,4095
0,0,4095
0,0,4095
0,0,4095
0,0,4095
0,0,4095
0,0,4095
0,0,4095
0,0,4095
0,0,4095
0,0,4095
0,0,4095
0,0,2842
0,0,1728
0,0,949
0,0,1487
0,0,1889
0,0,1939
0,0,1866
0,528,1824
224,2000,1823
1759,2782,1831
2627,3071,1835
2918,3279,1833
2998,3622,1858
3104,4071,1799
3333,4095,1829
3643,4095,1840
3958,4095,1840
4095,4095,1911
4095,4095,1857
4095,4095,1776
4095,4095,1889
4095,4095,1835
4095,4095,1825
4095,4095,1847
4095,4095,1851
4095,4095,2262
4095,4095,2427
4095,4095,1983
4095,4095,1647
4095,4095,1573
4095,4095,2000
4095,4095,1841
4095,4095,1937
4095,4095,1817
4095,4095,1600
4095,4095,1757
4095,4095,1840
4095,4095,1833
4095,4095,1813
4095,4095,1841
4095,4095,1828
4095,4095,1850
4095,4095,1758
4095,4095,1873
4095,4095,1793
4095,4095,1831
4095,4095,1808
4095,4095,1842
4095,4095,1862
4095,4095,1808
4095,4095,1781
4095,4095,1826
4095,4095,1818
4095,4095,1803
4095,4095,1819
4095,4095,1827
4095,4095,1829
4095,4095,1811
4095,4095,1873
4095,4095,1904
4095,4095,1985
4095,4095,2119
4095,4095,2128
4095,4095,1936
4095,4095,1904
4095,4095,1946
4095,4095,1911
4095,4095,1696
4095,4095,1791
4095,4095,1808
4095,4095,1761
4095,4095,1737
4095,4095,1735
4095,4095,1794
4095,4095,1726
4095,4095,1695
4095,4095,1605
4095,4095,1755
4095,4095,1736
4095,4095,1651
4095,4095,1631
4095,4095,1825
4095,4095,1706
4095,4095,1594
4095,4095,1599
4095,4095,1749
4095,4095,1747
4095,4095,1600
4095,4095,1616
4095,4095,1781
4095,4095,1676
4095,4095,1616
4095,4095,1673
4095,4095,1680
4095,4095,1616
4095,4095,1606
4095,4095,1683
4095,4095,1865
4095,4095,1839
4095,4095,1650
4095,4095,1648
4095,4095,1766
4095,4095,1771
4095,4095,1648
4095,4095,1704
4095,4095,1779
4095,4095,1787
4095,4095,1745
4095,4095,1775
4095,4095,1859
4095,4095,1746
4095,4095,1670
4095,4095,1712
4095,4095,1751
4095,4095,1872
4095,3894,1751
4095,3831,1732
4095,3914,1840
3936,3735,1765
3975,3643,1703
4048,3648,1759
3953,3614,1856
3773,3491,1806
3749,3344,1744
3760,3337,1730
3714,3395,1776
3722,3355,1821
3622,3243,1713
3653,3227,1632
3783,3222,1854
3486,3102,1857
3410,3007,1748
3497,3007,1742
3521,3057,1822
3511,3021,1822
3425,2873,1783
3429,2890,1831
3403,2945,1851
3343,2875,1697
3298,2742,1659
3271,2745,1855
3241,2767,1889
3200,2729,1733
3231,2647,1744
3237,2622,1819
3127,2625,1803
3157,2593,1798
3152,2519,1792
3097,2505,1766
3091,2544,1776
2988,2451,1829
2955,2341,1771
2961,2359,1680
3007,2414,1818
2981,2352,1763
2965,2242,1761
2926,2225,1823
2867,2322,1859
2917,2387,1748
2873,2140,1715
2813,2066,1763
2751,2174,1822
2762,2154,1829
2809,2081,1815
2777,2058,1724
2794,2139,1812
2783,2081,1877
2719,1938,1760
2651,1915,1702
2609,1974,1794
2625,1968,1839
2672,1904,1694
2693,1952,1747
2559,1887,1851
2553,1874,1891
2595,1813,1730
2630,1805,1693
2587,1877,1821
2511,1804,1856
2482,1730,1781
2512,1773,1803
2457,1799,1783
2403,1717,1781
2471,1689,1781
2512,1694,1793
2399,1658,1825
2335,1615,1788
2368,1607,1707
2439,1680,1773
2385,1646,1854
2384,1584,1839
2325,1557,1758
2313,1555,1761
2284,1535,1729
2258,1514,1781
2305,1507,1818
2323,1520,1797
2265,1533,1840
2189,1472,1733
2242,1431,1702
2236,1456,1786
2229,1533,1904
2223,1456,1872
2196,1359,1741
2142,1385,1711
2128,1415,1842
2127,1391,1822
2129,1371,1702
2172,1386,1765
2128,1441,1877
2082,1387,1856
2096,1298,1717
2058,1303,1738
2042,1356,1872
2034,1372,1831
2090,1349,1850
2043,1307,1708
2032,1328,1801
1982,1297,1853
1970,1253,1756
1995,1280,1733
1984,1335,1843
1949,1290,1792
1959,1232,1767
1971,1280,1803
1951,1309,1872
1929,1315,1850
1933,1278,1781
1947,1262,1766
1920,1278,1840
1883,1259,1813
1897,1221,1821
1898,1243,1834
1904,1318,1859
1862,1264,1782
1851,1142,1718
1865,1183,1780
1821,1302,1878
1837,1311,1814
1830,1213,1689
1808,1166,1765
1791,1222,1899
1813,1297,1902
1908,1333,1776
1826,1155,1713
1723,1200,1829
1714,1232,1837
1791,1266,1821
1867,1250,1744
1702,1175,1838
1646,1200,1839
1762,1245,1651
1817,1205,1791
1710,1232,1953
1653,1278,1862
1707,1195,1740
1702,1142,1744
1685,1219,1875
1696,1264,1855
1744,1258,1795
1699,1248,1754
1629,1291,1811
1615,1201,1872
1645,1109,1794
1744,1233,1837
1649,1286,1825
1562,1255,1823
1626,1251,1727
1670,1175,1789
1630,1246,1950
1567,1216,1833
1648,1200,1754
1685,1225,1776
1626,1243,1846
1535,1280,1833
1568,1264,1773
1611,1259,1768
1611,1252,1849
1527,1227,1840
1528,1200,1783
1535,1216,1793
1584,1281,1825
1535,1251,1780
1535,1264,1725
1555,1276,1811
1535,1325,1872
1535,1263,1796
1520,1200,1760
1535,1262,1821
1485,1328,1811
1503,1277,1802
1531,1242,1806
1555,1287,1755
1535,1349,1855
1437,1296,1811
1507,1251,1725
1572,1251,1783
1488,1296,1853
1454,1339,1839
1456,1273,1684
1483,1247,1739
1476,1333,1831
1457,1334,1824
1507,1282,1802
1583,1331,1814
1531,1378,1891
1408,1314,1822
1445,1301,1735
1456,1301,1690
1451,1378,1836
1443,1373,1821
1447,1281,1776
1520,1333,1825
1470,1398,1831
1446,1383,1807
1438,1317,1771
1454,1365,1811
1483,1471,1871
1465,1424,1835
1463,1328,1727
1433,1379,1789
1407,1435,1830
1421,1458,1729
1474,1376,1798
1469,1347,1869
1439,1393,1882
1471,1456,1798
1447,1431,1767
1410,1382,1792
1453,1465,1853
1472,1517,1783
1509,1441,1766
1426,1378,1791
1379,1439,1853
1389,1485,1808
1414,1424,1763
1499,1456,1839
1434,1491,2161
1361,1504,3429
1420,1442,3142
1475,1459,1984
1434,1524,1598
1471,1578,1696
1457,1471,1817
1409,1441,1854
1378,1487,1846
1425,1527,1863
1465,1517,1808
1474,1489,1808
1453,1583,1824
1426,1568,1830
1439,1456,1835
1442,1503,1849
1472,1577,1808
1424,1535,1817
1402,1509,1824
1479,1535,1834
1502,1650,1835
1467,1632,1830
1419,1459,1827
1408,1492,1825
1441,1612,1829
1460,1625,1826
1464,1593,1826
1494,1556,1831
1455,1616,1827
1446,1648,1823
1499,1615,1828
1471,1567,1830
1418,1607,1829
1375,1613,1823
1441,1616,1829
1520,1616,1926
1455,1657,2090
1425,1677,2032
1463,1618,1895
1479,1610,1949
1455,1659,2014
1447,1649,1945
1441,1635,1838
1492,1648,1926
1509,1717,2032
1486,1686,1970
1431,1602,1808
1439,1634,1862
1457,1706,1955
1466,1709,1963
1474,1664,1883
1489,1680,1905
1492,1713,1950
1485,1702,1973
1523,1670,1881
1491,1682,1840
1462,1722,1884
1482,1694,1935
1447,1661,1809
1443,1680,1864
1447,1715,3105
1488,1743,4095
1530,1696,4095
1527,1691,3130
1434,1717,1892
1423,1711,1561
1478,1680,1706
1513,1710,1833
1515,1760,1860
1502,1789,1841
1461,1693,1825
1486,1682,1824
1470,1730,1829
1495,1747,1826
1495,1682,1827
1488,1683,1831
1521,1808,1831
1527,1775,1827
1469,1681,1830
1478,1717,1830
1506,1792,1826
1503,1808,1825
1535,1769,1826
1594,1738,1838
1525,1750,1825
1405,1688,1830
1419,1682,1826
1488,1712,1829
1513,1770,1826
1483,1770,1827
1516,1744,1823
1559,1758,1826
1527,1776,1830
1456,1709,1828
1482,1693,1823
1488,1725,1795
1514,1808,1877
1494,1753,1841
1599,1811,1759
1535,1623,1601
1427,1674,1727
1360,1648,1744
1413,1685,1735
1467,1730,1725
1507,1712,1798
1472,1775,1758
1440,1641,1654
1433,1646,1649
1417,1670,1765
1428,1755,1724
1515,1732,1613
1496,1706,1711
1457,1765,1793
1437,1744,1808
1473,1669,1605
1521,1680,1673
1453,1744,1753
1424,1772,1773
1457,1709,1692
1492,1729,1712
1479,1719,1776
1461,1739,1746
1466,1717,1687
1513,1725,1651
1535,1809,1755
1476,1791,1834
1488,1687,1766
1525,1717,1817
1515,1811,2528
1494,1775,2751
1426,1628,1535
1368,1643,1441
1415,1752,1698
1465,1681,1885
1522,1767,1901
1603,1773,1879
1491,1766,1801
1445,1767,1794
1521,1733,1862
1558,1759,1819
1579,1836,1808
1567,1817,1816
1566,1782,1824
1583,1799,1829
1585,1856,1827
1566,1850,1832
1592,1808,1825
1605,1799,1828
1667,1879,1829
1629,1839,1825
1632,1823,1830
1607,1825,1828
1617,1893,1826
1632,1875,1825
1627,1828,1826
1635,1802,1829
1711,1913,1825
1677,1891,1823
1622,1845,1828
1629,1922,1827
1682,1903,1830
1649,1933,1776
1638,1814,1857
1664,1814,2084
1673,1975,2000
1649,1929,1839
1671,1895,1699
1677,1917,1681
1669,1985,1792
1663,1875,1791
1712,1890,1719
1729,1897,1706
1701,1957,1799
1644,1895,1761
1682,1872,1677
1743,1913,1746
1698,1943,1811
1661,1950,1798
1693,1891,1743
1712,1894,1729
1713,1953,1790
1678,1968,1773
1703,1898,1665
1731,1891,1723
1707,1930,1797
1685,1959,1776
1727,1987,1674
1783,1935,1728
1776,1871,1872
1680,1915,1805
1708,1941,1667
1713,1898,1710
1727,1923,1857
1669,1867,1811
1690,1877,1670
1763,1931,1722
1764,1952,1826
1693,1904,1775
1726,1856,1726
1755,1910,1737
1744,1989,1820
1744,1946,1808
1759,1886,1702
1725,1872,1680
1741,1946,1815
1748,1939,1802
1728,1911,1742
1744,1950,1770
1739,1907,1919
1697,1905,1923
1747,1913,1782
1773,1921,1807
1746,1923,1838
1707,1997,1791
1739,1884,1663
1766,1920,1675
1781,1979,1814
1723,1989,1780
1742,1900,1686
1773,1950,1680
1759,1951,1779
1711,1812,1739
1734,1840,1658
1747,1914,1671
1765,1954,1812
1757,2013,1744
1744,1897,1671
1749,1886,1712
1744,1941,1787
1763,1936,1777
1783,1895,1657
1783,1932,1651
1743,1925,1774
1723,1921,1744
1745,1856,1655
1776,1895,1680
1776,1968,1791
1764,1947,1766
1777,1904,1716
1766,1935,1715
1775,2017,1776
1749,1949,1770
1772,1900,1717
1799,1865,1690
1850,1954,1808
1731,1914,1747
1712,1979,1769
1731,1978,2837
1771,1953,2525
1737,1882,1794
1810,1968,1535
1823,1971,1667
1767,1941,1799
1761,1954,1814
1774,1997,1648
1841,2001,1686
1797,2013,1776
1744,2010,1741
1766,1851,1674
1767,1813,1679
1789,1964,1776
1764,1921,1744
1780,1861,1676
1794,1920,1679
1760,1941,1735
1781,1937,1781
1854,1919,1774
1802,1879,1731
1751,1908,1746
1772,1913,1778
1792,1882,1695
1871,1922,1729
1840,1955,1819
1744,1917,1799
1747,1867,1688
1791,1887,1701
1791,1937,1808
1776,1931,1825
1763,1872,1744
1822,1897,1795
1819,1947,1843
1763,1905,1791
1774,1883,1745
1828,1911,1778
1807,1918,2193
1784,1933,2014
1826,1887,1734
1811,1891,1673
1808,1938,1781
1745,1889,1753
1808,1853,1711
1834,1897,1741
1783,1919,1825
1778,1926,1807
1851,1890,1746
1831,1853,1709
1774,1893,1776
1762,1931,1782
1808,1878,1758
1905,1911,1813
1840,1921,1815
1707,1847,1714
1751,1827,1657
1814,1872,1765
1850,1923,1813
1811,1892,1827
1795,1861,1739
1831,1877,1753
1859,1919,1830
1766,1906,1786
1785,1845,1706
1837,1863,1707
1783,1907,1765
1773,1907,1840
1753,1831,1739
1794,1874,1776
1929,1967,1879
1805,1919,1829
1776,1835,1711
1803,1854,1687
1903,1920,1846
1847,1885,1821
1804,1856,1754
1820,1841,1797
1771,1904,1798
1765,1893,1793
1827,1845,1776
1878,1879,1808
1845,1923,1872
1829,1910,1869
1817,1841,1741
1803,1824,1711
1827,1916,1825
1822,1902,1806
1806,1821,1763
1808,1818,1744
1856,1885,1839
1851,1874,1882
1856,1829,1798
1809,1829,1777
1817,1909,1862
1756,1901,1835
1813,1866,1747
1906,1882,1775
1862,1888,1885
1791,1839,1834
1766,1815,1763
1823,1838,1795
1835,1905,1857
1837,1857,1817
1829,1845,1795
1893,1862,1823
1830,1893,1879
1796,1872,1818
1799,1841,1761
1855,1851,1834
1866,1902,1917
1786,1859,1823
1785,1794,1735
1869,1863,1826
1858,1921,1914
1759,1857,1840
1715,1797,1719
1793,1803,1793
1881,1911,1902
1818,1873,1879
1829,1822,1814
1893,1838,1834
1851,1904,1903
1827,1866,1872
1823,1807,1775
1854,1819,1837
1850,1872,1931
1820,1820,1862
1822,1811,1797
1808,1861,1791
1818,1857,1871
1834,1823,1917
1904,1837,1809
1893,1840,1819
1821,1854,1854
1771,1836,1863
1822,1776,1771
1794,1809,1785
1872,1904,1920
1840,1868,1899
1822,1818,1809
1842,1829,1793
1875,1856,1856
1802,1819,1877
1854,1819,1826
1857,1813,1781
1866,1872,1888
1787,1813,1846
1808,1778,1783
1825,1798,1804
1840,1869,1907
1808,1847,1873
1824,1775,1754
1877,1798,1787
1872,1883,1915
1787,1839,1875
1802,1803,1783
1967,1870,1849
1739,1856,1898
1770,1776,1829
1810,1737,1770
1869,1808,1751
1851,1866,1895
1815,1849,1906
1872,1826,1816
1869,1787,1797
1812,1815,1916
1865,1841,1891
1857,1819,1794
1898,1843,1798
1846,1852,1853
1741,1795,1849
1808,1789,1774
1904,1838,1872
1889,1901,1936
1881,1859,1893
1827,1747,1725
1857,1776,1714
1940,1854,1936
1860,1825,1907
1763,1791,1755
1920,1843,1839
1849,1885,1947
1793,1814,1891
1808,1757,1794
1791,1809,1808
1862,1870,1913
1829,1891,1883
1813,1806,1826
1820,1805,1803
1845,1830,1902
1851,1878,1854
1794,1781,1798
1837,1806,1839
1840,1856,1917
1815,1818,1863
1840,1772,1787
1885,1808,1859
1829,1882,1963
1869,1904,1969
1839,1815,1785
1872,1814,1716
1856,1870,1895
1772,1859,1865
1846,1825,1808
1925,1830,1800
1813,1840,1887
1825,1841,1936
1859,1794,1821
1863,1823,1870
1846,1883,1886
1860,1876,1881
1933,1785,1787
1833,1810,1803
1776,1862,1904
1808,1870,1917
1872,1826,1837
1889,1811,1810
1876,1853,1935
1834,1836,1904
1843,1824,1806
1872,1851,1839
1899,1911,1901
1930,1875,1904
1833,1787,1767
1717,1779,1735
1726,1843,1896
1852,1846,1881
1823,1811,1799
2007,1872,1851
1901,1896,1943
1806,1845,1871
1786,1808,1806
1886,1855,1791
1878,1919,1904
1813,1834,1940
1808,1776,1781
1872,1823,1809
1874,1894,1949
1805,1840,1904
1833,1811,1793
1887,1851,1808
1872,1897,1929
1831,1879,1883
1902,1872,1819
1881,1822,1838
1794,1854,1835
1808,1824,1835
1807,1798,1811
1835,1822,1842
1954,1955,1998
1904,1907,1939
1790,1791,1726
1805,1807,1674
1823,1850,1822
1839,1872,1906
1915,1831,1785
1896,1829,1853
1840,1873,1920
1834,1870,1968
1846,1808,1787
1848,1808,1711
1837,1884,1943
1877,1888,1934
1918,1838,1837
1903,1827,1810
1826,1866,1890
1844,1861,1856
1840,1805,1761
1856,1808,1806
1891,1890,1920
1917,1904,1921
1819,1799,1797
1795,1779,1783
1861,1886,1884
1851,1909,1899
1819,1829,1766
1867,1843,1724
1871,1902,1859
1874,1872,1833
1869,1818,1793
1773,1811,1871
1827,1872,1889
1863,1875,1908
1902,1865,1838
1911,1878,1855
1894,1897,1934
1709,1837,1827
1843,1781,1835
1850,1826,1777
1924,1921,1950
1884,1878,1861
1840,1819,1808
1860,1823,1807
1893,1895,1923
1794,1904,1966
1803,1840,1771
1877,1812,1744
1789,1875,1840
1853,1877,1905
1849,1830,1792
1894,1835,1826
1861,1877,1941
1850,1840,1855
1840,1808,1778
1878,1842,1791
1927,1904,1860
1865,1899,1841
1785,1809,1779
1901,1866,1840
1855,1903,1895
1786,1856,1855
1885,1817,1771
1847,1827,1783
1891,1863,1914
1831,1889,1842
1902,1853,1808
1914,1891,1839
1895,1904,1858
1763,1877,1830
1807,1810,1879
1863,1842,1881
1849,1872,1872
1849,1862,1954
1885,1858,1906
1887,1840,1790
1840,1895,1872
1813,1878,1886
1850,1829,1809
1866,1853,1812
1968,1926,1911
1893,1904,1939
1867,1847,1835
1857,1818,1758
1889,1885,1829
1830,1861,1864
1830,1803,1783
1872,1827,1791
1904,1920,1947
1841,1917,1879
1827,1823,1810
1838,1819,1808
1862,1889,1872
1921,1910,1904
1953,1866,1869
1877,1859,1809
1809,1867,1843
1765,1825,1840
1824,1849,1795
1904,1887,1845
1858,1882,1873
1840,1869,1854
1892,1847,1761
1872,1849,1808
1898,1887,1887
1890,1901,1893
1856,1840,1761
1872,1850,1807
1872,1907,1902
1840,1904,1875
1808,1833,1782
1861,1830,1823
1863,1858,1876
1855,1888,1845
1883,1847,1807
1872,1829,1802
1872,1907,1922
1835,1861,1873
1879,1831,1787
1872,1874,1824
1808,1871,1838
1746,1858,1870
1805,1840,1779
1899,1866,1812
1936,1892,1914
1805,1825,1840
1811,1828,1811
1855,1851,1842
1938,1898,1934
1808,1849,1872
1842,1826,1789
1873,1846,1763
1855,1894,1859
1804,1874,1850
1867,1853,1840
1897,1835,1824
1930,1917,1878
1920,1906,1925
1840,1821,1804
1826,1842,1774
1859,1878,1882
1904,1888,1887
1815,1815,1788
1872,1833,1821
1857,1894,1878
1779,1878,1893
1840,1872,1802
1923,1856,1815
1859,1867,1935
1766,1808,1869
