1839,1828,1831
1834,1818,1808
1904,1837,1856
1872,1898,1863
1815,1872,1855
1811,1824,1779
1909,1894,1818
1933,1882,1840
1860,1869,1874
1825,1847,1815
1873,1855,1813
1869,1872,1862
1840,1857,1856
1901,1857,1795
1947,1879,1867
1850,1863,1874
1791,1837,1839
1842,1808,1809
1917,1860,1793
1938,1907,1897
1853,1895,1909
1857,1841,1835
1904,1827,1824
1847,1815,1790
1823,1877,1820
1822,1841,1819
1875,1871,1837
1894,1845,1893
1904,1872,1866
1870,1835,1807
1874,1843,1798
1873,1850,1882
1854,1889,1897
1856,1846,1818
1875,1856,1795
1903,1963,1895
1882,1907,1895
1819,1787,1781
1846,1853,1778
1834,1919,1857
1840,1877,1872
1864,1878,1856
1874,1871,1805
1871,1927,1847
1847,1887,1872
1867,1858,1840
1879,1827,1808
1904,1877,1889
1865,1893,1916
1857,1872,1847
1867,1866,1792
1860,1883,1858
1838,1861,1865
1839,1840,1812
1847,1839,1778
1875,1890,1890
1887,1921,1914
1869,1842,1823
1896,1856,1808
1858,1886,1889
1863,1901,1897
1858,1861,1803
1886,1837,1821
1911,1840,1901
1853,1856,1891
1847,1835,1821
1855,1850,1797
1856,1883,1858
1851,1893,1865
1872,1837,1831
1872,1827,1811
1866,1879,1799
1890,1899,1851
1895,1849,1851
1867,1863,1854
1839,1875,1872
1833,1875,1872
1889,1872,1872
1907,1901,1847
1898,1925,1855
1882,1911,1883
1813,1767,1790
1839,1901,1803
1875,1858,1863
1880,1879,1869
1857,1825,1817
1867,1843,1840
1876,1943,1890
1872,1876,1861
1870,1868,1799
1888,1906,1821
1901,1932,1922
1885,1845,1899
1888,1845,1826
1890,1901,1808
1824,1840,1850
1835,1881,1865
1874,1933,1841
1898,1846,1838
1888,1873,1886
1865,1923,1917
1847,1877,1841
1867,1847,1781
1883,1881,1867
1857,1925,1872
1866,1856,1818
1911,1821,1824
1890,1901,1866
1846,1901,1904
1842,1877,1869
1883,1872,1834
1889,1888,1859
1858,1901,1856
1919,1878,1835
1915,1812,1827
1917,1902,1878
1879,1900,1891
1821,1814,1813
1872,1843,1799
1869,1856,1833
1845,1833,1889
1883,1889,1853
1920,1929,1849
1875,1850,1870
1855,1903,1835
1854,1872,1820
1914,1879,1840
1902,1901,1869
1851,1915,1866
1862,1863,1805
1904,1796,1776
1902,1879,1859
1855,1905,1922
1866,1878,1851
1898,1840,1758
1922,1920,1882
1880,1904,1902
1879,1850,1808
1856,1831,1795
1865,1886,1883
1856,1914,1887
1843,1830,1790
1887,1826,1783
1887,1878,1872
1849,1871,1878
1838,1825,1791
1889,1823,1787
1899,1883,1854
1831,1883,1857
1839,1822,1787
1871,1809,1744
1872,1853,1821
1856,1910,1878
1839,1840,1783
1888,1866,1815
1837,1861,1879
1845,1861,1883
1814,1808,1767
1846,1835,1794
1869,1874,1872
1882,1899,1894
1874,1838,1761
1885,1806,1780
1827,1826,1843
1826,1867,1842
1851,1834,1791
1885,1856,1776
1877,1877,1865
1834,1861,1846
1862,1819,1782
1904,1831,1813
1869,1858,1865
1835,1863,1845
1850,1835,1792
1840,1815,1759
1819,1862,1823
1838,1859,1864
1820,1807,1754
1863,1798,1738
1936,1856,1837
1872,1877,1923
1781,1794,1743
1813,1756,1709
1824,1827,1821
1813,1853,1871
1831,1821,1803
1861,1817,1779
1872,1851,1823
1860,1835,1827
1820,1801,1729
1822,1786,1723
1818,1817,1802
1830,1826,1826
1837,1798,1776
1870,1791,1775
1877,1846,1840
1851,1839,1807
1907,1807,1791
1939,1791,1717
1845,1815,1742
1804,1807,1791
1779,1745,1739
1829,1776,1729
1825,1810,1765
1840,1840,1815
1872,1777,1744
1861,1751,1655
1843,1792,1722
1844,1831,1815
1837,1771,1763
1933,1781,1751
1941,1837,1853
1835,1808,1755
1759,1739,1634
1780,1692,1638
1845,1781,1787
1840,1801,1802
1834,1760,1728
1871,1757,1725
1872,1788,1776
1856,1802,1794
1872,1751,1725
1890,1759,1712
1902,1794,1740
1877,1786,1755
1856,1727,1707
1872,1725,1680
1863,1776,1783
1888,1839,1837
1936,1781,1708
1926,1725,1619
1828,1717,1671
1803,1728,1723
1835,1709,1682
1889,1739,1715
1877,1761,1783
1888,1777,1786
1931,1739,1728
1910,1714,1683
1921,1758,1715
1885,1770,1751
1872,1714,1693
1887,1697,1666
1903,1740,1743
1910,1749,1765
1936,1713,1706
1968,1706,1662
1963,1742,1747
1933,1743,1749
1941,1709,1657
1957,1686,1651
1991,1733,1735
1936,1741,1757
1920,1707,1671
1922,1692,1616
1936,1730,1711
1968,1744,1778
1995,1732,1719
2019,1718,1698
2031,1745,1744
1985,1741,1717
1991,1699,1654
1995,1691,1650
1971,1727,1699
1970,1743,1758
2003,1722,1709
2041,1711,1692
2060,1750,1747
2130,1773,1775
2126,1712,1648
1999,1649,1589
1936,1714,1685
1968,1739,1745
2080,1734,1751
2119,1714,1714
2083,1730,1750
2065,1742,1774
2150,1719,1725
2207,1731,1713
2102,1727,1711
2064,1731,1691
2023,1679,1643
2075,1682,1671
2142,1759,1712
2123,1729,1745
2145,1702,1696
2181,1695,1662
2139,1726,1747
2114,1742,1837
2160,1701,1728
2176,1690,1649
2150,1719,1699
2175,1744,1750
2167,1689,1689
2203,1712,1701
2223,1757,1717
2175,1735,1791
2182,1680,1659
2224,1675,1638
2212,1734,1744
2193,1734,1778
2187,1679,1665
2250,1705,1690
2240,1728,1734
2256,1746,1799
2247,1697,1706
2256,1678,1698
2245,1723,1728
2247,1747,1767
2289,1711,1776
2313,1683,1703
2283,1711,1739
2272,1744,1775
2256,1711,1678
2297,1707,1639
2352,1739,1744
2288,1744,1779
2272,1671,1677
2316,1664,1694
2337,1707,1770
2311,1715,1791
2314,1686,1728
2362,1712,1695
2361,1744,1777
2304,1703,1758
2331,1671,1664
2383,1698,1712
2354,1722,1773
2347,1762,1836
2336,1686,1699
2359,1664,1680
2385,1708,1758
2398,1718,1802
2393,1678,1708
2400,1680,1670
2416,1735,1783
2386,1744,1815
2368,1687,1696
2386,1655,1648
2389,1699,1718
2429,1745,1865
2445,1721,1816
2449,1685,1743
2430,1717,1749
2411,1725,1771
2431,1660,1647
2435,1666,1698
2459,1727,1798
2416,1709,1787
2413,1676,1712
2477,1682,1712
2496,1744,1802
2455,1728,1790
2448,1689,1737
2511,1705,1668
2515,1740,1813
2502,1731,1803
2487,1664,1739
2468,1686,1737
2514,1759,1823
2467,1738,1807
2491,1690,1742
2537,1691,1739
2511,1717,1828
2529,1750,1847
2533,1719,1786
2517,1680,1756
2530,1744,1824
2515,1745,1822
2524,1714,1735
2544,1701,1717
2559,1751,1859
2544,1750,1878
2511,1703,1760
2540,1699,1737
2559,1742,1803
2553,1750,1786
2559,1729,1765
2618,1717,1861
2599,1741,1893
2559,1744,1743
2542,1706,1872
2558,1695,1755
2608,1744,1858
2608,1749,1840
2609,1728,1817
2559,1686,1762
2551,1707,1779
2586,1745,1853
2624,1712,1831
2637,1744,1823
2559,1744,1857
2535,1730,1812
2587,1695,1797
2652,1743,1835
2615,1786,1815
2559,1757,1901
2559,1706,1774
2583,1701,1779
2627,1754,1820
2587,1751,1974
2559,1712,1779
2605,1741,1750
2595,1737,1819
2559,1742,1839
2599,1729,1831
2605,1719,1824
2615,1772,1860
2589,1755,1877
2604,1726,1838
2607,1722,1821
2604,1749,1872
2592,1776,1905
2590,1723,1821
2634,1742,1818
2642,1770,1854
2594,1770,1863
2599,1762,1860
2675,1729,1859
2645,1772,1882
2559,1773,1824
2499,1689,1859
2555,1711,1825
2609,1778,1909
2592,1774,1914
2613,1733,1865
2641,1744,1849
2603,1791,1885
2559,1789,1918
2635,1745,1897
2634,1719,1855
2559,1761,1898
2531,1773,1927
2538,1726,1792
2622,1735,1859
2630,1788,1916
2559,1795,1881
2512,1719,1790
2550,1731,1840
2559,1761,1920
2559,1779,1931
2608,1783,1842
2598,1753,1833
2543,1781,1883
2544,1786,1917
2513,1722,1857
2495,1687,1759
2495,1747,1872
2517,1795,1936
2559,1749,1882
2559,1741,1882
2523,1778,1895
2485,1789,1915
2559,1774,1893
2559,1767,1845
2510,1778,1906
2455,1770,1925
2463,1723,1839
2495,1719,1795
2530,1804,1887
2544,1806,1966
2494,1759,1885
2494,1747,1841
2498,1817,1908
2491,1817,1942
2467,1745,1855
2480,1744,1841
2515,1847,1936
2479,1804,1936
2452,1739,1839
2452,1738,1808
2464,1795,1909
2470,1811,1957
2485,1775,1903
2498,1755,1887
2460,1775,1895
2405,1793,1904
2417,1776,1872
2464,1776,1869
2466,1821,1937
2485,1801,1925
2400,1761,1857
2455,1781,1846
2445,1825,1952
2407,1818,1962
2410,1763,1863
2416,1750,1801
2462,1795,1887
2368,1809,1926
2359,1758,1893
2352,1753,1854
2449,1808,1893
2407,1840,1922
2423,1813,1907
2401,1776,1874
2355,1804,1918
2352,1810,1951
2377,1794,1869
2379,1806,1850
2378,1814,1901
2371,1838,1936
2366,1797,1874
2352,1770,1872
2381,1825,1913
2350,1790,1853
2361,1766,1836
2349,1783,1847
2333,1842,1936
2359,1840,1959
2337,1807,1871
2371,1822,1853
2279,1807,1890
2250,1799,1904
2301,1782,1872
2311,1787,1850
2304,1803,1840
2319,1819,1894
2323,1793,1878
2300,1789,1875
2336,1834,1930
2247,1826,1936
2311,1810,1875
2320,1834,1896
2273,1843,1898
2259,1850,1910
2247,1794,1840
2243,1778,1839
2240,1823,1917
2301,1868,1954
2242,1801,1871
2169,1759,1809
2269,1799,1853
2288,1843,1918
2220,1808,1879
2230,1806,1861
2182,1841,1926
2193,1853,1964
2221,1806,1872
2220,1813,1865
2226,1834,1898
2172,1820,1909
2227,1804,1858
2218,1803,1871
2210,1849,1931
2190,1846,1918
2192,1798,1854
2175,1775,1825
2160,1830,1889
2155,1847,1931
2166,1805,1845
2165,1827,1885
2126,1853,1943
2123,1840,1942
2130,1793,1841
2160,1787,1807
2151,1826,1873
2154,1851,1939
2156,1823,1891
2128,1803,1837
2117,1858,1893
2128,1877,1958
2096,1808,1859
2129,1828,1876
2171,1882,1957
2159,1877,1993
2079,1821,1861
2071,1817,1819
2098,1827,1859
2063,1840,1922
2032,1811,1887
2231,1818,1904
2129,1862,1945
2044,1858,1909
2065,1841,1872
2102,1809,1857
2070,1862,1938
2078,1916,2001
2118,1863,1931
2064,1811,1873
1991,1835,1856
2018,1857,1895
2064,1839,1904
2082,1830,1904
2032,1875,1928
1991,1869,1934
2089,1823,1895
2036,1804,1875
2039,1854,1913
2055,1915,1942
2098,1856,1887
1975,1813,1853
1969,1846,1916
2080,1887,1970
1922,1835,1861
1986,1823,1838
2007,1861,1917
1923,1874,1962
1902,1809,1871
2009,1819,1856
1916,1866,1927
2054,1898,1986
2000,1859,1921
1978,1859,1897
1950,1886,1912
1950,1875,1933
1956,1839,1857
1995,1840,1885
1997,1872,1946
1970,1909,1985
1920,1865,1904
1953,1867,1872
1940,1854,1849
1858,1846,1876
1933,1844,1889
1915,1831,1877
1889,1863,1909
1923,1893,1939
1927,1854,1898
1968,1850,1856
1915,1870,1904
1914,1905,1965
1907,1859,1894
1943,1846,1863
1985,1874,1906
1907,1887,1947
1914,1819,1883
1867,1834,1859
2000,1903,1944
1889,1893,1987
1902,1836,1885
1900,1840,1828
1956,1891,1917
1904,1907,1989
1905,1870,1872
1920,1872,1858
1898,1891,1936
1872,1931,1991
1882,1869,1896
1867,1841,1865
1879,1885,1935
1885,1923,1966
1873,1885,1920
1847,1841,1847
1856,1874,1911
1847,1877,1904
1847,1845,1834
1851,1866,1876
1875,1930,2010
1845,1927,1994
1836,1865,1887
1870,1865,1856
1856,1907,1921
1840,1919,1991
1838,1873,1904
1874,1872,1900
1845,1872,1929
1834,1914,1958
1799,1861,1882
1808,1847,1875
1824,1899,1933
1823,1891,1929
1826,1869,1889
1851,1878,1931
1854,1926,1984
1791,1935,1958
1799,1893,1891
1836,1870,1888
1834,1904,1936
1783,1919,1985
1795,1885,1906
1839,1883,1876
1798,1904,1910
1789,1913,1955
1835,1901,1935
1813,1870,1888
1808,1906,1946
1785,1918,1979
1806,1895,1920
1821,1892,1885
1819,1904,1939
1801,1914,1983
1810,1904,1952
1830,1894,1898
1810,1898,1926
1851,1964,1991
1846,1917,1920
1792,1856,1874
1726,1870,1899
1759,1910,1952
1813,1901,1908
1821,1889,1903
1817,1917,1961
1798,1946,2001
1802,1908,1921
1811,1888,1899
1835,1943,1963
1785,1921,1968
1779,1872,1904
1809,1858,1904
1840,1923,1981
1792,1941,2000
1791,1896,1904
1761,1873,1856
1777,1949,1957
1766,1936,2007
1762,1879,1920
1822,1898,1915
1802,1925,1979
1759,1932,1969
1765,1904,1929
1784,1872,1906
1787,1911,1955
1785,1913,1998
1774,1867,1919
1782,1879,1873
1797,1939,1965
1782,1968,2022
1749,1899,1920
1787,1893,1915
1806,1919,1948
1731,1909,1955
1761,1904,1921
1843,1931,1949
1777,1919,1936
1718,1877,1936
1742,1895,1866
1783,1883,1895
1773,1914,1973
1759,1936,2003
1773,1923,1940
1776,1879,1877
1750,1918,1932
1792,1963,2031
1762,1906,1942
1759,1890,1883
1762,1917,1945
1754,1929,1986
1713,1872,1886
1771,1894,1875
1777,1933,1946
1749,1929,1978
1778,1903,1931
1780,1882,1878
1749,1916,1916
1760,1942,1983
1745,1887,1934
1746,1872,1878
1764,1916,1925
1745,1953,1975
1753,1915,1940
1785,1893,1913
1750,1895,1935
1715,1935,1970
1725,1890,1903
1783,1901,1883
1788,1942,1972
1732,1920,1952
1714,1889,1905
1749,1872,1882
1766,1919,1950
1733,1910,1949
1733,1889,1895
1783,1904,1918
1738,1901,1915
1709,1930,1952
1761,1894,1913
1757,1880,1883
1712,1920,1927
1718,1927,1969
1741,1909,1920
1747,1887,1871
1733,1917,1920
1744,1943,1973
1725,1887,1915
1760,1879,1894
1733,1910,1935
1733,1950,1988
1723,1889,1886
1737,1881,1856
1745,1936,1923
1727,1967,1984
1710,1904,1911
1731,1899,1879
1744,1943,1951
1727,1951,1985
1740,1904,1917
1783,1906,1899
1787,1967,1958
1703,1905,1910
1666,1846,1847
1706,1872,1856
1743,1909,1917
1744,1931,1978
1726,1936,1877
1744,1890,1877
1722,1972,1934
1719,1962,1970
1742,1888,1920
1739,1885,1845
1719,1938,1918
1727,1919,1947
1747,1891,1911
1792,1895,1903
1728,1861,1914
1689,1927,1938
1705,1872,1874
1717,1893,1842
1757,1929,1935
1749,1919,1985
1755,1840,1925
1771,1922,1878
1759,1961,1903
1733,1941,1942
1697,1872,1855
1739,1865,1843
1731,1907,1915
1739,1946,1989
1747,1905,1925
1767,1926,1870
1738,1918,1907
1712,1915,1921
1738,1886,1891
1751,1875,1854
1731,1915,1903
1716,1970,1954
1733,1899,1890
1791,1883,1895
1794,1975,1936
1760,1959,1955
1702,1866,1825
1712,1851,1775
1742,1914,1926
1739,1936,1993
1764,1898,1904
1767,1878,1838
1711,1886,1842
1733,1928,1919
1727,1872,1891
1711,1873,1876
1712,1920,1889
1737,1920,1911
1756,1895,1878
1754,1869,1840
1766,1949,1936
1743,1906,1929
1719,1887,1856
1756,1904,1853
1744,1923,1920
1731,1877,1919
1727,1853,1808
1738,1850,1807
1758,1904,1893
1751,1917,1949
1731,1861,1865
1759,1911,1855
1744,1934,1891
1729,1942,1911
1741,1903,1856
1757,1857,1825
1756,1920,1890
1712,1910,1925
1696,1897,1840
1772,1874,1841
1792,1899,1889
1757,1887,1895
1712,1854,1863
1759,1902,1839
1744,1870,1872
1714,1906,1897
1712,1873,1834
1771,1874,1813
1776,1918,1904
1809,1968,1994
1747,1876,1856
1717,1837,1776
1719,1890,1856
1739,1936,1933
1803,1874,1903
1780,1894,1840
1735,1838,1840
1722,1904,1878
1725,1904,1847
1762,1904,1840
1792,1904,1905
1739,1921,1889
1765,1875,1862
1791,1855,1839
1753,1775,1878
1735,1899,1893
1744,1872,1812
1792,1872,1826
1782,1901,1888
1738,1895,1856
1794,1875,1857
1788,1875,1841
1776,1929,1915
1728,1915,1904
1735,1857,1804
1747,1827,1740
1779,1892,1870
1779,1933,1935
1770,1916,1859
1749,1859,1763
1759,1818,1835
1757,1873,1911
1776,1904,1863
1834,1919,1815
1831,1904,1885
1747,1889,1840
1705,1937,1814
1727,1859,1797
1744,1874,1839
1776,1907,1903
1783,1904,1835
1824,1869,1819
1776,1824,1853
1743,1927,1843
1768,1870,1840
1790,1937,1836
1792,1919,1879
1764,1918,1890
1805,1791,1839
1778,1840,1776
1766,1882,1865
1750,1920,1918
1778,1878,1826
1783,1840,1782
1778,1936,1833
1767,1898,1890
1776,1917,1844
1792,1858,1808
1787,1885,1852
1783,1900,1878
1749,1867,1802
1779,1867,1772
1776,1885,1834
1770,1932,1906
1776,1890,1829
1810,1878,1807
1793,1917,1872
1728,1889,1878
1734,1907,1793
1809,1878,1753
1837,1935,1872
1760,1907,1899
1751,1904,1857
1808,1870,1831
1777,1921,1827
1761,1901,1857
1786,1875,1821
1812,1885,1777
1776,1844,1830
1745,1904,1872
1757,1811,1834
1840,1954,1840
1792,1872,1837
1751,1879,1868
1769,1859,1807
1818,1850,1767
1794,1895,1855
1751,1901,1894
1745,1859,1808
1791,1837,1777
1801,1879,1840
1787,1887,1863
1770,1838,1777
1777,1843,1775
1751,1872,1826
1755,1904,1872
1767,1850,1808
1822,1846,1823
1840,1914,1890
1770,1894,1866
1762,1839,1751
1788,1839,1732
1803,1881,1843
1779,1900,1875
1771,1850,1805
1804,1863,1793
1803,1872,1835
1791,1876,1848
1810,1823,1763
1802,1822,1756
1776,1863,1845
1779,1889,1902
1804,1859,1840
1824,1865,1802
1830,1897,1867
1791,1895,1859
1744,1822,1771
1779,1833,1769
1782,1879,1841
1787,1910,1874
1817,1868,1814
1850,1840,1795
1802,1871,1831
1782,1891,1871
1826,1855,1803
1811,1813,1747
1798,1856,1840
1787,1886,1891
1799,1844,1838
1813,1846,1799
1803,1885,1857
1793,1898,1866
1794,1839,1793
1834,1845,1775
1841,1892,1843
1791,1869,1843
1791,1845,1785
1820,1847,1793
1833,1888,1870
1826,1879,1854
1799,1840,1803
1793,1817,1786
1785,1862,1826
1809,1895,1872
1842,1851,1849
1855,1835,1819
1815,1877,1833
1783,1902,1862
1802,1845,1813
1821,1830,1758
1850,1893,1827
1859,1917,1870
1797,1821,1780
1810,1814,1773
1808,1862,1860
1806,1893,1877
1817,1828,1791
1839,1835,1788
1831,1875,1838
1815,1882,1886
1808,1829,1808
1847,1827,1770
1846,1889,1838
1824,1875,1867
1798,1793,1745
1819,1789,1759
1840,1856,1819
1807,1856,1857
1791,1808,1803
1840,1825,1808
1838,1850,1836
1810,1860,1840
1817,1825,1807
1823,1799,1747
1803,1834,1792
1839,1878,1887
1841,1811,1825
1841,1783,1771
1825,1810,1795
1850,1842,1839
1787,1777,1753
1825,1776,1761
1806,1807,1826
1790,1834,1844
1827,1806,1815
1840,1808,1793
1834,1840,1834
1813,1817,1867
1839,1795,1828
1825,1775,1766
1818,1821,1779
1809,1834,1856
1840,1810,1830
1837,1776,1775
1819,1802,1815
1808,1845,1878
1823,1809,1819
1847,1790,1750
1892,1824,1819
1870,1849,1891
1811,1797,1843
1826,1782,1793
1843,1824,1827
1797,1838,1840
1798,1787,1781
1834,1798,1778
1893,1856,1872
1820,1831,1871
1812,1803,1813
1821,1779,1763
1831,1822,1823
1843,1858,1900
1836,1812,1825
1840,1789,1769
1856,1840,1836
1856,1852,1865
1840,1802,1822
1851,1787,1774
1824,1821,1815
1805,1832,1853
1847,1807,1814
1899,1828,1813
1840,1827,1818
1814,1839,1838
1808,1779,1755
1854,1801,1779
1871,1847,1851
1825,1840,1874
1808,1794,1819
1846,1793,1741
1865,1826,1826
1819,1835,1888
1822,1819,1819
1801,1782,1744
1831,1811,1776
1860,1855,1840
1871,1823,1875
1819,1794,1815
1793,1817,1783
1827,1852,1856
1851,1825,1810
1839,1781,1778
1837,1815,1826
1829,1841,1840
1806,1794,1808
1833,1786,1782
1840,1851,1803
1850,1885,1892
1858,1833,1860
1846,1808,1742
1859,1855,1776
1821,1853,1847
1833,1815,1791
1862,1831,1808
1850,1844,1830
1826,1828,1840
1811,1808,1776
1857,1805,1776
1849,1823,1818
1838,1835,1861
1833,1813,1841
1861,1818,1757
1842,1825,1808
1814,1840,1808
1824,1831,1789
1851,1805,1744
1842,1835,1805
1840,1873,1889
1838,1826,1826
1815,1781,1740
1786,1812,1762
1831,1872,1867
1845,1835,1818
1847,1807,1750
1814,1827,1787
1811,1840,1804
1829,1809,1808
1839,1808,1783
1810,1841,1808
1845,1867,1857
1871,1826,1815
1808,1782,1742
1814,1834,1787
1807,1869,1851
1795,1830,1789
1846,1811,1746
1857,1859,1834
1834,1866,1868
1823,1838,1831
1841,1821,1810
1842,1837,1834
1814,1857,1876
1821,1842,1867
1847,1829,1758
1840,1840,1847
1845,1883,1890
1854,1867,1862
1856,1840,1817
1813,1841,1838
1837,1872,1867
1871,1854,1843
1856,1827,1786
1865,1883,1853
1867,1891,1895
1840,1843,1826
1840,1813,1799
1845,1857,1815
1819,1885,1862
1861,1875,1863
1860,1821,1787
1821,1841,1814
1823,1890,1901
1847,1852,1838
1900,1861,1824
1872,1879,1859
1837,1894,1888
1838,1855,1825
1885,1841,1792
1903,1884,1854
1873,1914,1919
1855,1857,1802
1879,1840,1767
1869,1861,1892
1843,1914,1873
1858,1889,1806
1899,1885,1824
1885,1884,1903
1877,1911,1903
1859,1879,1843
1872,1856,1778
1891,1891,1826
1915,1935,1933
1899,1909,1879
1855,1823,1780
1856,1840,1817
1853,1881,1900
1870,1878,1851
1886,1867,1812
1866,1899,1830
1839,1904,1884
1838,1845,1830
1883,1857,1814
1924,1905,1857
1873,1904,1840
1830,1843,1879
1883,1835,1829
1903,1900,1851
1841,1905,1874
1823,1855,1804
1872,1839,1779
1901,1872,1846
1856,1886,1893
1842,1859,1870
1950,1898,1809
1878,1876,1923
1809,1878,1860
1825,1831,1708
1871,1822,1834
1887,1882,1835
1865,1898,1890
1857,1841,1821
1921,1855,1840
1881,1877,1845
1825,1878,1872
1827,1845,1805
1887,1842,1806
1893,1872,1871
1879,1886,1905
1883,1867,1851
1874,1845,1756
1897,1876,1852
1840,1892,1913
1834,1843,1776
1879,1814,1757
1872,1855,1863
1827,1895,1901
1902,1895,1913
1908,1840,1770
1873,1855,1827
1853,1872,1904
1872,1850,1865
1823,1812,1757
1810,1823,1799
1884,1910,1913
1905,1870,1852
1856,1793,1761
1855,1839,1793
1872,1919,1969
1900,1905,1872
1843,1806,1776
1839,1835,1712
1855,1889,1867
1899,1859,1864
1876,1827,1693
1875,1887,1847
1941,1921,1905
1875,1817,1803
1820,1809,1719
1858,1874,1841
1892,1878,1952
1882,1872,1839
1871,1827,1797
1840,1850,1839
1858,1888,1893
1872,1853,1840
1908,1853,1815
1882,1873,1810
1857,1904,1842
1873,1865,1849
1868,1855,1808
1883,1872,1837
1850,1847,1858
1815,1792,1734
1878,1817,1742
1873,1868,1817
1890,1936,1914
1895,1879,1840
1872,1858,1825
1855,1856,1808
1863,1867,1875
1866,1834,1846
1887,1841,1811
1854,1872,1843
1886,1899,1874
1881,1838,1808
1873,1803,1723
1908,1904,1870
1866,1890,1906
1869,1805,1805
1904,1840,1826
1835,1904,1894
1835,1853,1849
1869,1795,1728
1978,1840,1802
1896,1890,1936
1841,1866,1903
1851,1850,1840
1954,1841,1816
1921,1847,1815
1843,1840,1787
1852,1826,1796
1836,1808,1808
1834,1835,1878
1857,1867,1905
1860,1780,1814
1968,1831,1827
1923,1870,1863
1802,1837,1829
1837,1808,1845
1934,1844,1827
1898,1843,1844
1840,1830,1915
1807,1798,1781
1815,1829,1728
1838,1838,1851
1904,1849,1910
1847,1806,1769
1882,1797,1790
1895,1872,1875
1891,1849,1900
1901,1829,1882
1850,1786,1788
1808,1786,1791
1808,1794,1849
1847,1803,1824
1862,1796,1819
1914,1872,1854
1843,1841,1839
1854,1821,1839
1928,1819,1835
1856,1840,1870
1841,1834,1862
1869,1808,1829
1870,1808,1796
1883,1840,1845
1856,1856,1860
1808,1806,1775
1813,1773,1729
1901,1840,1856
1913,1834,1919
1820,1802,1853
1823,1798,1823
1854,1851,1872
1899,1857,1883
1922,1850,1839
1867,1778,1799
1870,1807,1817
1799,1845,1886
1851,1817,1855
1887,1793,1818
1829,1809,1827
1895,1855,1879
1805,1790,1821
1866,1797,1801
1898,1824,1861
1874,1858,1904
1902,1824,1840
1900,1810,1853
1935,1813,1851
1899,1852,1885
1872,1835,1840
1920,1789,1804
1890,1818,1859
1835,1842,1881
1847,1819,1835
1887,1795,1776
1879,1817,1852
1850,1831,1873
1856,1808,1808
1888,1815,1827
1878,1834,1841
1889,1840,1911
1847,1807,1878
1855,1776,1798
1867,1846,1855
1990,1857,1904
1815,1808,1831
1826,1786,1786
1997,1822,1840
1840,1853,1897
1867,1808,1845
1908,1808,1826
2045,1857,1904
1879,1840,1874
1891,1774,1777
1847,1778,1801
1900,1823,1856
1875,1871,1915
1876,1826,1857
1878,1787,1776
1872,1829,1813
1865,1854,1873
1872,1822,1854
1968,1785,1804
1936,1839,1839
1877,1872,1881
1822,1811,1827
1861,1795,1794
1892,1855,1877
1903,1871,1930
1887,1806,1799
1951,1805,1781
1902,1823,1851
1831,1852,1878
1865,1821,1823
1887,1805,1787
1858,1829,1826
1904,1862,1917
1941,1836,1874
1952,1829,1811
1910,1844,1861
1860,1853,1857
1904,1808,1815
1845,1808,1758
1910,1865,1873
1915,1866,1911
1904,1808,1842
1935,1803,1771
1863,1808,1810
1856,1869,1936
1900,1821,1863
1889,1798,1787
1869,1824,1825
1856,1862,1865
1858,1854,1855
1922,1810,1805
1923,1840,1825
1862,1850,1862
1851,1813,1813
1893,1808,1803
1982,1856,1883
1957,1856,1902
1969,1840,1847
1940,1795,1761
1929,1835,1823
1919,1868,1883
1871,1808,1807
1923,1813,1787
1979,1841,1819
1847,1866,1882
1965,1808,1825
1884,1813,1791
1920,1861,1856
1904,1863,1860
1872,1825,1841
1898,1799,1782
1918,1841,1861
1999,1858,1906
1899,1812,1792
1920,1819,1801
1903,1840,1828
1874,1849,1862
1904,1837,1813
1927,1840,1771
1954,1859,1856
1943,1870,1902
1920,1838,1825
1916,1827,1788
1919,1856,1838
1883,1850,1854
1928,1840,1827
1959,1833,1840
1937,1863,1861
1893,1872,1843
1898,1843,1781
1941,1830,1751
1925,1872,1856
1899,1858,1899
1934,1830,1822
1919,1808,1787
1935,1876,1877
1911,1881,1906
1901,1808,1811
1991,1830,1777
1951,1861,1776
1886,1883,1806
1875,1834,1795
1909,1808,1789
1907,1861,1848
1933,1907,1930
1927,1849,1857
1923,1791,1742
1901,1839,1783
1903,1876,1870
1935,1840,1829
1946,1822,1795
1922,1870,1788
1920,1875,1850
1921,1840,1833
1904,1808,1777
1911,1870,1845
1933,1897,1931
1899,1827,1804
1907,1822,1728
1981,1872,1855
1910,1873,1905
1897,1838,1829
1908,1835,1791
1902,1859,1783
1887,1872,1821
1936,1809,1799
1968,1818,1811
1943,1879,1897
1889,1886,1895
1842,1810,1764
1920,1835,1813
1943,1867,1855
1935,1885,1856
1910,1838,1802
1904,1794,1743
1901,1844,1866
1904,1872,1886
1931,1853,1808
1920,1795,1717
1937,1842,1830
1902,1875,1904
1895,1829,1781
1885,1826,1751
1904,1835,1807
1893,1840,1845
1930,1855,1841
1908,1808,1803
1933,1872,1840
1895,1861,1869
1904,1825,1821
1923,1822,1803
1962,1904,1872
1922,1881,1840
1870,1812,1771
1889,1808,1792
1895,1840,1810
1906,1873,1858
1906,1838,1808
1933,1814,1778
1917,1851,1845
1933,1883,1911
1935,1846,1840
1917,1801,1767
1904,1827,1817
1893,1868,1890
1886,1837,1833
1872,1792,1733
1917,1838,1815
1893,1859,1867
1927,1840,1806
1934,1808,1793
1918,1818,1841
1878,1845,1872
1896,1814,1827
1944,1809,1779
1954,1852,1871
1908,1853,1934
1885,1819,1845
1904,1793,1786
1891,1809,1774
1903,1849,1846
1904,1820,1840
1920,1795,1797
1918,1837,1851
1918,1870,1882
1890,1808,1808
1904,1794,1777
1975,1841,1840
1954,1890,1919
1834,1808,1805
1870,1794,1761
1959,1879,1855
1905,1858,1888
1842,1787,1792
1871,1802,1776
1934,1852,1842
1904,1840,1889
1906,1823,1820
1903,1787,1734
1920,1851,1850
1850,1837,1856
1900,1839,1793
1933,1857,1841
1849,1818,1840
1875,1840,1901
1899,1817,1831
1872,1780,1735
1921,1845,1823
1926,1869,1887
1881,1808,1847
1909,1803,1837
1889,1842,1833
1891,1842,1852
