1879,1842,1831
1881,1890,1915
1904,1883,1910
1884,1827,1825
1946,1834,1836
1951,1875,1918
1885,1890,1911
1872,1808,1835
1904,1806,1831
1887,1855,1911
1901,1862,1919
1859,1793,1836
1914,1782,1829
1947,1845,1910
1881,1856,1921
1908,1795,1834
1956,1802,1827
1950,1856,1907
1946,1855,1916
1951,1837,1835
1970,1872,1847
1982,1910,1927
1961,1921,1919
1964,1889,1830
1987,1917,1820
1997,1989,1907
1982,2030,1939
1953,1996,1847
1991,1986,1831
2004,2086,1917
1951,2207,1942
1973,2160,1848
2088,2171,1834
2022,2224,1906
1969,2257,1931
2009,2238,1846
2045,2265,1831
1936,2313,1904
1987,2366,1904
1951,2333,1824
2007,2330,1816
2007,2381,1915
1984,2383,1933
1984,2362,1834
1997,2394,1821
1993,2422,1899
1978,2411,1905
1978,2371,1825
1989,2384,1825
1979,2416,1904
1968,2413,1915
1943,2379,1825
1962,2385,1826
1973,2443,1910
1997,2446,1917
1914,2402,1821
2027,2402,1822
1946,2453,1913
1914,2453,1917
1968,2388,1822
1982,2384,1821
1999,2432,1899
1929,2419,1907
2012,2371,1814
1994,2383,1825
1989,2422,1905
1983,2410,1920
1894,2352,1816
1968,2345,1809
1953,2388,1893
1945,2386,1904
1945,2341,1826
1985,2327,1821
1941,2373,1901
1926,2371,1907
1959,2308,1815
1906,2299,1811
1926,2350,1889
1923,2359,1903
1885,2302,1808
1939,2316,1814
1943,2361,1910
1936,2333,1909
1935,2224,1823
1937,2258,1813
1968,2334,1891
1853,2320,1900
1920,2246,1809
1937,2233,1800
1949,2280,1881
1918,2277,1899
1895,2217,1815
1919,2236,1806
1925,2242,1909
1909,2224,1919
1919,2189,1821
1907,2170,1815
1939,2205,1904
1904,2177,1913
1933,2107,1810
1887,2116,1820
1943,2160,1904
1935,2161,1911
1936,2078,1823
1903,2084,1813
1904,2128,1901
1891,2120,1908
1889,2067,1825
1920,2064,1826
1925,2094,1909
1904,2080,1904
1946,2103,1859
1938,2082,1845
1887,1999,1877
1882,1973,1892
1903,1936,1811
1923,1982,1821
1919,2043,1901
1899,2031,1936
1889,1958,1841
1905,1936,1820
1908,1973,1882
1885,1982,1904
1891,1923,1823
1905,1894,1808
1898,1927,1874
1888,1952,1904
1910,1897,1846
1903,1875,1808
1874,1927,1892
1872,1948,1920
1879,1871,1838
1902,1842,1823
1879,1857,1872
1869,1838,1891
1885,1803,1830
1913,1818,1828
1903,1856,1899
1886,1840,1914
1872,1783,1819
1894,1798,1822
1924,1857,1907
1910,1871,1926
1875,1774,1810
1873,1758,1783
1878,1791,1870
1872,1791,1892
1874,1754,1823
1906,1745,1811
1914,1776,1875
1954,1796,1953
1951,1776,1893
1920,1761,1840
1894,1727,1888
1920,1739,1912
1967,1719,1840
1888,1733,1776
1842,1715,1857
1847,1697,1895
1877,1691,1822
1916,1697,1809
1907,1757,1890
1872,1762,1868
1882,1697,1790
1915,1690,1819
1912,1793,1879
1871,1830,1878
1867,1727,1786
1902,1728,1787
1904,1790,1867
1877,1808,1878
1872,1760,1791
1879,1760,1761
1913,1855,1873
1920,1847,1904
1875,1744,1767
1888,1793,1744
1886,1871,1823
1856,1840,1814
1808,1805,3031
1670,1726,1740
1461,1563,2898
638,848,2700
55,342,0
361,614,623
848,1129,1810
1150,1326,2099
1219,1358,1951
1227,1479,1797
1304,1678,1789
1397,1795,1817
1473,1819,1833
1490,1830,1827
1514,1942,1830
1587,2059,1833
1648,2035,1823
1667,2074,1834
1648,2142,1829
1680,2207,1831
1742,2219,1830
1750,2235,1829
1728,2320,1824
1746,2352,1824
1828,2358,1828
1810,2363,1829
1781,2447,1831
1781,2509,1830
1817,2512,1825
1867,2545,1830
1855,2606,1829
1825,2585,1825
1872,2611,1831
1886,2629,1827
1870,2672,1827
1843,2698,1827
1856,2669,1829
1890,2685,1815
1881,2755,1855
1872,2719,1855
1883,2641,1783
1918,2644,1777
1936,2687,1840
1903,2706,1818
1879,2669,1727
1904,2657,1725
1917,2700,1803
1899,2702,1819
1900,2637,1721
1920,2624,1707
1922,2637,1771
1904,2627,1783
1897,2557,1706
1914,2542,1670
1908,2559,1748
1913,2559,1798
1910,2507,1698
1935,2461,1678
1945,2495,1761
1931,2501,1774
1921,2419,1665
1936,2384,1658
1954,2446,1755
1927,2443,1763
1931,2352,1679
1957,2338,1663
1958,2372,1743
1927,2362,1762
1955,2320,1693
1984,2315,1693
1947,2289,1739
1930,2269,1744
1934,2214,1675
1958,2211,1661
1969,2247,1744
1952,2244,1776
1958,2179,1697
1969,2106,1667
1975,2206,1741
1951,2225,1762
1951,2112,1680
1978,2061,1671
1982,2119,1740
1943,2074,1760
1954,2100,1676
1977,2014,1648
1978,2019,1744
1962,2093,1779
1951,2028,1692
1966,1987,1651
1964,2013,1742
1950,2014,1767
1958,1982,1664
1975,1929,1643
1977,2023,1716
1966,1956,1745
1967,1968,1658
1979,1870,1619
1979,1898,1680
1968,1935,1712
1981,1895,1648
2000,1890,1637
1990,1904,1697
1965,1907,1716
1959,1859,1616
1985,1810,1601
1971,1828,1682
1943,1808,1702
1961,1831,1631
1984,1790,1615
1973,1836,1683
1951,1844,1710
1949,1826,1626
1962,1760,1603
1968,1771,1686
1971,1822,1725
1977,1781,1637
1999,1749,1602
1980,1750,1674
1932,1737,1726
1920,1708,1632
1958,1709,1616
1961,1658,1694
1933,1673,1693
1959,1676,1648
1999,1711,1683
1968,1765,1744
1938,1729,1734
1921,1680,1612
1969,1712,1646
2064,1872,1780
1985,1617,1759
1872,1437,1599
1874,1535,1587
1943,1751,1677
1943,1724,1759
1971,1660,1733
2053,1601,1645
1968,1478,1654
1874,1510,1760
1838,1575,1701
1907,1689,1698
1962,1680,1776
1919,1661,1794
1913,1648,1703
1923,1599,1664
1893,1648,1730
1863,1780,1771
1953,1722,1757
2000,1778,1732
1901,1784,1765
1840,1765,1738
1898,1831,1717
1897,1849,1712
1891,1898,1776
1903,1841,1744
1895,1777,1671
1885,1841,1707
1857,1947,1835
1908,2017,1890
1926,1989,1797
1919,1995,1758
1899,2042,1857
1834,2029,1808
1829,2021,1744
1904,2101,1773
1891,2149,1812
1903,2203,1875
1904,2190,1776
1874,2174,1755
1867,2174,1838
1878,2282,1878
1897,2224,1826
1914,2110,1776
1879,2179,1809
1862,2262,1930
1906,2289,1872
1932,2222,1797
1895,2256,1872
1907,2322,1856
1951,2299,1885
1947,2267,1857
1955,2331,1951
1927,2351,1998
1891,2263,1824
1940,2259,1840
1952,2294,1922
1961,2279,1939
2001,2311,1888
1978,2242,1876
1904,2300,1904
1903,2263,1963
1918,2249,1891
1938,2303,1854
1975,2288,1957
1939,2303,1973
1963,2218,1849
2001,2256,1883
1958,2297,1959
1893,2337,1939
1920,2236,1880
1966,2234,1869
1989,2199,1913
1979,2222,1942
1903,2218,1875
1900,2192,1856
1967,2269,1968
1994,2267,2007
1939,2170,1903
1927,2147,1851
1919,2176,1904
1920,2189,1951
1952,2141,1885
1981,2089,1866
1937,2169,1919
2011,2191,2009
1930,2038,1863
1921,2058,1837
1966,2112,1956
1936,2112,1967
1936,2053,1871
1968,2031,1876
1967,2149,1981
1909,2058,1917
1937,1985,1822
1974,1965,1845
1968,2017,1964
1943,2059,1963
1927,1938,1859
1943,1903,1823
1926,1929,1924
1889,1947,1931
1941,1955,1847
1978,1905,1869
1968,2034,1919
1948,1955,1905
1937,1918,1893
1918,1783,1850
1930,1863,1866
1946,1904,1953
1938,1947,1895
1949,1826,1790
1965,1863,1877
1908,1829,1877
1882,1746,1780
1936,1785,1805
1953,1843,1853
1937,1845,1889
1904,1777,1824
1923,1744,1746
1962,1849,1844
1930,1810,1855
1904,1759,1761
1942,1785,1773
1914,1799,1765
1878,1794,1762
1895,1744,1731
1936,1776,1751
1947,1808,1811
1905,1801,1808
1925,1809,1737
1963,1798,1724
1922,1789,1793
1878,1790,1837
1923,1778,1747
1968,1795,1683
1936,1822,1802
1887,1789,1859
1899,1733,1727
1984,1754,1721
1905,1775,1776
1877,1792,1813
1904,1754,1728
1963,1793,1739
1904,1786,1728
1872,1776,1793
1902,1744,1750
1922,1735,1703
1939,1808,1808
1926,1774,1842
1858,1650,1712
1945,1725,1712
1927,1763,1807
1904,1776,1850
1869,1706,1707
1874,1697,1691
1907,1766,1787
1953,1831,1753
1929,1702,1707
1904,1674,1696
1858,1678,1675
1870,1730,1712
1872,1699,1616
1903,1709,1535
1899,1728,1611
1887,1719,1681
1902,1717,1524
1873,1693,1473
1888,1719,1553
1898,1775,1602
1861,1676,1508
1866,1644,1488
1847,1674,1535
1862,1717,1554
1877,1665,1487
1903,1680,1474
1879,1712,1533
1845,1703,1535
1838,1660,1472
1826,1638,1411
1899,1719,1584
1907,1695,1624
1859,1637,1490
1898,1671,1503
1899,1675,1581
1837,1663,1597
1824,1642,1509
1882,1673,1451
1901,1663,1535
1931,1729,1715
1855,1645,1583
1830,1611,1503
1867,1659,1591
1911,1668,1621
1918,1642,1599
1861,1604,1535
1862,1659,1623
1878,1691,1647
1887,1639,1561
1917,1621,1599
1869,1667,1662
1867,1709,1636
1854,1621,1638
1863,1587,1595
1914,1646,1645
1874,1655,1659
1862,1664,1660
1856,1619,1630
1858,1643,1661
1881,1670,1680
1827,1581,1613
1849,1599,1627
1851,1642,1680
1901,1664,1771
1872,1634,1713
1891,1629,1625
1911,1634,1717
1802,1633,1738
1790,1584,1639
1857,1561,1647
1888,1618,1767
1858,1625,1767
1860,1594,1709
1872,1612,1712
1877,1616,1744
1840,1627,1743
1822,1559,1685
1854,1535,1673
1851,1585,1770
1850,1631,1819
1815,1570,1680
1809,1522,1662
1827,1596,1757
1828,1641,1829
1872,1600,1769
1937,1584,1775
1847,1574,1771
1766,1562,1806
1787,1520,1731
1840,1524,1727
1835,1590,1802
1818,1593,1823
1821,1574,1776
1842,1569,1735
1840,1601,1806
1823,1616,1858
1815,1568,1791
1813,1515,1738
1821,1535,1781
1842,1615,1861
1835,1571,1776
1853,1573,1771
1847,1584,1827
1799,1591,1840
1809,1591,1786
1846,1581,1805
1841,1598,1836
1802,1570,1799
1809,1535,1776
1821,1529,1782
1852,1615,1873
1849,1630,1892
1777,1520,1743
1791,1530,1717
1817,1601,1824
1810,1600,1857
1834,1559,1761
1861,1583,1872
1835,1626,1893
1792,1606,1907
1786,1520,1751
1815,1531,1767
1821,1581,1822
1842,1634,1883
1821,1570,1823
1827,1557,1846
1825,1602,1811
1792,1553,1842
1799,1521,1804
1810,1530,1731
1874,1627,1872
1840,1642,1968
1805,1555,1803
1845,1535,1805
1835,1581,1903
1808,1585,1903
1807,1571,1806
1837,1535,1817
1847,1579,1895
1830,1587,1903
1776,1525,1750
1811,1564,1806
1834,1614,1936
1807,1602,1856
1840,1569,1825
1872,1584,1843
1840,1611,1934
1808,1607,1876
1825,1596,1844
1828,1535,1839
1855,1597,1872
1838,1636,1920
1814,1599,1862
1809,1535,1797
1863,1663,1893
1886,1654,1923
1813,1595,1872
1797,1558,1837
1798,1613,1891
1798,1654,1904
1858,1618,1872
1870,1616,1869
1815,1632,1885
1808,1661,1918
1808,1596,1872
1826,1593,1851
1862,1665,1926
1872,1680,1979
1859,1643,1968
1821,1591,1860
1823,1642,1904
1813,1674,1920
1825,1628,1877
1856,1661,1899
1816,1669,1904
1790,1644,1927
1847,1648,1889
1839,1617,1806
1827,1664,1910
1807,1686,1953
1814,1645,1888
1823,1627,1838
1873,1696,1933
1859,1742,1980
1818,1658,1906
1818,1621,1874
1808,1675,1921
1807,1712,1952
1835,1707,1902
1840,1647,1853
1839,1683,1917
1849,1735,1981
1839,1674,1902
1808,1645,1842
1823,1712,1907
1803,1711,1926
1842,1695,1899
1856,1671,1857
1830,1709,1930
1842,1745,2000
1838,1686,1923
1884,1696,1888
1838,1710,1897
1809,1719,1961
1798,1664,1875
1849,1687,1850
1868,1733,1917
1837,1744,1943
1818,1700,1906
1856,1702,1862
1872,1745,1921
1841,1754,1952
1811,1712,1895
1839,1702,1856
1850,1745,1941
1835,1744,2001
1840,1728,1907
1830,1695,1845
1862,1741,1922
1868,1765,1985
1846,1728,1931
1843,1706,1840
1851,1761,1932
1857,1777,1950
1871,1732,1863
1847,1697,1858
1862,1746,1950
1815,1763,1964
1843,1745,1926
1825,1700,1833
1856,1753,1904
1855,1767,1952
1857,1723,1906
1837,1710,1886
1846,1767,1924
1839,1776,1969
1845,1732,1936
1875,1715,1879
1869,1770,1958
1817,1777,1984
1825,1725,1847
1871,1737,1867
1856,1763,1974
1856,1803,1990
1863,1756,1895
1847,1725,1852
1858,1775,1936
1824,1775,1985
1851,1759,1935
1887,1755,1974
1845,1776,1920
1827,1801,1963
1811,1747,1912
1840,1729,1877
1866,1766,1921
1828,1778,2001
1791,1735,1872
1859,1746,1879
1935,1821,1993
1894,1837,2032
1798,1739,1871
1819,1730,1837
1847,1804,1891
1839,1812,2003
1834,1763,1941
1842,1753,1852
1838,1766,1920
1840,1797,1965
1855,1753,1862
1866,1776,1920
1831,1834,1965
1843,1824,2057
1819,1753,1904
1852,1749,1897
1872,1795,1968
1831,1821,1963
1793,1761,1886
1846,1757,1919
1860,1806,1995
1841,1830,2005
1840,1769,1927
1815,1754,1883
1872,1820,2017
1872,1850,2007
1798,1747,1934
1815,1726,1912
1840,1803,1975
1823,1798,1990
1856,1782,1965
1847,1773,1902
1863,1831,1984
1872,1870,2047
1855,1804,1947
1828,1730,1922
1840,1776,2003
1820,1808,2021
1813,1782,1936
1853,1808,1925
1887,1825,1985
1871,1840,2017
1820,1744,1941
1871,1765,1977
1880,1815,2010
1836,1798,1997
1810,1776,1974
1856,1806,1910
1898,1808,1959
1887,1803,2018
1787,1755,1911
1914,1743,1866
1939,1846,2041
1865,1851,2109
1808,1788,1978
1819,1749,1881
1856,1806,1957
1885,1847,2007
1822,1773,1948
1893,1743,1907
1894,1807,2021
1889,1857,2083
1823,1798,1969
1856,1792,1915
1837,1831,1899
1907,1821,1973
1897,1727,1983
1937,1789,1984
1867,1790,1939
1881,1808,1973
1863,1793,1951
1885,1785,1908
1890,1797,2023
1895,1792,2042
1865,1762,1936
1856,1738,1904
1895,1826,1989
1973,1903,2058
1867,1797,1969
1866,1709,1830
1945,1811,1965
1887,1830,2096
1873,1763,1942
1818,1728,1891
1866,1779,1946
1926,1831,2017
1921,1790,1945
1879,1826,1895
1831,1761,1885
1840,1765,1923
1882,1763,1946
1885,1765,1943
1921,1843,1982
1924,1851,2016
1862,1787,1873
1829,1721,1835
1853,1758,1918
1849,1822,2023
1860,1793,1904
1906,1784,1887
1873,1798,1954
1823,1773,1940
1844,1723,1887
1963,1795,1936
1895,1795,1922
1886,1793,1975
1794,1706,1867
1861,1751,1803
1883,1803,1942
1910,1781,1978
1911,1754,1919
1890,1790,1911
1927,1839,1920
1855,1793,1984
1808,1695,1859
1906,1732,1820
1883,1783,1930
1837,1798,1959
1794,1731,1857
1859,1731,1860
1883,1771,1962
1894,1799,1915
1934,1806,1869
1963,1737,1890
1840,1741,1921
1819,1776,1931
1856,1759,1872
1889,1728,1840
1899,1778,1895
1872,1795,1911
1827,1755,1855
1855,1730,1826
1888,1798,1903
1874,1808,1966
1835,1735,1839
1890,1726,1840
1869,1749,1874
1841,1762,1887
1819,1712,1834
1827,1730,1864
1953,1793,1920
1842,1795,1872
1840,1771,1811
1838,1710,1795
1796,1728,1885
1767,1757,1909
1861,1725,1820
1837,1741,1844
1871,1767,1863
1834,1776,1886
1859,1760,1835
1861,1697,1793
1813,1733,1787
1851,1850,1891
1879,1774,1887
1871,1726,1840
1893,1776,1866
1827,1757,1843
1869,1737,1853
1931,1741,1820
1927,1760,1818
1841,1795,1844
1919,1776,1887
1863,1756,1841
1807,1744,1816
1811,1759,1875
1776,1696,1796
1909,1737,1767
1887,1757,1865
1842,1798,1936
1847,1745,1845
1851,1719,1808
1863,1754,1876
1857,1799,1863
1907,1706,1725
1772,1662,1746
1869,1728,1905
1823,1776,1937
1846,1724,1825
1771,1680,1747
1864,1709,1835
1837,1743,1873
1839,1705,1831
1862,1697,1777
1888,1763,1869
1895,1792,1915
1791,1723,1776
1815,1681,1738
1886,1751,1879
1814,1734,1891
1823,1712,1798
1893,1741,1775
1872,1740,1858
1767,1744,1875
1782,1697,1767
1840,1728,1808
1889,1795,1904
1839,1776,1902
1855,1760,1821
1870,1728,1779
1806,1753,1840
1787,1774,1872
1840,1745,1804
1850,1744,1795
1936,1793,1867
1807,1791,1915
1850,1729,1821
1810,1744,1794
1969,1785,1860
1831,1831,1872
1803,1777,1818
1900,1745,1820
1836,1765,1900
1806,1783,1897
1834,1735,1826
1875,1706,1814
1871,1726,1854
1840,1675,1898
1847,1633,1895
1854,1613,1814
1893,1619,1837
1892,1648,1968
1857,1580,1883
1852,1488,1805
1869,1514,1888
1842,1535,1918
1831,1488,1825
1828,1440,1842
1808,1458,1888
1843,1518,1947
1887,1479,1894
1882,1434,1867
1890,1475,1919
1878,1516,1957
1840,1456,1856
1882,1431,1866
1856,1404,1872
1873,1479,1920
1840,1427,1843
1834,1399,1830
1851,1414,1916
1857,1448,1933
1885,1442,1943
1872,1411,1870
1871,1434,1862
1856,1474,1936
1855,1425,1911
1867,1412,1854
1891,1474,1904
1850,1424,1883
1817,1401,1847
1855,1415,1857
1849,1441,1919
1834,1453,1949
1837,1403,1867
1890,1399,1872
1877,1459,1904
1869,1476,1933
1863,1447,1931
1840,1402,1808
1863,1442,1858
1845,1485,1946
1808,1392,1845
1835,1365,1794
1885,1452,1911
1845,1493,1974
1827,1431,1885
1855,1396,1813
1856,1457,1861
1859,1478,1925
1840,1449,1887
1829,1407,1840
1865,1472,1921
1856,1482,1942
1838,1442,1871
1839,1413,1802
1875,1495,1905
1854,1513,1951
1833,1459,1879
1840,1424,1810
1872,1477,1872
1841,1503,1934
1808,1453,1856
1835,1441,1824
1873,1488,1873
1913,1535,1949
1873,1479,1868
1805,1440,1823
1855,1553,1905
1831,1530,1905
1824,1462,1823
1869,1446,1777
1895,1523,1933
1849,1535,1965
1809,1484,1862
1841,1499,1800
1916,1568,1911
1838,1529,1930
1811,1515,1862
1859,1514,1830
1847,1563,1845
1884,1570,1936
1850,1505,1882
1834,1488,1808
1881,1553,1853
1824,1535,1867
1835,1519,1833
1890,1533,1853
1891,1574,1935
1847,1616,1930
1806,1533,1779
1850,1502,1798
1904,1585,1915
1851,1607,1929
1823,1535,1862
1851,1534,1840
1861,1598,1887
1831,1623,1923
1803,1553,1840
1866,1571,1777
1887,1633,1879
1851,1647,1950
1851,1603,1902
1856,1535,1826
1853,1604,1877
1824,1637,1879
1819,1597,1786
1841,1576,1767
1863,1635,1878
1841,1646,1925
1858,1661,1895
1901,1648,1870
1890,1658,1875
1822,1643,1893
1789,1589,1853
1847,1568,1787
1875,1625,1832
1811,1676,1907
1821,1647,1872
1840,1601,1797
1872,1683,1889
1879,1715,1951
1840,1635,1854
1818,1627,1802
1837,1674,1831
1855,1682,1903
1843,1664,1864
1850,1638,1819
1863,1679,1857
1846,1712,1915
1845,1670,1857
1886,1674,1810
1878,1710,1867
1819,1725,1881
1842,1699,1847
1856,1671,1799
1808,1666,1838
1840,1733,1930
1842,1697,1862
1856,1689,1795
1840,1723,1834
1833,1745,1914
1846,1723,1872
1877,1704,1801
1895,1763,1881
1839,1806,1927
1809,1751,1845
1871,1714,1808
1893,1689,1872
1869,1835,1942
1850,1710,1815
1834,1673,1744
1831,1757,1856
1815,1741,1906
1853,1792,1877
1843,1712,1775
1849,1822,1849
1847,1805,1934
1825,1743,1842
1883,1715,1829
1860,1819,1869
1821,1806,1887
1822,1771,1845
1866,1744,1781
1885,1829,1851
1845,1795,1936
1830,1791,1872
1860,1794,1806
1883,1783,1829
1826,1791,1879
1819,1776,1859
1854,1797,1819
1889,1830,1872
1844,1814,1903
1829,1770,1843
1840,1761,1779
1872,1776,1837
1872,1764,1887
1838,1743,1887
1823,1747,1831
1839,1793,1853
1886,1844,1913
1854,1776,1813
1810,1747,1801
1831,1782,1873
1850,1808,1933
1833,1780,1839
1835,1695,1777
1865,1749,1825
1839,1799,1918
1817,1770,1856
1846,1778,1801
1875,1797,1870
1856,1802,1924
1851,1783,1844
1913,1783,1812
1856,1803,1853
1828,1846,1892
1794,1809,1782
1836,1689,1795
1870,1767,1885
1868,1838,1920
1877,1827,1807
1861,1780,1776
1846,1829,1879
1852,1819,1953
1851,1777,1829
1891,1759,1828
1881,1861,1903
1840,1802,1886
1845,1783,1818
1872,1801,1782
1857,1840,1853
1828,1798,1879
1828,1821,1841
1861,1829,1818
1879,1835,1890
1857,1872,1887
1846,1871,1782
1865,1826,1808
1860,1866,1879
1873,1894,1919
1861,1836,1836
1871,1819,1804
1871,1853,1840
1856,1892,1906
1807,1823,1777
1840,1813,1738
1877,1883,1883
1885,1856,1955
1862,1843,1845
1870,1821,1787
1871,1776,1826
1872,1919,1877
1879,1845,1840
1834,1786,1792
1809,1879,1817
1845,1883,1877
1850,1920,1843
1843,1835,1779
1873,1905,1840
1874,1911,1922
1835,1844,1869
1872,1872,1821
1886,1867,1878
1809,1888,1869
1823,1856,1775
1861,1843,1781
1872,1888,1856
1873,1925,1904
1851,1847,1825
1840,1831,1792
1856,1919,1846
1890,1898,1866
1838,1863,1825
1863,1866,1831
1883,1901,1887
1795,1954,1849
1791,1806,1751
1862,1925,1775
1891,1915,1884
1861,1984,1919
1872,1934,1853
1872,1874,1771
1869,1934,1842
1873,1963,1906
1859,1835,1845
1841,1927,1785
1838,1901,1844
1854,1883,1879
1872,1968,1855
1844,1841,1799
1808,1871,1808
1824,1936,1872
1892,1946,1840
1886,1898,1814
1823,1904,1854
1834,1893,1916
1862,1958,1840
1840,1898,1781
1813,1902,1808
1854,1934,1908
1853,1917,1842
1872,1891,1800
1889,1939,1871
1837,1936,1887
1840,1921,1851
1867,1904,1819
1901,1939,1874
1847,1961,1872
1809,1909,1820
1845,1946,1787
1855,1886,1834
1840,1911,1890
1867,1889,1847
1867,1937,1789
1883,1953,1850
1875,1966,1910
1842,1922,1830
1845,1873,1808
1872,1929,1875
1875,1892,1934
1842,1966,1854
1847,1866,1790
1846,1851,1802
1849,1915,1878
1856,1908,1847
1888,1906,1806
1863,1974,1831
1855,1970,1920
1843,1916,1859
1861,1886,1789
1886,1947,1847
1849,1934,1885
1873,1931,1858
1875,1894,1785
1848,1914,1834
1826,1958,1885
1809,1901,1793
1877,1915,1789
1856,1917,1867
1825,1936,1914
1818,1909,1829
1873,1890,1769
1882,1935,1820
1835,1936,1878
1824,1910,1849
1863,1914,1792
1941,1981,1892
1862,1961,1903
1810,1906,1824
1823,1873,1762
1865,1927,1837
1879,1984,1895
1860,1936,1867
1872,1904,1811
1868,1931,1851
1843,1957,1906
1853,1932,1856
1873,1924,1803
1873,1953,1844
1839,1963,1870
1844,1942,1835
1876,1919,1792
1909,1955,1883
1866,1961,1889
1839,1933,1808
1854,1917,1786
1869,1956,1866
1831,1947,1841
1871,1933,1833
1881,1904,1782
1883,1947,1808
1845,1962,1854
1855,1931,1847
1878,1925,1807
1892,1963,1897
1834,1968,1904
1854,1930,1852
1877,1903,1808
1895,1946,1854
1873,1956,1876
1873,1939,1868
1863,1909,1807
1843,1907,1819
1837,1951,1882
1867,1927,1827
1935,1937,1827
1872,1915,1856
1829,1955,1904
1839,1925,1837
1887,1925,1817
1887,1949,1858
1881,1974,1931
1887,1921,1861
1890,1901,1751
1887,1931,1827
1843,1954,1879
1828,1918,1823
1857,1890,1776
1904,1936,1861
1846,1948,1920
1834,1930,1825
1891,1904,1806
1902,1956,1859
1889,1984,1926
1872,1930,1857
1891,1904,1787
1879,1926,1807
1866,1958,1893
1853,1936,1835
1872,1910,1808
1885,1934,1874
1897,1981,1949
1854,1930,1857
1857,1895,1767
1872,1935,1829
1863,1961,1900
1844,1903,1839
1899,1904,1831
1906,1953,1870
1865,1959,1893
1847,1920,1826
1865,1891,1789
1866,1907,1803
1865,1947,1896
1845,1904,1845
1857,1889,1801
1878,1921,1840
1872,1956,1905
1873,1911,1851
1895,1886,1812
1874,1918,1850
1841,1934,1861
1847,1894,1808
1889,1895,1817
1902,1922,1877
1877,1951,1904
1856,1904,1827
1873,1879,1813
1853,1908,1852
1854,1938,1895
1854,1906,1847
1885,1881,1808
1879,1887,1830
1851,1911,1866
1853,1898,1854
1882,1898,1840
1917,1938,1894
1894,1950,1911
1856,1895,1841
1845,1855,1783
1865,1894,1834
1865,1930,1906
1854,1878,1808
1880,1881,1767
1875,1906,1881
1832,1909,1920
1837,1895,1853
1873,1875,1808
1886,1888,1819
1904,1936,1905
1854,1905,1853
1871,1877,1791
1866,1879,1830
1867,1920,1903
1873,1888,1877
1869,1852,1783
1861,1872,1797
1881,1927,1918
1854,1888,1870
1885,1872,1811
1887,1903,1872
1872,1935,1901
1844,1872,1837
1854,1840,1788
1877,1903,1854
1875,1923,1903
1883,1889,1841
1917,1867,1827
1863,1886,1846
1849,1918,1887
1856,1859,1789
1871,1837,1760
1850,1868,1777
1855,1905,1906
1863,1876,1845
1872,1840,1792
1873,1880,1872
1863,1915,1846
1826,1855,1856
1847,1849,1791
1869,1880,1904
1863,1922,1891
1853,1865,1810
1896,1845,1813
1903,1903,1881
1846,1904,1930
1838,1849,1821
1856,1831,1731
1898,1885,1904
1872,1905,1904
1843,1858,1857
1856,1827,1786
1910,1882,1830
1907,1915,1890
1871,1874,1872
1853,1848,1840
1856,1873,1838
1831,1888,1917
1856,1852,1831
1894,1842,1824
1865,1853,1803
1840,1882,1855
1830,1855,1863
1895,1857,1824
1872,1872,1843
1885,1894,1933
1855,1855,1828
1858,1842,1790
1872,1872,1852
1857,1892,1897
1840,1845,1815
1857,1820,1744
1872,1866,1854
1845,1904,1904
1846,1856,1834
1875,1834,1771
1857,1872,1841
1849,1900,1889
1851,1863,1899
1886,1850,1859
1913,1902,1833
1857,1909,1855
1813,1825,1751
1851,1824,1760
1877,1867,1872
1855,1898,1873
1840,1863,1797
1859,1817,1773
1871,1866,1870
1856,1899,1882
1835,1855,1810
1850,1840,1765
1863,1863,1803
1875,1906,1906
1877,1884,1808
1907,1850,1753
1903,1878,1838
1825,1887,1918
1791,1830,1834
1830,1822,1792
1861,1874,1841
1900,1930,1934
1877,1874,1845
1846,1834,1738
1839,1849,1796
1856,1905,1889
1875,1875,1858
1904,1866,1821
1874,1876,1854
1863,1895,1906
1867,1872,1850
1858,1842,1777
1867,1867,1826
1868,1904,1911
1846,1875,1859
1858,1843,1807
1858,1856,1825
1866,1902,1892
1876,1872,1850
1893,1833,1791
1867,1868,1844
1870,1925,1964
1885,1877,1885
1869,1809,1802
1886,1865,1840
1823,1875,1809
1838,1872,1810
1837,1815,1758
1854,1854,1856
1856,1886,1901
1872,1869,1856
1856,1820,1786
1902,1845,1813
1872,1901,1899
1902,1905,1920
1851,1810,1795
1818,1823,1771
1814,1872,1905
1835,1850,1843
1876,1834,1787
1904,1877,1840
1890,1891,1957
1853,1846,1837
1841,1821,1749
1872,1872,1883
1876,1902,1902
1840,1825,1877
1885,1814,1854
1879,1867,1839
1886,1904,1962
1890,1866,1889
1871,1807,1791
1843,1856,1854
1839,1882,1913
1847,1871,1799
1885,1845,1803
1871,1853,1898
1850,1865,1879
1887,1856,1825
1919,1847,1834
1862,1866,1867
1872,1894,1922
1866,1843,1831
1831,1821,1766
1843,1857,1838
1854,1881,1840
1856,1856,1857
1847,1793,1741
1885,1875,1840
1870,1883,1943
1860,1850,1864
1874,1814,1799
1885,1861,1738
1870,1883,1890
1843,1856,1857
1872,1855,1803
1874,1872,1821
1859,1889,1893
1831,1846,1725
1867,1856,1817
1889,1869,1808
1893,1889,1904
1843,1841,1826
1886,1821,1755
1846,1846,1808
1840,1891,1902
1851,1871,1887
1902,1838,1824
1888,1867,1809
1910,1951,1949
1868,1872,1860
1829,1799,1705
1839,1853,1819
1853,1904,1895
1837,1847,1818
1881,1827,1786
1904,1866,1845
1869,1920,1901
1851,1886,1836
1880,1840,1765
1903,1890,1851
1871,1917,1907
1830,1855,1840
1862,1835,1787
1879,1866,1808
1857,1899,1865
1854,1858,1846
1846,1808,1766
1858,1843,1811
1873,1909,1910
1872,1885,1861
1872,1859,1789
1899,1876,1835
1878,1909,1927
1841,1857,1846
1862,1808,1775
1849,1837,1812
1852,1884,1917
1840,1860,1838
1857,1824,1766
1889,1843,1855
1891,1897,1922
1834,1872,1835
1842,1831,1733
1872,1881,1867
1941,1897,1936
1808,1840,1836
1808,1810,1760
1845,1840,1803
1838,1883,1910
1827,1858,1867
1890,1811,1763
