1841,1837,1818
1868,1878,1831
1852,1876,1855
1829,1836,1806
1856,1822,1811
1859,1878,1885
1862,1909,1889
1851,1870,1886
1857,1805,1766
1837,1823,1808
1844,1892,1858
1861,1879,1877
1877,1853,1845
1867,1855,1776
1875,1872,1873
1849,1889,1858
1837,1840,1819
1845,1857,1808
1843,1899,1928
1840,1852,1847
1883,1840,1815
1895,1878,1872
1849,1883,1862
1819,1863,1851
1838,1826,1801
1855,1833,1807
1829,1863,1907
1822,1856,1813
1875,1840,1776
1901,1868,1866
1853,1903,1908
1808,1840,1858
1830,1808,1786
1892,1840,1777
1884,1871,1883
1819,1845,1811
1788,1785,1744
1844,1838,1765
1846,1888,1902
1807,1828,1829
1837,1802,1791
1845,1833,1837
1808,1857,1856
1840,1841,1853
1825,1789,1776
1834,1821,1833
1819,1877,1891
1815,1847,1830
1821,1776,1690
1802,1787,1744
1773,1835,1853
1750,1808,1837
1792,1790,1746
1840,1813,1776
1841,1845,1871
1743,1791,1814
1743,1742,1727
1759,1764,1687
1774,1812,1775
1779,1793,1809
1821,1780,1783
1775,1776,1776
1749,1808,1808
1744,1774,1767
1767,1744,1709
1775,1799,1687
1756,1808,1803
1732,1772,1733
1757,1741,1733
1776,1767,1794
1764,1807,1815
1733,1778,1787
1729,1744,1674
1774,1757,1722
1776,1813,1796
1775,1813,1805
1756,1755,1706
1756,1761,1749
1743,1805,1829
1745,1798,1779
1727,1742,1673
1748,1763,1732
1767,1822,1844
1748,1795,1808
1744,1751,1691
1738,1762,1713
1744,1792,1830
1735,1799,1774
1774,1792,1754
1834,1827,1825
1761,1797,1831
1721,1776,1748
1754,1775,1714
1733,1776,1707
1744,1818,1793
1744,1790,1833
1767,1774,1724
1769,1805,1668
1746,1829,1828
1753,1809,1807
1745,1755,1712
1766,1776,1715
1759,1840,1827
1758,1841,1823
1759,1775,1731
1807,1814,1779
1795,1840,1888
1734,1785,1745
1776,1767,1808
1803,1809,1834
1769,1845,1859
1747,1804,1791
1766,1767,1690
1789,1824,1777
1746,1840,1871
1729,1814,1840
1772,1802,1715
1807,1810,1846
1762,1851,1891
1776,1853,1856
1812,1819,1747
1783,1809,1719
1773,1851,1830
1766,1840,1771
1802,1813,1823
1767,1834,1829
1776,1891,1841
1808,1850,1805
1822,1830,1763
1808,1837,1785
1808,1879,1883
1780,1849,1847
1798,1819,1798
1847,1875,1851
1798,1877,1920
1760,1821,1807
1795,1808,1765
1840,1866,1831
1824,1899,1886
1803,1863,1842
1807,1823,1771
1817,1853,1799
1808,1901,1884
1831,1884,1898
1853,1856,1791
1845,1873,1863
1814,1908,1895
1798,1883,1872
1827,1835,1741
1853,1863,1794
1835,1905,1915
1839,1905,1910
1827,1840,1797
1830,1866,1828
1818,1889,1892
1829,1888,1857
1865,1877,1829
1878,1875,1845
1824,1889,1918
1798,1863,1869
1803,1839,1809
1840,1886,1803
1840,1913,1847
1811,1885,1859
1831,1849,1809
1863,1862,1807
1875,1909,1921
1829,1890,1920
1834,1862,1837
1853,1878,1831
1819,1891,1872
1810,1871,1877
1840,1834,1808
1861,1859,1840
1825,1884,1858
1799,1848,1840
1840,1852,1824
1857,1879,1829
1872,1916,1922
1831,1874,1883
1845,1841,1845
1882,1882,1873
1872,1931,1910
1826,1899,1873
1831,1869,1776
1840,1855,1822
1856,1905,1930
1808,1869,1861
1830,1838,1779
1863,1882,1843
1879,1898,1911
1835,1862,1868
1840,1879,1827
1859,1890,1850
1840,1917,1919
1916,1911,1872
1885,1868,1839
1883,1863,1845
1843,1904,1888
1866,1905,1897
1842,1847,1802
1829,1874,1840
1782,1907,1904
1825,1884,1898
1823,1850,1862
1872,1874,1857
1871,1939,1904
1822,1883,1871
1887,1871,1821
1829,1883,1865
1812,1919,1919
1871,1886,1886
1900,1855,1821
1863,1891,1833
1829,1925,1916
1821,1887,1881
1857,1872,1810
1872,1883,1822
1868,1910,1951
1861,1897,1919
1920,1899,1867
1910,1890,1826
1797,1922,1872
1859,1877,1886
1867,1847,1835
1920,1867,1818
1855,1924,1930
1875,1936,1923
1850,1870,1826
1815,1875,1871
1825,1910,1904
1886,1906,1888
1862,1853,1822
1857,1871,1870
1850,1916,1915
1889,1919,1895
1881,1872,1838
1829,1872,1826
1846,1898,1872
1878,1879,1872
1874,1840,1839
1919,1904,1897
1841,1911,1919
1828,1905,1879
1855,1868,1835
1901,1883,1834
1904,1923,1937
1845,1881,1889
1939,1863,1851
1911,1874,1859
1849,1919,1914
1865,1893,1851
1904,1840,1822
1905,1879,1885
1893,1933,1958
1820,1873,1877
1917,1866,1847
1897,1878,1872
1817,1915,1924
1824,1889,1876
1902,1849,1785
1891,1877,1850
1898,1932,1965
1876,1904,1922
1866,1839,1803
1855,1862,1865
1847,1905,1915
1790,1885,1870
1886,1867,1834
1947,1904,1895
1847,1909,1904
1834,1875,1872
1885,1862,1851
1904,1889,1875
1869,1894,1895
1825,1872,1866
1844,1849,1823
1840,1867,1840
1860,1911,1905
1852,1895,1899
1871,1846,1838
1845,1871,1837
1844,1919,1908
1927,1878,1904
1809,1837,1823
1877,1873,1863
1807,1885,1886
1834,1871,1851
1893,1855,1838
1884,1872,1870
1801,1901,1904
1811,1868,1844
1831,1849,1815
1905,1896,1890
1857,1895,1904
1834,1855,1840
1863,1829,1803
1885,1855,1855
1847,1901,1923
1845,1885,1907
1879,1857,1842
1873,1873,1843
1825,1889,1867
1840,1840,1863
1807,1831,1826
1863,1861,1843
1863,1901,1918
1879,1872,1872
1885,1825,1797
1905,1863,1859
1836,1905,1923
1858,1856,1856
1842,1822,1803
1921,1858,1860
1905,1881,1921
1858,1881,1867
1808,1821,1792
1834,1840,1865
1952,1914,1964
1840,1873,1904
1802,1817,1799
1837,1842,1822
1981,1932,1939
1907,1856,1869
1840,1810,1776
1863,1853,1849
1872,1892,1916
1859,1879,1872
1862,1838,1795
1903,1862,1865
1871,1897,1914
1838,1865,1843
1918,1841,1794
1868,1853,1854
1872,1891,1917
1869,1904,1888
1879,1847,1814
1898,1850,1837
1863,1893,1901
1843,1872,1872
1878,1837,1775
1913,1858,1834
1898,1904,1910
1919,1886,1871
1933,1868,1838
1839,1858,1823
1824,1882,1863
1843,1872,1865
1920,1833,1771
1869,1871,1810
1859,1904,1878
1857,1875,1863
1900,1847,1826
1967,1850,1818
1821,1867,1873
1831,1874,1891
1845,1849,1810
1919,1911,1872
1898,1924,1936
1873,1872,1904
1843,1808,1763
1872,1839,1785
1877,1903,1883
1863,1883,1862
1885,1840,1771
1861,1843,1795
1872,1921,1955
1822,1852,1872
1861,1827,1783
1856,1853,1805
1873,1875,1905
1862,1860,1879
1863,1840,1835
1871,1853,1821
1872,1914,1916
1852,1888,1872
1851,1809,1769
1867,1817,1754
1886,1902,1917
1862,1907,1922
1851,1855,1830
1854,1840,1823
1870,1862,1885
1839,1843,1827
1872,1809,1769
1847,1839,1805
1867,1921,1900
1846,1842,1843
1851,1834,1834
1865,1862,1820
1929,1962,1953
1878,1874,1870
1840,1802,1763
1830,1812,1792
1850,1870,1886
1843,1862,1852
1856,1830,1776
1889,1867,1841
1863,1872,1840
1846,1846,1817
1860,1846,1808
1881,1855,1825
1857,1865,1888
1858,1874,1873
1882,1860,1816
1899,1862,1812
1840,1876,1872
1839,1872,1869
1889,1841,1812
1893,1872,1845
1845,1895,1867
1855,1858,1827
1847,1811,1779
1862,1853,1813
1879,1885,1905
1862,1887,1917
1851,1834,1793
1867,1851,1803
1872,1883,1886
1854,1867,1879
1879,1843,1839
1936,1901,1887
1867,1909,2009
1827,1872,2346
1838,1824,1974
1840,1829,1766
1859,1866,1769
1852,1858,1818
1872,1819,1856
1887,1847,1834
1858,1881,1783
1817,1849,1808
1825,1814,1829
1853,1839,1829
1875,1899,1826
1878,1888,1828
1846,1843,1825
1819,1839,1831
1841,1865,1831
1850,1867,1831
1858,1815,1828
1840,1837,1829
1871,1902,1829
1862,1869,1831
1862,1843,1829
1862,1856,1824
1845,1898,1834
1862,1875,1828
1857,1830,1823
1869,1856,1831
1891,1920,1829
1850,1882,1823
1831,1823,1822
1863,1848,1829
1851,1862,1826
1840,1883,1824
1861,1840,1831
1872,1871,1902
1869,1904,1961
1872,1898,1933
1845,1838,1840
1863,1863,1881
1869,1888,1909
1867,1883,1915
1867,1841,1841
1886,1856,1874
1861,1902,1936
1830,1883,1908
1866,1839,1839
1872,1838,1821
1840,1866,1887
1811,1849,1887
1838,1835,1845
1863,1871,1895
1830,1881,1907
1840,1847,1876
1866,1843,1859
1872,1854,1872
1827,1896,1919
1833,1871,1904
1840,1842,1821
1837,1845,1822
1835,1890,1886
1854,1863,1899
1867,1835,1843
1857,1846,1869
1853,1892,1939
1829,1869,1877
1807,1807,1781
1824,1839,1839
1819,1875,1919
1827,1858,1886
1845,1827,1823
1875,1857,1845
1851,1893,1902
1805,1846,1862
1813,1830,1798
1854,1847,1827
1850,1882,1903
1846,1850,1866
1850,1812,1785
1871,1857,1851
1839,1889,1935
1854,1879,1905
1865,1830,1822
1840,1831,1829
1818,1861,1899
1826,1840,1882
1877,1846,1846
1865,1845,1856
1821,1866,1903
1820,1858,1859
1850,1809,1795
1838,1793,1805
1845,1919,1872
1863,1821,1906
1853,1792,1825
1812,1890,1806
1820,1895,1872
1851,1910,1855
1872,1809,1792
1840,1890,1835
1823,1824,1904
1792,1834,1843
1818,1771,1749
1822,1872,1795
1839,1786,1872
1843,1866,1884
1833,1807,1811
1818,1843,1802
1811,1872,1859
1838,1856,1877
1830,1817,1777
1830,1842,1811
1842,1877,1904
1807,1882,1850
1822,1808,1781
1866,1894,1823
1821,1891,1845
1783,1790,1820
1807,1767,1785
1840,1871,1808
1825,1873,1855
1808,1808,1824
1847,1834,1791
1840,1797,1808
1814,1867,1881
1824,1866,1883
1825,1824,1793
1831,1840,1788
1808,1890,1851
1811,1855,1858
1835,1824,1802
1866,1873,1850
1839,1867,1877
1835,1859,1841
1872,1840,1765
1865,1843,1818
1781,1851,1829
1798,1840,1833
1840,1819,1807
1891,1872,1829
1859,1893,1857
1813,1807,1840
1822,1824,1802
1830,1895,1824
1826,1839,1877
1840,1830,1855
1843,1873,1791
1840,1836,1829
1842,1902,1883
1841,1850,1857
1870,1855,1831
1859,1833,1843
1847,1943,1904
1823,1907,1855
1840,1835,1786
1885,1861,1847
1874,1900,1911
1840,1879,1856
1854,1821,1807
1839,1854,1807
1840,1824,1870
1855,1873,1871
1840,1795,1798
1839,1858,1808
1839,1902,1902
1826,1872,1849
1856,1840,1791
1872,1872,1840
1865,1920,1885
1826,1865,1842
1835,1842,1808
1845,1857,1840
1874,1908,1930
1867,1883,1878
1861,1811,1805
1841,1904,1827
1842,1914,1925
1845,1795,1872
1862,1851,1806
1879,1862,1838
1853,1890,1872
1838,1837,1835
1846,1854,1792
1857,1879,1842
1879,1941,1920
1830,1946,1854
1826,1840,1796
1878,1877,1863
1879,1915,1904
1871,1871,1867
1849,1847,1819
1853,1894,1859
1826,1904,1875
1840,1867,1837
1883,1866,1819
1905,1891,1872
1854,1973,1899
1835,1872,1841
1835,1834,1791
1846,1872,1821
1861,1879,1888
1844,1904,1834
1886,1888,1795
1911,1950,1864
1847,1920,1919
1841,1973,1864
1834,1846,1778
1846,1858,1815
1851,1911,1900
1857,1918,1890
1891,1905,1818
1904,1874,1835
1843,1873,1857
1805,1815,1849
1855,1874,1825
1879,1845,1854
1881,1882,1895
1855,1851,1847
1839,1837,1773
1865,1847,1830
1849,1826,1904
1834,1902,1871
1851,1846,1792
1870,1911,1821
1883,1905,1907
1885,1853,1904
1872,1856,1825
1885,1904,1839
1861,1899,1909
1820,1870,1855
1827,1824,1762
1867,1878,1818
1841,1920,1900
1854,1873,1885
1856,1907,1793
1862,1930,1829
1843,1879,1875
1823,1903,1847
1856,1865,1810
1888,1841,1856
1854,1902,1910
1879,1995,1917
1866,1808,1803
1840,1835,1792
1829,1871,1887
1847,1888,1885
1868,1823,1815
1883,1853,1821
1840,1883,1856
1835,1813,1851
1852,1833,1807
1851,1854,1840
1831,1886,1887
1855,1891,1879
1863,1844,1820
1846,1855,1827
1853,1892,1881
1855,1870,1860
1866,1827,1786
1839,1856,1808
1821,1891,1887
1808,1875,1830
1856,1834,1779
1870,1856,1819
1845,1888,1902
1830,1879,1870
1856,1858,1830
1875,1882,1859
1839,1899,1901
1850,1883,1864
1857,1836,1794
1860,1851,1808
1843,1893,1893
1846,1863,1855
1844,1827,1779
1904,1882,1853
1844,1888,1872
1836,1879,1846
1854,1853,1811
1873,1883,1840
1874,1918,1904
1847,1867,1840
1840,1838,1778
1859,1878,1828
1855,1909,1878
1830,1870,1829
1856,1831,1786
1872,1857,1847
1883,1925,1929
1856,1893,1867
1845,1822,1776
1841,1840,1813
1840,1902,1904
1821,1881,1853
1853,1835,1793
1904,1863,1862
1865,1889,1891
1838,1902,1845
1858,1854,1783
1869,1866,1814
1866,1894,1891
1838,1853,1848
1855,1839,1808
1873,1872,1839
1885,1889,1888
1868,1826,1827
1843,1831,1779
1846,1840,1823
1840,1874,1890
1824,1840,1831
1839,1846,1778
1863,1870,1808
1871,1906,1923
1871,1875,1905
1852,1826,1785
1871,1858,1808
1911,1921,1936
1861,1872,1873
1825,1811,1782
1861,1839,1822
1858,1904,1911
1867,1882,1882
1835,1809,1778
1861,1849,1818
1842,1895,1895
1843,1889,1889
1865,1843,1800
1887,1844,1837
1881,1883,1917
1842,1853,1850
1856,1813,1753
1881,1849,1833
1885,1906,1944
1881,1883,1899
1855,1817,1776
1870,1868,1839
1838,1890,1898
1858,1872,1872
1866,1835,1777
1869,1855,1809
1847,1856,1889
1851,1851,1886
1858,1840,1826
1868,1849,1822
1851,1866,1877
1824,1843,1842
1854,1829,1799
1894,1871,1859
1891,1894,1916
1869,1851,1861
1852,1831,1797
1843,1852,1825
1843,1888,1894
1847,1871,1854
1859,1824,1789
1854,1842,1819
1863,1865,1897
1842,1861,1872
1867,1845,1782
1859,1853,1827
1859,1888,1908
1853,1847,1843
1876,1826,1785
1919,1872,1857
1851,1886,1903
1833,1857,1854
1856,1834,1786
1863,1856,1824
1869,1887,1898
1862,1874,1858
1897,1862,1823
1867,1845,1834
1831,1875,1851
1834,1853,1837
1891,1857,1809
1907,1859,1803
1873,1887,1884
1825,1855,1872
1843,1819,1776
1866,1858,1835
1867,1911,1919
1857,1861,1849
1868,1834,1776
1869,1839,1808
1858,1883,1897
1827,1858,1834
1845,1808,1762
1863,1837,1831
1849,1887,1933
1835,1855,1873
1872,1839,1798
1879,1867,1839
1904,1939,1938
1844,1855,1871
1799,1797,1754
1856,1856,1822
1870,1893,1917
1872,1879,1887
1851,1817,1786
1831,1815,1767
1840,1856,1866
1836,1829,1843
1840,1833,1790
1862,1862,1840
1871,1882,1882
1866,1870,1840
1852,1825,1753
1872,1847,1845
1876,1904,1878
1834,1850,1882
1856,1817,1827
1873,1867,1821
1840,1856,1897
1810,1833,1858
1840,1823,1801
1888,1856,1815
1886,1903,1874
1879,1884,1866
1866,1830,1815
1859,1857,1825
1857,1904,1959
1885,1905,1886
1864,1829,1776
1831,1823,1733
1855,1873,1882
1846,1857,1851
1840,1815,1759
1852,1846,1772
1876,1886,1886
1855,1863,1866
1853,1833,1813
1844,1854,1808
1879,1907,1886
1931,1917,1943
1843,1813,1794
1814,1813,1808
1801,1855,1843
1840,1865,1851
1874,1840,1842
1877,1879,1859
1818,1884,1878
1840,1860,1892
1877,1808,1810
1873,1838,1846
1857,1878,1892
1866,1870,1860
1857,1835,1875
1810,1815,1813
1839,1872,1878
1830,1846,1856
1844,1819,1815
1872,1849,1857
1849,1878,1903
1828,1851,1851
1855,1829,1773
1860,1841,1826
1851,1877,1951
1846,1856,1886
1830,1817,1765
1875,1846,1893
1883,1877,1955
1836,1834,1891
1844,1807,1827
1863,1871,1810
1850,1875,1907
1838,1843,1856
1834,1835,1786
1873,1898,1817
1861,1903,1923
1850,1863,1814
1838,1835,1824
1869,1827,1838
1839,1871,1872
1852,1870,1856
1867,1825,1840
1867,1853,1835
1839,1870,1919
1850,1872,1813
1890,1843,1756
1889,1866,1840
1837,1870,1872
1898,1893,1869
1869,1810,1799
1812,1811,1807
1808,1849,1839
1843,1878,1813
1899,1855,1827
1902,1845,1855
1818,1843,1911
1818,1849,1839
1872,1843,1803
1899,1839,1830
1863,1872,1891
1807,1840,1825
1830,1811,1728
1891,1856,1788
1877,1917,1963
1863,1872,1904
1850,1835,1771
1883,1856,1818
1874,1904,1915
1809,1834,1787
1843,1808,1840
1871,1827,1825
1840,1855,1840
1808,1826,1859
1834,1823,1752
1877,1872,1847
1873,1874,1892
1840,1817,1808
1823,1825,1779
1879,1877,1814
1829,1875,1902
1840,1860,1840
1846,1791,1767
1845,1818,1745
1821,1875,1873
1827,1855,1840
1877,1847,1795
1855,1834,1872
1849,1856,1931
1850,1856,1903
1878,1835,1734
1857,1853,1862
1782,1853,1904
1850,1840,1807
1815,1771,1744
1839,1835,1779
1850,1887,1847
1840,1872,1871
1850,1825,1802
1873,1862,1799
1858,1893,1921
1826,1856,1854
1854,1831,1792
1860,1846,1795
1854,1889,1894
1821,1814,1835
1855,1797,1793
1857,1846,1808
1875,1893,1872
1867,1875,1843
1829,1796,1755
1808,1846,1829
1838,1893,1874
1872,1845,1847
1878,1821,1830
1850,1838,1813
1835,1877,1884
1846,1849,1841
1843,1812,1770
1850,1818,1779
1840,1852,1867
1834,1855,1875
1856,1834,1806
1902,1865,1793
1856,1855,1878
1810,1828,1839
1856,1827,1823
1876,1834,1793
1865,1855,1963
1815,1833,1872
1806,1797,1735
1865,1865,1839
1881,1893,1837
1870,1894,1927
1836,1819,1866
1840,1821,1811
1818,1844,1839
1857,1870,1857
1898,1838,1829
1904,1866,1825
1829,1869,1871
1782,1826,1853
1828,1802,1746
1917,1849,1801
1833,1883,1875
1777,1841,1847
1837,1803,1808
1902,1863,1863
1866,1895,1905
1813,1861,1846
1878,1863,1840
1878,1870,1794
1813,1846,1807
1809,1847,1855
1810,1817,1827
1865,1871,1854
1859,1885,1867
1829,1817,1815
1823,1799,1771
1887,1863,1806
1872,1901,1919
1839,1867,1870
1811,1825,1769
1883,1854,1847
1841,1863,1885
1807,1850,1837
1843,1793,1751
1871,1838,1798
1855,1888,1893
1824,1814,1817
1867,1825,1754
1946,1870,1871
1825,1874,1904
1797,1841,1802
1803,1825,1795
1870,1872,1882
1875,1906,1899
1860,1850,1825
1857,1797,1750
1845,1818,1776
1809,1872,1893
1829,1855,1855
1809,1811,1773
1851,1858,1829
1845,1879,1859
1837,1840,1819
1865,1813,1778
1883,1858,1860
1847,1878,1915
1834,1850,1823
1870,1831,1749
1846,1827,1815
1811,1871,1873
1812,1834,1828
1847,1812,1761
1875,1856,1833
1890,1889,1910
1855,1840,1854
1871,1845,1819
1870,1878,1871
1827,1872,1840
1855,1814,1808
1823,1808,1782
1859,1865,1846
1899,1920,1945
1894,1886,1859
1855,1804,1712
1858,1837,1795
1840,1891,1917
1920,1890,1871
1861,1822,1722
1849,1814,1795
1861,1875,1950
1842,1866,1903
1833,1830,1778
1866,1851,1802
1873,1877,1902
1873,1855,1842
1812,1825,1767
1909,1869,1865
1770,1888,1933
1775,1870,1877
1829,1859,1814
1863,1867,1815
1887,1866,1846
1858,1811,1829
1855,1791,1776
1903,1858,1847
1851,1927,1935
1936,1879,1890
1865,1856,1842
1840,1856,1808
1803,1872,1825
1793,1843,1824
1841,1810,1779
1876,1841,1827
1872,1903,1940
1872,1874,1856
1926,1840,1764
1910,1863,1865
1826,1898,1914
1800,1835,1833
1843,1835,1809
1875,1878,1854
1876,1919,1901
1840,1840,1817
1891,1840,1813
1882,1857,1842
1839,1870,1891
1860,1875,1863
1872,1846,1811
1920,1873,1873
1847,1877,1915
1823,1884,1879
1889,1859,1799
1808,1835,1799
1781,1869,1856
1845,1874,1856
1873,1839,1809
1872,1870,1869
1965,1903,1928
1793,1858,1862
1826,1824,1791
1873,1856,1847
1850,1887,1834
1863,1863,1834
1874,1840,1827
1903,1859,1862
1843,1889,1907
1843,1865,1867
1871,1858,1778
1883,1853,1837
1878,1893,1921
1850,1855,1858
1826,1812,1777
1847,1855,1822
1844,1908,1948
1819,1873,1871
1885,1856,1792
1888,1861,1780
1862,1888,1903
1815,1894,1898
1920,1840,1798
1909,1849,1844
1899,1887,1919
1881,1887,1888
1883,1840,1808
1860,1850,1807
1901,1885,1858
1868,1885,1818
1825,1810,1749
1846,1841,1791
1927,1865,1877
1840,1856,1861
1837,1845,1808
1870,1870,1808
1887,1891,1910
1872,1857,1836
1843,1822,1779
1840,1856,1840
1863,1890,1881
1840,1866,1850
1862,1856,1810
1919,1881,1869
1854,1904,1856
1849,1846,1828
1849,1808,1802
1871,1877,1855
1955,1926,1888
1872,1872,1828
1909,1822,1776
1873,1857,1808
1823,1872,1874
1840,1876,1902
1866,1834,1803
1856,1855,1849
1856,1922,1930
1893,1856,1851
1850,1825,1761
1889,1851,1824
1914,1872,1888
1859,1895,1870
1883,1827,1776
1857,1825,1857
1951,1917,1936
1915,1862,1883
1858,1818,1802
1786,1875,1834
1799,1895,1826
1805,1865,1824
1851,1776,1765
1904,1835,1833
1875,1920,1950
1826,1867,1887
1873,1838,1834
1931,1883,1901
1863,1893,1914
1835,1862,1819
1860,1830,1805
1857,1837,1834
1877,1889,1914
1858,1857,1853
1891,1841,1781
1872,1851,1809
1839,1862,1840
1854,1862,1866
1887,1850,1783
1911,1914,1881
1869,1917,1918
1873,1847,1872
1828,1776,1744
1872,1837,1833
1897,1931,1957
1856,1866,1839
1877,1828,1799
1886,1838,1803
1841,1879,1886
1825,1887,1866
1864,1824,1791
1906,1831,1850
1906,1891,1931
1840,1845,1853
1879,1873,1799
1900,1891,1840
1851,1870,1879
1840,1841,1827
1865,1831,1840
1870,1874,1845
1841,1856,1817
1840,1813,1794
1847,1808,1785
1904,1867,1857
1885,1910,1889
1875,1890,1872
1915,1872,1879
1854,1837,1806
1816,1851,1833
1847,1840,1854
1872,1814,1812
1882,1860,1815
1852,1875,1842
1823,1838,1875
1875,1834,1837
1849,1849,1818
1872,1907,1911
1903,1885,1872
1878,1845,1796
1837,1843,1849
1801,1862,1883
1803,1840,1822
1838,1807,1769
1950,1895,1862
1918,1883,1951
1839,1847,1888
1824,1826,1761
1865,1872,1807
1862,1870,1886
1839,1819,1855
1867,1845,1829
1908,1887,1842
1840,1831,1895
1824,1841,1840
1885,1845,1771
1882,1831,1845
1862,1872,1943
1877,1842,1862
1915,1833,1763
1897,1856,1847
1841,1854,1887
1809,1849,1839
1859,1799,1776
1895,1851,1866
1869,1917,1923
1853,1850,1826
1882,1818,1791
1851,1819,1814
1856,1869,1887
1877,1842,1860
1850,1821,1792
1863,1863,1856
1849,1875,1911
1872,1868,1911
1899,1851,1825
1863,1841,1843
1827,1848,1888
1844,1881,1829
1841,1813,1808
1885,1835,1865
1872,1882,1904
1814,1869,1808
1830,1813,1776
1873,1837,1870
1883,1889,1935
1845,1854,1840
1835,1814,1712
1863,1829,1840
1872,1865,1952
1847,1849,1879
1838,1813,1741
1872,1847,1847
1863,1886,1933
1823,1842,1845
1840,1823,1787
1874,1856,1815
1914,1911,1914
1891,1884,1897
1852,1805,1775
1849,1826,1815
1829,1845,1879
1837,1831,1868
1889,1814,1802
1919,1889,1844
1851,1904,1926
1831,1862,1891
1840,1794,1804
1833,1808,1807
1856,1866,1831
1857,1848,1858
1888,1827,1845
1899,1877,1886
1873,1897,1931
1850,1840,1857
1865,1820,1798
1871,1841,1776
1891,1888,1883
1825,1856,1871
1845,1840,1847
1872,1826,1843
1825,1840,1839
1840,1840,1823
1889,1851,1805
1885,1868,1871
1831,1853,1895
1814,1838,1835
1819,1792,1786
1887,1868,1855
1911,1925,1923
1871,1876,1882
1861,1847,1805
1875,1866,1826
1843,1809,1911
1826,1803,1843
1846,1817,1823
1875,1857,1829
1866,1881,1916
1873,1886,1929
1863,1877,1811
1870,1857,1825
1841,1893,1872
1846,1834,1850
1895,1781,1837
1882,1829,1835
1854,1861,1933
1814,1870,1849
1885,1868,1815
1901,1829,1857
1837,1885,1870
1828,1882,1840
1899,1814,1862
1882,1772,1847
1878,1902,1897
1826,1841,1823
1840,1807,1821
1870,1838,1871
1855,1895,1906
1870,1872,1870
1887,1820,1805
1898,1869,1859
1865,1925,1939
1840,1866,1846
1907,1911,1807
1910,1861,1794
1819,1839,1862
1825,1866,1877
1850,1841,1813
1904,1879,1839
1878,1887,1900
1813,1846,1845
1821,1821,1776
1897,1894,1818
1918,1919,1938
1856,1862,1891
1869,1854,1834
1879,1879,1801
1841,1870,1806
1840,1855,1872
1856,1818,1853
1862,1855,1850
1887,1903,1926
1853,1877,1872
1856,1846,1792
1873,1888,1868
1901,1872,1904
1846,1867,1830
1815,1831,1765
1894,1929,1879
1876,1848,1920
1838,1851,1854
1867,1863,1805
1901,1898,1849
1858,1839,1917
1843,1809,1863
1887,1824,1801
1885,1804,1851
1850,1871,1891
1822,1904,1840
1889,1872,1839
1889,1850,1799
1860,1866,1888
1819,1849,1854
1856,1855,1792
1872,1870,1810
1867,1910,1898
1872,1873,1894
1877,1881,1826
1862,1891,1840
1845,1911,1895
1866,1854,1843
1915,1815,1808
1867,1814,1838
1829,1873,1856
1841,1878,1821
1904,1879,1843
1913,1873,1895
1863,1872,1926
1825,1840,1814
1855,1835,1743
1890,1869,1840
1888,1907,1932
1855,1798,1863
1901,1869,1809
1882,1827,1824
1875,1936,1911
1859,1830,1843
1860,1852,1775
1861,1757,1865
1860,1915,1875
1866,1872,1828
1872,1721,1815
1878,1858,1850
1863,1845,1883
1874,1855,1834
1892,1841,1795
1895,1874,1890
1884,1920,1949
1842,1847,1818
1844,1805,1744
1885,1854,1826
1898,1899,1882
1872,1890,1818
1840,1778,1774
1875,1856,1872
1886,1965,1969
1857,1833,1879
1865,1851,1758
1872,1898,1831
1865,1923,1918
1873,1953,1863
1887,1727,1808
1910,1899,1856
1868,1877,1872
1841,1888,1793
1840,1753,1743
1872,1833,1819
1885,1865,1914
1851,1886,1865
1872,1827,1787
1879,1859,1795
1874,1903,1892
1872,1855,1884
1881,1826,1811
1882,1888,1835
1878,1911,1887
1844,1850,1835
1859,1792,1760
1897,1851,1841
1854,1875,1863
1840,1840,1797
1888,1854,1808
1856,1837,1834
1844,1935,1881
1874,1865,1863
1883,1837,1798
1887,1873,1841
1857,1883,1853
1871,1887,1863
1872,1838,1821
1856,1899,1801
1872,1885,1920
1872,1874,1879
1882,1789,1783
1887,1895,1792
1863,1883,1861
1846,1849,1843
1859,1825,1808
1895,1849,1840
1888,1901,1922
1845,1981,1863
1861,1887,1787
1917,1843,1834
1880,1966,1902
1837,1869,1840
1856,1810,1776
1891,1846,1851
1903,1898,1934
1877,1882,1862
1915,1864,1823
1879,1862,1840
1815,1846,1852
1810,1851,1811
1873,1821,1774
1891,1883,1840
1872,1903,1886
1845,1831,1840
1858,1823,1805
1875,1877,1868
1875,1917,1914
1853,1855,1837
1915,1870,1811
1872,1863,1850
1839,1869,1857
1849,1851,1840
1856,1834,1794
1863,1859,1818
1862,1901,1872
1872,1875,1840
1901,1841,1801
1840,1847,1757
1840,1875,1847
1848,1875,1854
1872,1841,1798
1859,1853,1791
1870,1894,1873
1871,1879,1867
1877,1831,1817
1881,1872,1811
1870,1916,1872
1841,1873,1824
1867,1857,1776
1896,1865,1833
1863,1891,1926
1838,1849,1871
1852,1859,1749
1872,1863,1761
1845,1869,1895
1831,1861,1887
1872,1849,1834
1899,1885,1840
1881,1890,1891
1859,1872,1834
1872,1853,1795
1902,1901,1850
1857,1876,1838
1849,1840,1819
1875,1842,1837
1891,1904,1882
1871,1920,1889
1830,1859,1803
1845,1824,1751
1910,1859,1777
1875,1901,1878
1829,1840,1855
1834,1822,1786
1863,1871,1831
1846,1872,1867
1858,1867,1815
1898,1859,1786
1851,1837,1841
1855,1906,1920
1872,1875,1851
1860,1823,1755
1872,1841,1825
1853,1871,1889
1856,1863,1843
1870,1856,1779
1893,1872,1814
1892,1920,1881
1857,1872,1854
1847,1829,1776
1840,1840,1802
1845,1893,1876
1853,1872,1837
1844,1821,1744
1871,1862,1823
1872,1895,1910
1896,1911,1911
1856,1827,1792
1846,1863,1818
1835,1874,1872
1844,1853,1825
1874,1841,1783
1870,1903,1818
1870,1908,1901
1844,1856,1829
1854,1834,1787
1885,1870,1851
1823,1860,1854
1818,1865,1827
1885,1863,1806
1869,1858,1808
1853,1869,1897
1859,1878,1861
1855,1838,1778
1859,1885,1840
1872,1904,1904
1856,1853,1771
1851,1837,1799
