1805,1834,1819
1840,1833,1811
1843,1856,1805
1847,1885,1803
1818,1805,1818
1834,1788,1815
1851,1808,1813
2069,1879,1816
3389,1855,1771
3888,1798,1808
2207,1775,1843
2342,1808,1847
1951,1808,1835
1765,1826,1792
1975,1812,1789
2226,1898,1859
2590,1809,1843
3184,1776,1828
3359,1799,1831
2111,1834,1839
1535,1846,1843
1584,1843,1828
1794,1867,1815
1593,1835,1834
541,1837,1822
0,1850,1811
423,1839,1803
1601,1819,1796
2046,1773,1774
2103,1831,1810
2953,1810,1857
4095,1830,1851
3699,1811,1837
1163,1825,1836
0,1840,1835
17,1853,1831
1294,1877,1818
1985,1863,1779
2066,1829,1811
1898,1822,1859
1790,1839,1850
1767,1858,1830
1821,1840,1811
1765,1817,1822
1802,1837,1826
1795,1875,1819
1843,1815,1817
1860,1797,1825
2439,1783,1834
4095,1834,1823
20,1803,1798
0,1794,1827
0,1926,1840
0,1823,1831
0,1787,1831
0,1820,1840
0,1849,1826
3083,1830,1795
4095,1833,1863
206,1856,1873
0,1863,1856
0,1939,1840
366,1853,1834
1678,1826,1840
2290,1813,1838
2205,1828,1825
2229,1848,1824
1829,1884,1815
1968,1801,1846
1618,1789,1846
1617,1815,1838
2717,1860,1835
2605,1829,1808
916,1827,1834
1501,1838,1823
1371,1817,1844
1886,1904,1850
2006,1808,1838
1435,1778,1840
1904,1819,1839
1968,1854,1834
2021,1833,1779
3210,1823,1830
2260,1885,1872
1625,1847,1865
1453,1853,1854
1177,1827,1840
962,1817,1831
948,1803,1825
2795,1806,1830
4095,1844,1840
3195,1871,1842
2068,1840,1840
1610,1786,1815
2067,1847,1826
1982,1827,1863
1865,1835,1859
1716,1825,1840
1883,1847,1835
1858,1835,1849
1957,1835,1853
2004,1840,1835
1972,1853,1824
1659,1872,1830
1504,1935,1808
1843,1852,1799
1868,1756,1843
1691,1797,1869
1845,1782,1852
3264,1795,1845
3177,1831,1845
1998,1850,1847
1596,1883,1855
1706,1861,1834
1961,1795,1834
1709,1803,1815
2446,1833,1834
2453,1810,1841
2559,1813,1851
4095,1844,1859
4095,1842,1857
4095,1843,1855
4095,1855,1856
4095,1872,1859
4095,1861,1861
4095,1857,1860
4095,1870,1869
4095,1840,1872
4095,1838,1872
4095,1815,1854
3603,1843,1861
1906,1952,1826
1455,1813,1856
1964,1753,1882
2074,1751,1879
1786,1795,1857
1867,1791,1845
1851,1825,1824
1826,1758,1805
1899,1793,1845
1943,1803,1851
1808,1796,1849
1793,1813,1847
1823,1842,1843
1841,1862,1842
1856,1856,1839
1850,1856,1839
1835,1867,1839
1836,1863,1840
1846,1853,1833
1808,1844,1831
1950,1907,1821
1961,1810,1807
1958,1792,1812
1809,1839,1872
1886,1866,1851
1891,1857,1821
1845,1817,1840
1875,1801,1840
1874,1808,1840
2290,1815,1843
4095,1837,1842
4095,1843,1843
4095,1882,1858
4095,1866,1860
4095,1846,1866
4095,1849,1861
4095,1883,1870
4095,1869,1871
4095,1843,1859
4095,1859,1862
4095,1877,1857
4095,1840,1869
4095,1827,1872
4095,1965,1872
631,1815,1833
0,1707,1833
0,1745,1865
0,1751,1851
0,1840,1867
0,1819,1853
0,1840,1834
0,1827,1819
0,1798,1840
0,1817,1854
0,1823,1831
0,1837,1831
0,1872,1836
1201,1863,1845
1981,1839,1835
2000,1837,1839
1936,1838,1840
1914,1846,1841
1965,1853,1839
1953,1904,1821
1871,1894,1826
1824,1835,1825
1823,1744,1842
1838,1801,1866
1840,1851,1853
1840,1855,1830
1828,1813,1831
1840,1818,1841
1831,1834,1840
1835,1832,1838
1830,1840,1838
1832,1849,1849
1837,1858,1834
1827,1887,1835
1831,1868,1829
1839,1863,1822
1834,1857,1840
1946,1861,1819
2177,1812,1823
2371,1818,1871
558,1853,1862
703,1861,1842
1703,1957,1818
1943,1872,1837
0,1776,1846
0,1813,1839
959,1862,1817
1594,1824,1840
1842,1861,1840
1872,1865,1847
1666,1867,1847
1952,1871,1840
1813,1906,1840
2000,1872,1838
2101,1796,1855
1604,1808,1857
1067,1854,1846
2481,1889,1846
2001,1851,1843
1405,1845,1794
1774,1855,1833
1617,1890,1843
1430,1856,1841
1719,1921,1858
1989,1850,1873
1438,1782,1856
1657,1797,1844
1823,1819,1835
2300,1846,1839
3898,1868,1839
3582,1857,1850
2795,1822,1858
96,1840,1858
79,1865,1856
1295,1867,1847
2337,1933,1840
2868,1843,1843
2559,1859,1862
1901,1818,1856
1013,1810,1847
761,1837,1852
511,1856,1810
1264,1857,1844
4061,1856,1856
4095,1885,1863
3687,1936,1866
2065,1754,1877
2322,1744,1874
2042,1794,1863
1523,1840,1857
1613,1808,1840
2490,1808,1840
2487,1838,1847
2096,1854,1852
1727,1875,1840
1761,1837,1838
1637,1840,1849
843,1850,1846
2350,1866,1843
3211,1839,1857
3056,1873,1856
2483,1870,1835
4095,1831,1764
4095,1772,1870
4095,1799,1902
4095,1839,1902
4095,1827,1892
4095,1860,1874
4095,1825,1873
4095,1823,1879
4095,1873,1869
4095,1817,1860
4095,1806,1872
3037,1849,1859
1877,1841,1856
0,1771,1844
0,1771,1859
0,1781,1850
2326,1793,1840
4095,1825,1845
4095,1824,1803
3157,1806,1830
2046,1813,1887
1680,1807,1877
1755,1849,1863
1855,1808,1829
1877,1808,1841
1862,1820,1841
1851,1843,1846
1846,1862,1842
1845,1846,1838
1841,1863,1833
1845,1881,1846
1843,1809,1828
1846,1814,1835
1840,1875,1820
1839,1792,1836
1351,1808,1822
59,1812,1773
1307,1715,1827
1599,1801,1872
1790,1823,1874
1962,1827,1847
2069,1850,1837
1923,1843,1839
1911,1854,1840
2043,1878,1843
1958,1873,1838
1795,1827,1827
1863,1883,1840
1813,1835,1837
1855,1854,1836
1770,1930,1839
1862,1789,1837
1655,1764,1831
0,1801,1815
0,1851,1817
787,1917,1813
3775,1835,1786
3520,1806,1854
2127,1856,1890
1703,1843,1871
1799,1821,1850
1975,1828,1849
2197,1851,1846
2017,1856,1853
1855,1872,1847
1974,1889,1819
2694,1855,1824
4095,1809,1871
4095,1783,1871
3275,1810,1866
2101,1920,1863
1486,1821,1865
1620,1752,1856
1887,1802,1847
1930,1847,1851
1987,1808,1844
1927,1803,1787
1891,1808,1840
1863,1851,1879
1830,1866,1868
1811,1881,1843
1890,1844,1839
1870,1856,1840
1850,1841,1844
1835,1913,1834
1877,1778,1840
1766,1779,1855
1535,1819,1849
1564,1841,1842
1635,1856,1837
1886,1831,1845
2166,1865,1851
2091,1843,1841
1904,1875,1843
1840,1831,1840
2064,1927,1782
2082,1776,1807
1605,1736,1868
528,1782,1885
4095,1808,1872
4095,1819,1865
4095,1831,1872
4095,1856,1869
4095,1851,1871
4095,1831,1869
4095,1819,1878
4095,1840,1893
4095,1831,1892
4095,1821,1869
4095,1791,1867
4095,1808,1881
4095,1840,1882
4095,1793,1889
4095,1813,1903
4095,1776,1887
4095,1775,1871
4095,1791,1854
4095,1820,1835
4095,1811,1890
3666,1770,1887
2190,1783,1894
1621,1835,1879
1675,1803,1863
1821,1826,1861
1872,1838,1844
1854,1776,1837
1818,1781,1837
1818,1870,1846
1863,1837,1839
1831,1886,1830
1783,1758,1838
1745,1742,1833
1997,1779,1839
1872,1809,1839
1639,1869,1835
1746,1834,1840
1794,1834,1837
2060,1838,1829
2032,1837,1837
1849,1846,1842
1617,1841,1793
1930,1922,1818
4095,1808,1846
4095,1765,1867
4095,1808,1886
4095,1830,1850
4095,1874,1857
4095,1823,1856
0,1820,1857
0,1807,1861
0,1854,1858
0,1840,1846
0,1792,1830
0,1783,1833
674,1833,1855
1919,1853,1854
1887,1840,1840
1750,1851,1835
1760,1873,1835
1813,1921,1808
1832,1803,1802
1826,1781,1830
1823,1767,1858
1823,1787,1839
1837,1868,1841
1850,1854,1842
1835,1817,1836
1834,1837,1838
1834,1832,1829
1839,1867,1826
1840,1911,1825
1840,1855,1835
1831,1839,1845
1844,1838,1865
1837,1810,1846
1825,1834,1836
1839,1859,1840
1879,1840,1847
1860,1858,1839
1815,1820,1835
1815,1830,1827
1788,1843,1833
1743,1891,1846
1391,1926,1788
1625,1828,1811
2711,1801,1872
498,1808,1872
103,1847,1834
0,1861,1840
18,1814,1849
219,1843,1855
831,1840,1850
1305,1845,1850
1045,1874,1847
529,1934,1840
1727,1811,1825
3665,1769,1836
4095,1810,1847
4095,1860,1856
4095,1867,1871
4095,1893,1862
4095,1840,1859
4095,1839,1854
4095,1824,1840
4095,1735,1869
4095,1789,1885
2636,1837,1896
0,1860,1888
0,1857,1870
0,1863,1851
0,1877,1841
0,1870,1851
0,1761,1847
0,1758,1842
0,1837,1847
0,1891,1853
0,1800,1849
0,1789,1840
0,1820,1844
0,1823,1846
0,1840,1838
0,1951,1825
0,1813,1840
0,1790,1842
0,1799,1774
0,1744,1831
226,1776,1829
911,1843,1871
1901,1863,1868
1854,1865,1845
1825,1877,1840
1803,1875,1840
1879,1872,1843
1925,1951,1852
1878,1834,1840
1771,1808,1841
1733,1825,1840
1805,1835,1840
1825,1927,1843
1778,1836,1840
1815,1866,1825
1725,1790,1840
1485,1803,1853
1141,1979,1808
1312,1758,1805
1569,1698,1849
1723,1791,1872
1817,1857,1872
1744,1855,1854
1927,1826,1831
2078,1866,1849
2015,1879,1857
3043,1872,1850
4095,1860,1847
4095,1866,1861
4095,1867,1872
2559,1888,1869
1602,1863,1863
1641,1894,1857
1894,1840,1839
1907,1807,1855
1699,1791,1867
1745,1808,1843
1851,1809,1840
1943,1837,1840
2108,1826,1850
1943,1801,1825
1917,1872,1794
2438,1829,1857
1776,1846,1871
656,1846,1862
1112,1818,1858
1858,1843,1842
2603,1829,1842
2035,1840,1855
2392,1829,1839
1974,1840,1847
1873,1883,1861
1951,1884,1846
2138,1856,1865
2359,1819,1853
2197,1791,1840
2115,1920,1836
1975,1795,1823
11,1756,1853
0,1759,1859
2,1808,1808
2275,1831,1855
2559,1853,1875
2074,1862,1867
1799,1840,1856
1777,1855,1860
1835,1853,1855
1827,1843,1844
464,1847,1845
0,1885,1851
467,1857,1834
1702,1841,1861
2143,1862,1846
2369,1845,1838
2301,1837,1847
2039,1862,1853
1885,1837,1849
2342,1824,1867
1753,1821,1859
1683,1835,1841
3739,1871,1851
3561,1911,1857
2224,1915,1850
1677,1744,1852
1712,1751,1863
1328,1843,1866
0,1827,1841
398,1808,1825
1831,1882,1808
2800,1834,1843
3222,1811,1867
2261,1875,1852
1852,1778,1861
2867,1808,1855
2359,1791,1851
1858,1808,1853
1753,1845,1857
1808,1834,1845
1847,1840,1843
1859,1815,1845
1852,1776,1840
1842,1778,1838
1840,1834,1853
1839,1848,1854
1838,1867,1845
1841,1877,1850
1840,1856,1839
1835,1853,1840
1840,1856,1840
1837,1809,1840
1841,1845,1827
1840,1836,1817
1840,1853,1829
1838,1786,1857
1831,1791,1856
1835,1834,1859
1835,1855,1847
1834,1914,1840
1835,1797,1786
1837,1789,1855
1842,1835,1874
1995,1853,1867
2256,1842,1853
2528,1840,1855
2811,1852,1867
3088,1873,1870
3327,1856,1857
3569,1889,1846
3909,1910,1852
4095,1805,1871
4095,1783,1869
4095,1783,1868
4095,1817,1866
4095,1859,1857
4095,1791,1841
4095,1815,1889
4095,1854,1894
4095,1834,1885
4095,1782,1875
4095,1773,1887
4095,1803,1898
4095,1824,1883
4095,1839,1873
4095,1814,1871
4095,1824,1879
4095,1834,1879
4095,1818,1873
4095,1798,1819
4095,1767,1877
4095,1802,1909
4095,1885,1878
4095,1797,1871
4095,1734,1855
4095,1735,1867
4095,1772,1881
4095,1778,1855
4095,1826,1872
4095,1826,1889
4095,1870,1872
4095,1821,1869
4095,1760,1861
4095,1776,1867
4095,1790,1869
4095,1795,1867
4095,1812,1872
4095,1826,1862
4095,1852,1841
4095,1790,1854
4095,1761,1858
4095,1806,1865
4095,1803,1866
4095,1830,1872
4095,1844,1808
4095,1777,1859
4095,1817,1882
4095,1803,1863
4095,1755,1859
4095,1765,1863
4095,1799,1866
4095,1856,1863
4095,1793,1862
4095,1767,1859
4095,1781,1858
4095,1802,1854
4095,1809,1860
4095,1813,1868
4095,1822,1857
4095,1810,1839
4095,1785,1839
4095,1808,1872
4095,1802,1866
4095,1854,1858
4095,1867,1857
4095,1840,1873
4095,1808,1842
4095,1744,1859
4095,1760,1840
4095,1762,1839
4095,1792,1881
4095,1824,1873
4095,1807,1869
4095,1834,1863
4095,1817,1856
4095,1789,1852
4095,1805,1861
4095,1818,1865
4095,1840,1854
4095,1891,1854
4095,1805,1846
4095,1775,1829
4095,1791,1853
4095,1808,1861
4095,1840,1856
4095,1826,1849
4095,1853,1831
4095,1846,1870
4095,1838,1866
4095,1836,1862
4095,1830,1855
4095,1834,1839
4095,1840,1841
4095,1913,1835
4095,1828,1842
4095,1856,1806
4095,1808,1863
4095,1841,1883
4095,1706,1830
4095,1717,1846
4095,1776,1847
4095,1834,1853
4095,1840,1861
4095,1808,1851
4095,1845,1855
4095,1882,1857
4095,1869,1852
4095,1856,1844
4095,1826,1841
4095,1814,1803
4095,1811,1840
4095,1814,1871
4095,1842,1860
4095,1874,1846
4095,1872,1837
4095,1808,1840
4095,1849,1837
4095,1787,1842
4095,1795,1840
4095,1793,1825
4095,1856,1855
4095,1925,1859
4095,1862,1829
4095,1797,1841
4095,1810,1854
4095,1840,1852
4095,1852,1839
4095,1869,1835
4095,1881,1843
4095,1842,1829
4095,1850,1835
4095,1840,1842
4095,1839,1802
4095,1830,1857
4095,1830,1872
4095,1809,1859
4095,1823,1850
4095,1839,1850
4095,1821,1833
4095,1839,1836
4095,1887,1845
4095,1835,1826
4095,1878,1845
4095,1830,1855
4095,1829,1847
4095,1856,1839
4095,1870,1839
4095,1806,1851
4095,1824,1846
4095,1839,1842
4095,1874,1840
4095,1846,1848
4095,1854,1830
4095,1839,1778
4095,1808,1853
4095,1840,1871
4095,1806,1853
4095,1806,1846
4095,1809,1840
4095,1829,1844
4095,1856,1844
4095,1852,1825
4095,1868,1854
4095,1856,1850
4095,1845,1847
4095,1851,1845
4095,1853,1843
4095,1891,1840
4095,1895,1844
4095,1837,1845
4095,1809,1839
4095,1872,1825
4095,1862,1840
4095,1851,1855
4095,1854,1849
3995,1822,1813
3945,1871,1799
3870,1855,1837
3743,1782,1843
3687,1823,1842
3697,1807,1857
3749,1840,1847
3639,1847,1836
3536,1822,1811
3536,1861,1841
3549,1890,1853
3472,1840,1842
3408,1854,1840
3410,1859,1837
3413,1867,1835
3341,1840,1831
3291,1838,1825
3311,1867,1830
3251,1879,1829
3173,1823,1823
3120,1854,1827
3159,1866,1777
3152,1813,1837
3089,1815,1857
3051,1872,1841
3061,1850,1837
3055,1855,1841
2996,1915,1821
2960,1837,1826
2967,1837,1839
2939,1846,1837
2880,1807,1791
2863,1821,1823
2830,1847,1854
2826,1870,1856
2805,1868,1837
2797,1883,1831
2815,1894,1835
2749,1858,1843
2670,1895,1811
2649,1871,1821
2665,1872,1835
2685,1840,1802
2640,1808,1811
2559,1832,1853
2602,1872,1853
2619,1889,1845
2558,1873,1827
2537,1872,1830
2545,1903,1830
2551,1890,1840
2483,1862,1821
2445,1826,1816
2459,1840,1815
2495,1921,1813
2421,1834,1829
2355,1822,1842
2362,1854,1838
2371,1871,1834
2355,1870,1818
2345,1910,1829
2330,1879,1803
2330,1866,1783
2257,1840,1858
2233,1850,1866
2275,1929,1847
2261,1873,1837
2208,1856,1831
2192,1898,1833
2219,1924,1831
2215,1833,1845
2182,1835,1840
2128,1834,1839
2147,1850,1839
2149,1872,1840
2125,1917,1831
2089,1868,1837
2095,1891,1841
2102,1872,1836
2079,1838,1807
2029,1838,1840
2015,1859,1849
2030,1883,1841
2013,1882,1840
2006,1875,1837
2000,1882,1840
1983,1904,1808
1970,1915,1814
1939,1888,1842
1921,1814,1856
1920,1904,1853
1898,1829,1837
1869,1814,1837
1903,1861,1840
1918,1897,1821
1862,1863,1840
1817,1849,1839
1841,1872,1840
1842,1825,1814
1812,1838,1838
1791,1858,1850
1813,1904,1840
1827,1889,1838
1813,1887,1839
1775,1840,1846
1782,1843,1840
1775,1869,1838
1750,1880,1838
1725,1904,1814
1751,1872,1810
1730,1847,1867
1712,1820,1862
1699,1872,1855
1715,1925,1850
1718,1834,1843
1667,1802,1831
1632,1824,1835
1671,1863,1840
1703,1871,1840
1677,1941,1813
1645,1878,1831
1664,1809,1832
1658,1851,1856
1648,1870,1853
1636,1879,1858
1681,1929,1855
1658,1890,1856
1600,1895,1831
1671,1943,1861
1743,1979,1890
540,1872,1851
0,1850,1824
0,1837,1851
0,1948,1901
4095,1853,1901
4095,1826,1835
4095,1878,1885
0,2095,1979
0,1939,1872
0,1871,1825
3872,1863,1889
2637,1859,1969
4095,1779,1857
4077,1798,1907
1521,1927,1982
0,2062,1935
0,1920,1776
486,1778,1915
2823,1971,2057
2531,1770,1873
2289,1728,1756
1949,1989,1872
1795,2002,1930
1829,2055,1936
1373,1902,1898
1840,1904,1915
1991,1955,1846
1529,1933,1785
1113,2393,1853
1515,2320,1873
2176,2141,1890
1999,2000,1895
1825,1616,1681
1739,1726,1750
1706,1910,1756
1872,1936,1837
1905,1986,1984
1900,2065,1943
1951,1606,1655
1903,1561,1674
2187,1863,1823
1935,2653,2093
1973,2663,1994
1584,1769,1713
1535,1897,1853
1810,1694,1855
1968,1707,1907
2156,1958,1801
4095,1776,1725
4095,2135,1884
4095,2032,1858
4095,1761,1711
4095,1834,1879
4095,1871,1886
4095,1653,1857
4095,1831,1941
4095,1627,1846
4095,1815,1915
4095,1721,1825
2589,2014,1990
1670,1936,1835
1616,1707,1659
1810,1743,1807
1879,1983,2005
1870,2019,1977
1837,1638,1611
1840,1707,1728
1840,2001,1827
1834,1846,1870
1843,1344,1937
1846,1847,2018
1819,1866,1726
1839,1715,1745
1840,1759,1758
1831,1557,1731
1840,1517,1810
1838,1809,1856
1837,1839,1805
1831,1782,1741
1790,1756,1765
1815,1795,1762
1834,1807,1869
1827,1793,1920
1879,1863,1840
1616,1976,1895
943,1813,1863
850,1682,1819
1168,1686,1777
1877,1553,1741
2047,1631,1792
2236,1653,1902
2377,1821,2058
2686,1999,2036
2283,1740,1729
2128,1587,1658
2644,1707,1749
2831,1776,1770
2785,1731,1922
2698,1639,1903
2978,1883,1872
3403,2041,1893
3143,1769,1874
3323,1599,1770
3517,1877,1811
3534,1790,1726
3389,1680,1913
3063,1587,1920
3295,1645,1973
4095,1856,1936
3683,1654,1779
4032,1769,1826
4095,1946,1943
4095,1910,1821
3245,1514,1758
3457,1586,1875
4095,1898,1966
4095,1749,1847
4095,1723,1871
4095,1587,1678
4095,1840,1840
4095,1939,1882
4095,1707,1929
4095,1576,2000
4095,1968,2093
4095,1860,1821
4095,1645,1657
4095,1424,1713
4095,1557,1815
4095,1632,1857
4095,1729,1847
4095,1894,1895
4095,2037,1939
4095,1995,2007
4095,1557,1702
4095,1510,1788
4095,1719,1837
4095,1841,1850
4095,1767,1899
4095,1584,1849
4095,1679,1903
4095,1809,1853
4095,1646,1773
4095,1802,1899
4095,1875,1887
4095,1691,1862
4095,1535,1819
4095,1767,1827
4095,1936,1982
4095,1741,1840
4095,1614,1712
4095,1761,1855
4095,1594,1808
4095,1623,1872
4095,1807,1970
4095,1886,1953
4095,1744,1839
4095,1611,1701
4095,1647,1692
4095,1901,1967
4095,1744,1961
4095,1643,1846
4095,1675,1841
4095,1746,1854
4095,1770,1840
4095,1749,1850
4095,1761,1808
4095,1735,1897
4095,1773,1780
4095,1725,1915
4095,1743,1931
4095,1723,1808
4095,1670,1835
4095,1607,1885
4095,1746,1957
4095,1685,1837
4095,1709,1822
4095,1814,1906
4095,1842,1886
4095,1621,1797
4095,1731,1915
4095,1774,1887
4095,1759,1849
4095,1874,1833
4095,1721,1853
4095,1718,1821
4095,1792,1773
4095,1695,1870
4095,1965,1925
4095,1709,1818
4095,1694,1808
4095,1766,1904
4095,1647,1888
4095,1744,1887
4095,1829,1885
4095,1602,1834
4095,1882,1805
4095,1974,1899
4095,1594,1805
4095,1577,1910
4095,1795,1873
4095,2007,1823
4095,1754,1804
3787,1713,1872
4095,1769,1948
4095,1807,1904
4095,1840,1821
3854,1741,1730
4095,1679,1777
4032,1758,1825
3870,1655,1843
3850,1744,1911
4095,1808,2021
3931,1795,1819
3373,1783,1699
3952,1808,1870
4095,1833,1863
3603,1766,1790
3930,1829,1840
3806,1658,1787
3568,1687,1855
3995,1969,1885
4095,2005,1879
3473,1715,1824
3163,1619,1774
3475,1776,1923
4095,1903,1817
3405,1798,1742
3129,1759,1824
3857,1858,1888
3908,1904,1918
3198,1680,1763
3051,1718,1759
3668,1836,1893
3901,1977,1939
3298,1856,1696
2842,1751,1686
3280,1934,1871
3954,1875,1858
3218,1661,1768
2983,1683,1827
2980,1707,1845
3492,1858,1826
4095,2137,1909
3557,1965,1766
2668,1657,1690
2878,1725,1919
3134,1835,1899
2879,1861,1782
3111,1803,1737
3237,1642,1713
3541,2014,1861
3119,1815,1762
2727,1648,1843
2736,1744,1923
3153,1883,1840
3199,1932,1771
2745,1840,1745
2694,1758,1777
2896,1856,1757
3091,1840,1817
3307,1891,1895
2910,1765,1761
2855,1890,1898
2981,1887,1868
2619,1931,1829
2592,1814,1710
2928,1776,1795
3071,1962,1851
3226,1936,1866
2768,1885,1765
2729,1785,1759
2486,1787,1782
2481,1840,1851
2784,1982,1841
2729,1893,1748
2832,1714,1751
2771,1679,1830
2653,1791,1922
2751,1954,1925
2533,1905,1792
2430,1807,1734
2829,1922,1886
2989,2055,1904
2672,1838,1823
2365,1744,1715
2310,1772,1709
2911,2031,1840
2725,2075,1895
2813,2005,1886
2358,1776,1772
2201,1698,1845
2513,1766,1872
2806,1775,1818
2627,1856,1803
2299,1866,1810
2336,1939,1895
2489,1872,1913
2401,1907,1789
2263,1875,1721
2459,1870,1797
2397,1754,1870
2388,1818,1783
2825,2046,1764
2460,1959,1730
2212,1967,1964
2304,1794,1977
2480,1840,1841
2675,1879,1733
2153,1748,1763
1938,1712,1829
2301,1904,1920
2805,2160,1872
2433,1843,1762
1903,1773,1713
2073,1767,1790
2357,1920,1800
2267,1938,1726
2224,1883,1685
2175,1802,1693
2605,1953,1890
2781,2016,1863
2130,1904,1780
2021,2032,1792
2256,1922,1662
2241,1840,1669
2224,1793,1665
1984,1778,1658
1954,1711,1726
2234,1917,1833
2298,1981,1840
2171,1863,1733
2107,1831,1701
2437,1919,1728
2547,1967,1664
1914,1886,1734
1809,1978,1789
2134,1993,1816
2176,1936,1757
2211,1906,1759
2345,2022,1692
2058,1749,1727
1921,1709,1728
1947,1875,1680
1935,1747,1675
2160,1824,1776
2341,1936,1843
2003,1931,1717
1884,1872,1761
2071,1931,1762
2307,1975,1831
2076,1946,1779
1840,1845,1694
1991,1944,1759
2091,1998,1745
2077,1923,1670
2288,1940,1770
1909,1766,1774
1778,1733,1759
2102,1760,1779
2783,2023,1815
1805,1755,1730
1247,1727,1788
1773,1901,1760
2007,2029,1722
2064,2012,1717
2129,1887,1821
1993,1837,1781
2123,1831,1776
1794,1840,1727
1866,1805,1783
2215,2243,1828
2129,2015,1695
1712,1600,1726
2117,1968,1929
1885,1795,1854
1642,1658,1750
1777,1830,1736
1805,1909,1651
1856,1855,1768
2103,1969,1846
2144,1842,1715
1952,1872,1733
1941,2001,1861
1813,1985,1807
1572,1857,1719
1725,1801,1835
2114,2193,1898
2141,2027,1744
1710,1572,1658
1511,1509,1742
2134,1983,1830
1999,1911,1725
1571,1765,1780
1782,2011,1923
1994,2061,1836
1621,1653,1619
1759,1742,1735
2010,1829,1733
2031,2000,1836
2115,2075,1867
1915,1899,1747
1439,1678,1819
1803,2047,1904
2096,2016,1834
1569,1578,1648
1434,1811,1815
1874,1809,1835
2079,1822,1869
1625,1763,1846
1953,1803,1782
2112,2041,1871
1750,1913,1709
1442,1808,1741
1535,1775,1810
1934,1899,1893
1931,1915,1853
1757,1968,1847
2404,2026,1957
1850,1772,1814
1383,1708,1775
1772,1905,1829
1637,1808,1773
1474,1645,1665
1973,1819,1858
2035,1910,1919
1584,1841,1827
1658,1907,1821
1749,1842,1808
1942,1930,1927
1634,1835,1854
1555,1840,1776
1731,2011,1769
1762,1887,1848
1701,1776,1902
1804,1806,1827
2109,1924,1733
1987,1726,1840
1517,1744,1898
1520,1856,1863
1644,1866,1917
1647,1881,1830
1894,1819,1808
1719,1815,1845
1748,1810,1820
2182,2011,1879
1726,1871,1825
1402,1964,1865
1648,1828,1839
1847,1791,1844
2026,2000,1885
1922,1909,1919
1671,1626,1754
1271,1602,1840
1725,1979,1873
2031,1978,1792
1744,1805,1808
1883,1904,1931
1663,1808,1808
1311,1786,1854
2129,1899,1877
1881,1781,1738
1818,1884,1879
1388,1929,1943
1363,1796,1902
1962,2054,1856
1911,1688,1770
1418,1590,1871
637,1684,1945
1561,1947,1976
1975,1994,1837
1771,1847,1770
1584,1681,1741
1694,1792,1887
1611,1887,1882
1712,1859,1936
1955,1811,1807
1575,1869,1852
1802,2074,1975
1798,2005,1935
2311,2142,1857
1680,1646,1687
1129,1429,1747
1633,1819,1955
2185,1922,1969
1830,1762,1867
1165,1732,1723
1345,1787,1863
1746,2000,1885
2128,1913,1874
2288,1904,1929
1662,1851,1837
1381,2065,1879
1947,2390,2030
1904,1935,1915
1699,1797,1814
1747,1624,1869
1824,1991,1899
1374,1530,1788
1531,1761,1808
2533,2215,2170
2518,1879,1744
850,1467,1617
1038,1762,1893
1692,1966,1883
1692,1774,1791
1744,1829,1874
2665,2269,2185
2320,2176,1958
1169,1687,1758
979,1616,1757
1616,1776,1918
2367,2114,2069
1633,1648,1786
2249,1958,1941
1840,1767,1791
944,1457,1637
1258,1686,1709
1773,1807,1849
2269,2046,2031
2544,2287,2096
1698,2014,1795
919,1562,1710
1269,1734,1843
1936,1936,1925
2039,1871,1936
1867,1758,1887
1703,1852,1957
2682,2372,2165
1517,1761,1789
710,1335,1591
1162,1491,1722
2154,2080,2027
2202,2045,1856
1989,1887,1757
1839,1838,1918
1638,1802,1959
1391,1753,1867
1579,1851,1872
1590,1872,1746
2032,1911,1873
2206,2032,1974
1744,1841,1824
1266,1461,1718
1749,1721,1931
1999,1921,1999
1708,1891,1921
1337,1794,1863
1622,1797,1782
1762,1807,1712
2017,1872,1963
2779,2332,2045
2299,2150,1877
944,1526,1646
861,1458,1789
1741,1738,1938
2292,2032,2029
2339,2013,2025
1671,1826,1871
1214,1667,1824
1363,1611,1772
1750,1679,1901
1873,1729,1895
1953,2000,1941
3499,2751,2083
1734,1856,1648
502,1281,1649
933,1454,1823
1789,1863,1894
1957,1922,1853
1737,1840,1851
1907,1920,1887
2087,1917,1870
1691,1734,1845
1494,1762,1875
1692,1895,1946
2146,1847,1987
1840,1783,1861
1535,1638,1711
1478,1693,1843
1601,1703,1918
1790,1831,1904
1838,1894,1820
1917,2019,1831
2028,1883,1790
1657,1705,1855
1650,1783,1906
1839,1967,2032
1939,1872,1958
1977,1984,1871
2063,1993,1923
1515,1610,1856
1412,1519,1791
1452,1613,1808
1647,1754,1895
1774,1791,1889
1828,1847,1907
1899,1913,1936
2523,2137,2000
2525,2121,2003
1846,2079,1901
1179,1690,1759
1319,1664,1816
1790,1870,1954
2335,1981,2002
2401,1925,1918
1614,1585,1710
1319,1643,1839
1456,1792,1919
1924,1914,2091
1872,1779,1898
1691,1699,1843
2150,1964,1977
2862,2179,1975
1577,1854,1760
1032,1643,1819
1535,1822,1857
1931,1829,1872
1787,1823,1879
1798,1860,1929
1869,1915,1956
1926,1990,1958
1885,1891,1822
1808,1729,1886
1791,1717,1963
1808,1923,1968
2855,2379,2192
2211,1850,1958
1120,1424,1717
1195,1535,1735
1647,1728,1835
1860,1825,1914
1982,1883,1950
2416,2010,2033
2292,2037,1905
1488,1817,1820
1451,1776,1903
1765,1840,1943
2035,1981,1955
2231,2056,2064
1851,1899,1942
1741,1808,1810
1840,1758,1840
1855,1789,1919
1909,1920,1961
1909,1946,1935
1869,1839,1925
1975,1876,2064
2194,1855,1985
2077,1840,1935
1938,1817,1852
1687,1927,1922
1780,1922,1927
1747,1787,1857
1711,1778,1862
2497,2187,2071
2448,2032,1862
1505,1861,1916
1575,1852,2011
1851,1846,1899
2035,1847,1801
1882,1824,1866
1814,1673,1967
1817,1727,1950
1809,1808,1920
1738,1868,1922
