762,1791,1814
775,1744,1853
793,1797,1858
767,1818,1841
768,1787,1840
785,1794,1854
784,1854,1845
763,1796,1837
785,1797,1840
821,1815,1853
826,1843,1851
847,1841,1809
859,1904,1813
790,1778,1846
781,1734,1869
807,1754,1854
830,1783,1840
849,1837,1840
822,1863,1857
832,1818,1842
846,1839,1841
848,1872,1850
826,1798,1860
768,1765,1834
643,1809,1840
631,1842,1844
768,1840,1840
843,1838,1824
866,1790,1840
880,1798,1843
871,1811,1850
865,1817,1847
913,1858,1856
953,1847,1836
941,1815,1811
879,1831,1856
896,1794,1854
903,1775,1871
897,1776,1841
930,1813,1808
912,1856,1870
925,1867,1879
925,1891,1881
895,1734,1840
910,1756,1831
925,1785,1838
900,1795,1839
912,1817,1849
961,1840,1851
996,1850,1875
968,1841,1853
944,1827,1847
986,1867,1850
1014,1842,1847
993,1827,1855
982,1815,1852
1037,1861,1829
1040,1826,1825
1042,1819,1869
1017,1775,1840
993,1850,1854
1001,1821,1890
1010,1801,1873
1011,1792,1865
1067,1776,1874
1107,1862,1851
1070,1797,1872
1010,1771,1869
1043,1814,1849
1085,1856,1874
1087,1812,1856
1070,1808,1849
1107,1839,1856
1126,1855,1858
1109,1856,1867
1109,1841,1873
1143,1854,1863
1169,1888,1814
1115,1825,1865
1056,1793,1884
1088,1785,1885
1152,1776,1845
1168,1902,1882
1120,1840,1883
1137,1808,1893
1170,1895,1895
1158,1808,1875
1151,1755,1874
1212,1794,1887
1209,1829,1881
1191,1842,1870
1199,1852,1874
1218,1850,1878
1233,1845,1875
1217,1875,1870
1230,1865,1891
1234,1895,1798
1206,1718,1861
1178,1739,1891
1200,1798,1905
1264,1837,1873
1260,1829,1886
1221,1825,1901
1230,1818,1867
1275,1879,1888
1283,1859,1879
1264,1839,1870
1261,1831,1877
1301,1835,1869
1346,1920,1890
1296,1851,1889
1264,1785,1887
1269,1837,1867
1309,1833,1867
1313,1851,1867
1295,1760,1877
1303,1790,1889
1335,1835,1878
1347,1855,1841
1325,1799,1859
1326,1798,1915
1355,1827,1913
1339,1846,1902
1328,1859,1887
1373,1902,1874
1403,1872,1869
1361,1760,1863
1358,1771,1867
1356,1889,1899
1390,1855,1919
1377,1790,1899
1371,1801,1889
1408,1845,1909
1427,1850,1899
1433,1898,1897
1366,1838,1887
1386,1795,1882
1423,1822,1891
1418,1838,1887
1421,1867,1887
1451,1867,1892
1458,1829,1889
1443,1841,1879
1456,1842,1841
1457,1887,1888
1424,1799,1936
1402,1744,1905
1405,1764,1878
1480,1845,1885
1472,1776,1880
1435,1806,1899
1431,1840,1904
1469,1856,1911
1501,1861,1915
1490,1845,1904
1475,1843,1902
1508,1857,1904
1531,1867,1909
1501,1850,1893
1507,1878,1894
1523,1941,1889
1555,1875,1906
1500,1711,1904
1462,1709,1897
1473,1765,1846
1505,1844,1905
1494,1819,1921
1494,1811,1913
1535,1839,1911
1567,1847,1907
1562,1846,1898
1535,1857,1905
1584,1866,1919
1583,1846,1911
1562,1831,1904
1535,1875,1904
1590,1882,1904
1616,1810,1901
1600,1776,1897
1529,1782,1887
1535,1840,1904
1575,1835,1919
1565,1822,1904
1535,1828,1903
1593,1840,1905
1626,1854,1906
1617,1883,1907
1601,1859,1905
1611,1840,1907
1635,1849,1915
1637,1846,1906
1625,1886,1902
1629,1840,1916
1654,1830,1920
1648,1843,1914
1648,1872,1904
1616,1783,1877
1618,1819,1911
1617,1868,1915
1617,1803,1904
1646,1789,1919
1648,1808,1920
1627,1834,1906
1643,1850,1909
1680,1898,1925
1698,1873,1919
1669,1864,1925
1654,1810,1911
1695,1877,1899
1709,1856,1858
1635,1782,1904
1604,1767,1951
1671,1808,1951
1705,1825,1936
1698,1817,1904
1657,1822,1921
1679,1824,1930
1691,1863,1927
1702,1878,1919
1675,1812,1919
1705,1839,1936
1735,1863,1937
1707,1834,1925
1696,1834,1931
1729,1856,1938
1767,1891,1941
1712,1855,1930
1677,1810,1929
1713,1805,1927
1758,1826,1935
1744,1822,1915
1710,1869,1905
1731,1826,1888
1742,1821,1941
1734,1855,1959
1692,1808,1913
1725,1840,1916
1726,1865,1943
1728,1838,1935
1712,1779,1922
1748,1803,1916
1767,1840,1918
1751,1840,1909
1744,1842,1921
1776,1862,1915
1808,1872,1917
1766,1903,1888
1743,1890,1901
1756,1808,1910
1790,1834,1907
1790,1793,1901
1744,1818,1893
1767,1839,1904
1794,1832,1856
1783,1819,1883
1776,1856,1931
1776,1840,1886
1777,1837,1905
1773,1855,1907
1789,1924,1901
1841,1871,1902
1786,1798,1877
1747,1776,1862
1763,1803,1875
1810,1851,1891
1823,1857,1886
1800,1840,1845
1789,1838,1872
1813,1866,1899
1834,1894,1887
1808,1842,1869
1793,1792,1862
1809,1823,1872
1827,1851,1872
1834,1902,1871
1815,1846,1857
1840,1837,1868
1863,1891,1856
1869,1869,1779
1776,1747,1863
1770,1793,1874
1808,1789,1872
1810,1808,1861
1811,1827,1859
1845,1841,1859
1854,1849,1851
1845,1822,1815
1814,1829,1845
1842,1846,1856
1859,1856,1870
1845,1893,1843
1842,1827,1831
1842,1774,1844
1857,1812,1856
1858,1866,1840
1840,1872,1839
1853,1820,1840
1856,1819,1839
1839,1830,1835
1845,1842,1840
1894,1863,1803
1907,1941,1851
1882,1819,1849
1797,1794,1833
1822,1776,1845
1873,1813,1839
1840,1829,1831
1829,1843,1833
1888,1857,1838
1887,1831,1803
1856,1872,1808
1840,1857,1831
1889,1903,1839
1903,1845,1836
1847,1834,1802
1818,1761,1808
1842,1783,1823
1884,1811,1823
1894,1836,1813
1865,1843,1826
1865,1872,1829
1872,1861,1810
1867,1818,1804
1872,1840,1812
1911,1872,1766
1944,1889,1821
1871,1792,1840
1839,1766,1817
1854,1826,1822
1872,1846,1830
1888,1898,1821
1910,1920,1794
1879,1840,1803
1888,1783,1833
1859,1781,1828
1859,1811,1808
1891,1845,1806
1925,1891,1813
1892,1843,1805
1882,1861,1811
1904,1837,1817
1916,1839,1811
1890,1853,1801
1891,1866,1811
1918,1874,1808
1926,1897,1757
1888,1804,1802
1859,1783,1827
1907,1839,1825
1955,1840,1823
1895,1865,1807
1856,1841,1797
1893,1787,1794
1922,1862,1824
1921,1861,1818
1889,1818,1808
1899,1798,1792
1925,1858,1806
1905,1840,1810
1899,1831,1814
1930,1856,1823
1941,1867,1821
1923,1849,1811
1903,1837,1808
1911,1882,1803
1949,1872,1807
1936,1879,1804
1885,1802,1740
1881,1754,1805
1909,1778,1839
1914,1808,1827
1935,1822,1808
1956,1840,1792
1951,1869,1808
1897,1808,1813
1879,1840,1808
1926,1859,1808
1942,1814,1813
1920,1815,1794
1925,1840,1806
1943,1842,1806
1946,1854,1810
1908,1836,1812
1901,1808,1790
1922,1842,1798
1952,1873,1822
1936,1865,1818
1942,1875,1811
1955,1957,1744
1942,1879,1797
1901,1731,1825
1873,1714,1829
1908,1759,1811
1943,1810,1813
1938,1838,1813
1933,1882,1821
1929,1866,1809
1933,1826,1806
1919,1813,1811
1915,1851,1802
1936,1856,1800
1947,1837,1803
1942,1839,1808
1931,1851,1808
1918,1866,1804
1931,1825,1804
1947,1813,1789
1923,1833,1780
1934,1859,1809
1953,1843,1792
1927,1869,1805
1911,1867,1817
1935,1811,1814
1973,1832,1808
1947,1924,1775
1904,1798,1775
1913,1799,1825
1954,1814,1840
1918,1808,1806
1894,1821,1795
1935,1831,1808
1967,1866,1815
1966,1872,1805
1936,1872,1793
1919,1807,1823
1938,1823,1829
1930,1838,1813
1915,1839,1808
1960,1872,1805
1990,1899,1821
1951,1843,1814
1922,1831,1811
1929,1842,1811
1978,1856,1790
1962,1908,1820
1904,1807,1822
1931,1798,1819
1959,1842,1817
1955,1840,1789
1950,1849,1799
1968,1877,1759
1940,1779,1840
1933,1794,1853
1939,1793,1839
1950,1825,1823
1929,1840,1809
1902,1829,1805
1925,1847,1806
1954,1866,1815
1965,1839,1822
1952,1840,1814
1936,1846,1813
1950,1861,1821
1980,1874,1826
1968,1873,1813
1936,1858,1818
1953,1857,1805
1973,1895,1792
1952,1847,1777
1923,1818,1798
1943,1807,1826
1936,1787,1861
1935,1796,1839
1923,1840,1810
1939,1862,1803
1943,1813,1822
1944,1819,1822
1947,1800,1817
1936,1818,1819
1957,1850,1831
1957,1878,1821
1933,1823,1815
1943,1826,1820
1962,1856,1823
1956,1840,1818
1930,1851,1817
1947,1834,1813
1966,1814,1811
1955,1841,1819
1951,1933,1835
1969,1863,1783
1968,1771,1769
1911,1759,1838
1886,1801,1858
1936,1840,1847
1968,1855,1835
1966,1858,1830
1973,1893,1823
1936,1870,1814
1911,1797,1826
1918,1769,1824
1937,1787,1835
1957,1835,1829
1981,1852,1829
1966,1859,1822
1969,1885,1833
1945,1856,1823
1935,1819,1815
1919,1811,1819
1922,1831,1826
1972,1904,1842
2002,1932,1815
1921,1758,1808
1921,1777,1737
1954,1833,1810
1949,1780,1846
1933,1778,1843
1911,1801,1846
1942,1824,1840
1976,1851,1831
1962,1842,1823
1951,1844,1836
1966,1853,1850
1970,1862,1843
1958,1831,1829
1933,1819,1830
1955,1864,1840
1979,1899,1834
1983,1897,1817
1921,1765,1814
1919,1755,1827
1963,1839,1820
1924,1775,1776
1904,1776,1851
1934,1825,1869
1959,1793,1854
1954,1802,1840
1939,1821,1825
1973,1838,1830
1990,1834,1831
1966,1849,1842
1940,1846,1851
1951,1861,1847
1973,1862,1841
1965,1850,1840
1943,1855,1841
1969,1871,1841
1984,1861,1840
1952,1854,1827
1952,1867,1824
1966,1951,1808
1960,1749,1821
1918,1682,1842
1904,1792,1843
1940,1753,1790
1936,1777,1841
1926,1810,1847
1921,1829,1840
1954,1846,1818
1984,1845,1840
1946,1890,1835
1919,1827,1845
1951,1821,1853
1978,1839,1842
1964,1845,1838
1947,1847,1840
1978,1865,1843
1985,1854,1837
1963,1888,1840
1919,1882,1824
1935,1795,1847
1967,1825,1851
1938,1775,1838
1920,1779,1839
1955,1873,1847
1977,1837,1835
1978,1776,1792
1904,1790,1859
1922,1831,1863
1945,1853,1849
1945,1845,1841
1938,1840,1840
1965,1861,1845
1980,1869,1853
1968,1840,1856
1955,1854,1843
1989,1857,1828
1986,1875,1822
1931,1808,1844
1915,1889,1840
1941,1818,1841
1964,1751,1857
1952,1792,1845
1968,1857,1847
1950,1850,1825
1957,1785,1835
1931,1781,1849
1936,1795,1840
1965,1847,1841
1973,1850,1844
1953,1843,1847
1985,1872,1794
1965,1851,1840
1947,1846,1871
1953,1844,1856
1949,1885,1840
1952,1855,1833
1945,1823,1841
1932,1833,1840
1939,1841,1840
1967,1838,1850
1984,1842,1823
1942,1872,1836
1936,1845,1845
1965,1863,1851
1997,1882,1838
1955,1872,1840
1920,1856,1817
1938,1807,1827
1978,1798,1818
1937,1762,1847
1924,1790,1859
1963,1835,1856
2006,1855,1808
1975,1822,1811
1919,1811,1857
1951,1840,1869
1974,1857,1856
1955,1852,1840
1948,1798,1843
1974,1830,1851
1990,1853,1851
1937,1830,1850
1933,1834,1838
1961,1872,1837
1970,1839,1838
1955,1829,1836
1933,1872,1853
1969,1949,1859
1985,1812,1858
1949,1778,1838
1923,1783,1836
1953,1831,1843
1986,1856,1851
1974,1844,1838
1968,1870,1808
2003,1840,1798
1959,1823,1874
1940,1821,1869
1946,1851,1859
1967,1921,1836
2000,1850,1841
1952,1775,1854
1938,1808,1856
1978,1829,1853
1991,1840,1859
1966,1847,1846
1945,1808,1839
1958,1843,1840
1984,1860,1840
1953,1843,1843
1959,1881,1851
1990,1861,1847
1959,1790,1843
1934,1817,1843
1917,1810,1840
1963,1856,1845
1987,1837,1808
1968,1810,1830
1937,1823,1858
1968,1846,1860
1982,1867,1854
1970,1876,1850
1951,1821,1846
1970,1872,1834
1982,1837,1854
1963,1846,1866
1933,1814,1850
1938,1798,1851
1955,1826,1856
1953,1853,1856
1947,1843,1845
1969,1829,1837
2002,1850,1838
1966,1829,1874
1942,1886,1867
1965,1871,1853
1996,1878,1822
1968,1809,1872
1935,1775,1879
1967,1799,1872
1984,1839,1858
1941,1843,1852
1913,1831,1846
1951,1818,1857
1953,1818,1859
1937,1838,1848
1931,1822,1840
1975,1838,1840
1991,1872,1863
1952,1862,1863
1936,1845,1856
1968,1863,1856
1997,1887,1854
1993,1873,1849
1942,1841,1840
1947,1815,1831
1970,1835,1840
1982,1905,1814
1935,1823,1845
1921,1856,1871
1984,1865,1858
1955,1791,1839
1899,1792,1853
1923,1793,1849
1949,1799,1856
1947,1834,1857
1950,1847,1854
1969,1877,1863
1980,1875,1851
1964,1861,1841
1958,1862,1847
1978,1866,1856
1997,1902,1849
1973,1856,1835
1968,1889,1825
1968,1857,1845
1971,1846,1854
1969,1846,1818
1954,1803,1811
1930,1801,1842
1936,1849,1875
1955,1904,1872
1934,1835,1840
1921,1779,1846
1938,1818,1856
1941,1847,1854
1935,1858,1851
1954,1868,1850
1977,1870,1858
1981,1865,1849
1939,1889,1849
1951,1882,1840
1956,1828,1851
1954,1869,1829
1938,1841,1836
1965,1846,1853
1973,1851,1857
1952,1785,1838
1921,1751,1833
1933,1792,1826
1962,1835,1813
1968,1843,1837
1904,1838,1872
1936,1821,1857
1979,1851,1847
1964,1861,1856
1948,1872,1862
1973,1886,1862
1989,1856,1847
1954,1819,1845
1941,1829,1840
1962,1821,1837
2010,1843,1847
1952,1852,1857
1931,1825,1845
1936,1823,1839
1969,1872,1843
1965,1837,1828
1950,1867,1827
1957,1797,1840
1946,1772,1854
1936,1793,1843
1926,1862,1822
1958,1811,1839
1984,1821,1850
1979,1818,1856
1949,1823,1840
1956,1853,1813
1993,1895,1824
1967,1818,1850
1923,1748,1853
1947,1786,1854
1971,1827,1871
1963,1849,1867
1969,1862,1849
1968,1857,1852
1941,1831,1860
1922,1807,1853
1932,1838,1840
1955,1822,1838
1987,1857,1846
1951,1835,1840
1920,1862,1835
1945,1820,1847
1971,1822,1853
1964,1838,1847
1953,1842,1840
1953,1840,1813
1983,1840,1803
1938,1823,1851
1936,1837,1853
1943,1879,1841
1952,1901,1840
1949,1782,1850
1947,1787,1822
1968,1833,1853
1952,1840,1862
1936,1829,1853
1903,1808,1835
1945,1808,1840
1967,1843,1855
1948,1843,1855
1942,1840,1842
1953,1859,1842
1971,1867,1850
1968,1881,1847
1953,1835,1850
1956,1841,1844
1969,1853,1840
1958,1792,1853
1937,1803,1849
1941,1836,1842
1965,1843,1843
1994,1840,1789
1945,1824,1851
1932,1861,1874
1945,1830,1859
1951,1803,1847
1943,1831,1840
1973,1854,1845
2009,1856,1828
1966,1851,1825
1926,1793,1849
1950,1806,1853
2002,1828,1826
1968,1846,1834
1924,1818,1855
1948,1809,1847
1975,1811,1829
1938,1809,1852
1920,1811,1855
1951,1825,1856
1974,1839,1854
1968,1843,1834
1959,1867,1841
1950,1846,1844
1962,1821,1845
1961,1840,1792
1930,1811,1839
1943,1825,1871
1975,1846,1872
1991,1858,1839
1940,1825,1840
1933,1809,1842
1956,1822,1841
1964,1835,1839
1957,1854,1837
1951,1851,1841
1968,1875,1846
1963,1844,1827
1919,1823,1823
1922,1798,1829
1941,1817,1840
1941,1865,1840
1945,1875,1831
1947,1849,1817
1972,1794,1821
1936,1808,1831
1919,1840,1845
1951,1862,1849
1979,1874,1840
1949,1860,1827
1935,1856,1844
1935,1851,1842
1965,1842,1821
1956,1824,1839
1921,1838,1851
1949,1875,1850
1983,1909,1837
1989,1857,1799
1929,1808,1855
1917,1780,1867
1936,1855,1857
1951,1812,1840
1919,1774,1825
1918,1821,1840
1959,1829,1841
1946,1830,1842
1933,1844,1840
1957,1864,1841
1982,1868,1846
1965,1861,1837
1959,1891,1840
1975,1851,1838
1966,1869,1835
1936,1842,1831
1920,1811,1842
1950,1819,1846
1981,1889,1843
1981,1835,1834
1923,1825,1824
1943,1890,1805
1953,1837,1872
1920,1774,1860
1899,1739,1834
1968,1857,1882
2045,1906,1898
1920,1787,1819
1899,1829,1839
1994,1885,1878
1998,1869,1851
2065,1948,1919
2127,1973,1895
1949,1861,1792
1923,1838,1910
2004,1977,1889
2203,2090,1883
2113,1881,1941
657,1745,1978
629,1770,1931
2526,1840,1905
2652,1861,1904
2283,2075,1923
929,2315,2034
1623,2173,1856
2541,2075,1833
2524,1533,1793
2096,1578,2031
1799,2227,2090
1766,1900,1859
1834,2153,1797
1843,2149,1779
1839,1793,1887
1838,1616,1840
1842,2054,1922
1838,2002,1793
1833,2055,1923
1839,2011,1930
1838,2008,1835
1831,1897,1639
1840,2000,1966
1834,1968,1975
1835,1712,1698
1839,1882,1751
1837,1791,1785
1835,1691,1765
1834,1875,1781
1830,2006,1874
1465,1968,2055
877,2234,1857
1304,1894,1692
1943,1712,1773
2411,1664,1847
2161,2096,1934
1777,1963,1919
1753,1929,1958
1886,2161,1791
1873,1986,1793
1846,1842,1741
1830,1871,1788
1834,1584,1787
1838,1840,1867
159,2070,1902
0,1951,1839
999,1699,1820
0,1893,1888
0,1761,1866
752,2121,1967
1818,1667,1696
2090,1756,1774
2533,1813,1835
1951,1730,1702
4095,1814,1935
4095,1889,1965
3677,1782,1895
2269,1856,1775
1689,1920,1840
1706,1715,1774
1842,1827,1878
1885,2093,1968
1869,1872,1969
1849,1561,1711
1844,1566,1648
1853,1629,1687
1844,1731,1887
1839,1822,1857
1850,1860,1856
1843,1842,1850
1841,1767,1833
1840,1792,1737
1842,1877,1795
1838,1845,1790
1826,1606,1686
1840,1694,1793
1845,1998,1888
1837,2004,1851
1830,1651,1703
1883,1522,1680
2506,2005,1955
2353,1710,1801
2222,1613,1734
2414,1791,1814
3071,1520,1872
3390,1657,1863
3102,1733,1802
3383,1744,1726
4095,2032,1830
4095,1710,1853
4095,1799,1967
4095,1683,1707
4095,1746,1758
4095,1891,1866
4095,2064,1942
4095,2083,1870
4095,1470,1729
4095,1278,1643
4095,1420,1712
4095,1562,1946
4095,1701,1939
4095,1782,1863
4095,1797,1757
4095,1745,1910
4095,1772,1872
4095,1646,1770
4095,1637,1829
4095,1749,1901
4095,1780,1786
4095,1765,1856
4095,1712,1822
4095,1579,1840
4095,1776,1797
4095,1859,2009
4095,1634,1845
4095,1612,1821
4095,1695,1847
4095,1635,1809
4095,1579,1856
4095,1761,1822
4095,1814,1903
4095,1643,1813
4095,1616,1781
4095,1748,1874
4095,1623,1866
4095,1613,1906
4095,1791,1936
4095,1698,1797
4095,1715,1761
4095,1850,1775
4095,2003,1968
4095,1687,1731
4095,1485,1810
4095,1760,1898
4095,1834,2026
4095,1677,1842
4095,1566,1716
4095,1535,1863
4095,1718,1815
4095,1616,1822
4095,1739,1966
4095,1844,1931
4095,1936,1894
4095,1706,1760
4095,1569,1726
4095,1755,1851
4095,1759,1726
4095,1767,1791
4095,1825,1895
4095,1901,1957
4095,1641,1911
4095,1388,1730
4095,1650,1817
4095,1876,1987
4095,1968,1905
4095,1936,1840
4095,1535,1669
4095,1589,1730
4095,1774,1899
4095,1810,1937
4095,1838,1917
4095,2038,1870
4095,1710,1689
4095,1766,1938
4095,1632,2055
4095,1490,1794
4095,1659,1648
4095,1778,1755
4095,1801,1936
4095,1671,1751
4095,1872,1875
4095,1899,1856
4095,1843,1898
4095,1692,1811
4095,1707,1796
4095,2026,1970
4095,1770,1879
4095,1467,1795
4095,1657,1811
4095,1674,1762
4095,1781,1840
4095,1886,1894
4095,1843,1901
4095,1766,1755
4095,1942,1858
4095,1938,1891
4095,1601,1831
4095,1745,1903
4095,1777,1814
4095,1892,1837
4095,1765,1866
4095,1793,1923
4095,1858,1923
4095,1653,1771
4095,1674,1759
4095,1797,1770
4095,2061,1877
4001,1826,1815
3536,1570,1707
3814,1697,1863
3882,1854,1940
3637,1728,1915
3471,1869,1859
3696,1728,1869
3829,1696,1831
3856,1872,1744
3567,1850,1699
3504,1623,1775
3655,1808,1887
3632,1967,1952
3216,1872,1856
3194,1788,1856
3120,1731,1840
3344,1871,1873
3639,1850,1825
3495,1904,1792
3184,1907,1707
2971,1606,1808
2877,1664,1826
3197,1750,1889
3156,1774,1887
3092,1753,1799
3467,1936,1882
3007,1889,1744
2674,1821,1836
2715,1805,1867
2899,1847,1862
3290,2019,1907
3046,1961,1840
2738,1735,1671
2637,1614,1793
2862,1859,1958
3008,2001,1826
2903,1890,1810
2757,1819,1949
3041,2112,1930
2839,1872,1765
2384,1579,1722
2299,1695,1781
2609,1840,1813
2762,1935,1918
2611,1893,1835
2501,1824,1789
2558,1915,1793
2690,1999,1946
2622,1841,1892
2592,1968,1837
2690,1923,1792
2694,2011,1891
2387,1871,1776
2303,1680,1807
2419,1742,1782
2483,1872,1846
2351,1991,1811
2453,1978,1835
2559,2032,1903
2370,1865,1783
2377,1914,1828
2285,1840,1668
2109,1827,1621
2369,1886,1744
2553,2021,1845
2387,2118,1757
2112,1787,1693
2102,1699,1692
2205,1946,1701
2353,1911,1763
2165,1791,1717
1968,1764,1679
2031,1776,1728
2285,2031,1825
2161,1845,1729
2139,1789,1630
2090,1793,1590
2108,1845,1717
2210,2045,1883
2484,2103,1924
1975,1920,1613
1674,1749,1523
1982,1991,1740
2229,1956,1697
2053,1883,1685
2114,1809,1712
1853,2038,1850
1830,1867,1723
1835,1658,1626
1807,1715,1718
1809,1824,1712
1940,2032,1602
1999,1955,1739
1954,1831,1776
1971,1835,1729
1916,1999,1687
1966,1917,1722
1956,2004,1718
1728,1984,1747
1811,1877,1855
1907,1949,1723
1758,1795,1647
1746,1718,1623
1808,1931,1689
1890,2042,1808
1727,1817,1824
1685,1781,1727
1712,1836,1841
1712,1972,1754
1675,1920,1763
1813,1919,1683
1983,1898,1740
1808,1936,1707
1581,1817,1739
1671,1819,1744
1686,1936,1776
1661,1942,1776
1802,1997,1777
1777,1968,1778
1457,1808,1675
1608,1791,1685
1454,1703,1773
1444,1795,1821
1648,1834,1712
1777,1893,1812
1574,1898,1782
1648,2003,1856
1497,1841,1713
1525,1857,1765
1908,2036,1786
1643,2003,1795
1379,1850,1728
1463,1904,1808
2007,2078,1813
1738,2002,1734
1125,1630,1813
1259,1757,1861
1919,2059,1934
1629,1930,1808
1232,1648,1689
1383,1725,1761
1527,1765,1799
1289,1847,1853
1422,1904,1783
1602,1944,1776
1751,1967,1813
1703,2043,1861
1326,2000,1812
1306,1861,1733
1629,1846,1730
1641,1984,1871
1305,1813,1925
1063,1558,1774
1146,1616,1798
1818,2034,1918
1776,2000,1903
987,1687,1781
1057,1659,1681
1582,1904,1822
1658,1987,1845
1348,1853,1885
1473,1970,1897
1358,1856,1761
1450,1999,1838
1616,2063,1792
1523,1830,1965
1126,1685,1949
976,1702,1755
1360,1808,1808
1632,1802,1872
1326,1819,1845
1185,1842,1862
1349,1826,1808
1691,2192,1925
1424,1946,1885
1303,1846,1827
1420,1861,1799
1535,1879,1914
1311,1903,1856
1399,1835,1889
1502,2057,1873
1463,1867,1678
1197,1662,1883
1314,1742,1947
1425,1826,1870
1119,1664,1771
1163,1715,1810
1535,1953,2013
1514,1954,1959
1371,1867,1850
1283,1852,1745
1177,1744,1712
1426,1872,1872
1701,2085,2013
1424,1866,1828
1219,1872,1839
1229,2006,1871
1535,1906,1831
1331,1584,1839
1022,1717,1858
1127,1694,1875
1330,1794,1874
1620,1919,1920
1487,1904,1891
1293,1709,1799
1168,1715,1772
1307,1798,1826
1424,1913,1904
1357,1874,1873
1493,1936,1832
1535,2007,1914
1416,2018,1962
1513,2157,1886
1326,1834,1785
1203,1440,1886
1063,1518,1866
1232,1733,1871
1340,1773,1903
1530,1949,1941
1472,1938,1875
1213,1777,1789
1127,1686,1846
1396,1770,1904
1584,1915,1957
1666,1916,1819
1345,1955,1755
1210,1978,1975
1687,2109,1995
1659,2330,1901
1115,1595,1719
1373,1523,2006
1408,1559,1966
1251,1776,1919
1215,1813,1759
1390,1934,1810
1840,2011,1890
1367,1846,1904
1317,1776,1828
1189,1762,1860
1296,1799,1872
1296,1887,1879
1587,2017,1991
1431,1954,1776
1442,1991,1770
1600,2011,1907
1306,1520,1731
1200,1524,1903
1268,1797,1969
1799,2064,1879
1255,1730,1807
877,1529,1767
1253,1774,1867
1618,1807,1840
1401,1847,1863
1699,1937,1979
1535,1919,1796
1379,1810,1770
1535,1925,1885
1379,1997,1905
1707,2194,1962
1563,1701,1755
1008,1504,1836
962,1530,1813
1499,1856,1947
1744,1851,1968
1666,1886,1932
1349,1851,1825
1118,1723,1725
1471,1860,1776
1651,1929,1971
1602,1791,1857
1373,1879,1882
1690,1955,2074
1429,1877,1819
1253,1910,1581
1417,1817,1818
1969,1904,1986
1421,1719,1942
1065,1520,1824
1219,1707,1919
1677,1863,1889
1334,1765,1745
1105,1733,1751
1392,1874,1888
1936,1921,1863
1612,1877,1797
1408,1860,1889
1691,1937,1871
2046,2126,1954
1488,1920,1749
1031,1776,1744
1305,1627,1957
1799,1863,2058
1739,1821,1885
1017,1590,1776
1315,1722,1811
1520,1790,1933
1697,1905,1855
1804,1951,1881
1627,1968,1871
1135,1830,1840
1187,1769,1779
1878,1891,1856
1755,1892,1776
1392,1895,1824
1685,2122,1935
1438,1767,1953
1428,1515,1912
2055,1834,1918
1649,1744,1706
1415,1680,1818
1329,1917,1904
1149,1693,1888
1159,1689,1847
1527,1855,1839
1515,1906,1808
1682,1873,1920
2198,2045,1993
1670,1897,1823
1386,2039,1917
1302,1827,1859
1535,1875,1858
1659,1801,1879
1590,1744,1815
1505,1598,1852
1460,1681,1765
1369,1684,1895
1527,1797,2000
1570,1918,1893
1392,1850,1756
1635,1930,1765
1579,1872,1788
1504,1765,1847
1589,1822,1861
2067,2013,1948
2047,2013,1863
2340,2239,1897
1023,1735,1839
625,1429,1775
1194,1503,1856
1715,1686,1920
2053,1923,1920
1790,1973,1991
1924,1934,1916
1314,1710,1722
1068,1647,1718
1457,1793,1772
2029,1858,1879
2043,1931,1922
1652,2011,1857
1487,2010,1834
1908,2001,1885
1387,1680,1865
1167,1530,1825
1426,1599,1807
2078,1887,1890
1648,1865,1778
1426,1751,1895
1901,1840,1933
1553,1817,1940
1625,1871,1819
1518,1987,1793
1557,1844,1862
2368,2086,1959
1787,1968,1836
1200,1787,1742
1744,1851,1985
1807,1658,1914
1397,1535,1760
1254,1694,1793
1679,1849,1942
2210,2091,1959
1528,1770,1761
1189,1664,1771
1639,1762,1860
1773,1811,1903
1466,1782,1821
1643,1967,1894
2053,2111,2029
2976,2471,2108
1644,1829,1757
633,1472,1614
1109,1445,1695
1771,1679,1857
1870,1872,2000
1847,1809,1982
1650,1778,1872
1789,1841,1818
1409,1653,1808
1315,1712,1840
1521,1776,1853
1725,1869,1861
1922,1979,1893
1907,1987,1899
2022,2139,1877
2350,2147,1943
2189,2224,1939
1346,1467,1752
935,1292,1822
2032,1987,2081
2724,2130,1923
964,1554,1648
1001,1616,1877
1680,1780,1870
1531,1729,1776
1567,1735,1808
2099,1871,1885
1796,1945,1875
1535,1911,1856
2166,2298,2115
2912,2299,1984
1570,1712,1696
944,1473,1712
1252,1664,1856
2160,1902,1984
2161,1893,1941
1309,1699,1803
1264,1615,1753
2238,1886,1984
1939,1791,1885
1292,1655,1710
1797,2000,1817
1963,2060,1791
1762,1813,1856
1590,1903,1904
1618,1904,1810
2783,2160,2062
2320,1888,1847
1261,1879,1924
1098,1511,1841
1424,1535,1719
1950,1918,1930
1818,1830,1806
1801,1750,1827
1743,1812,1915
1913,1866,1888
1552,1749,1796
1502,1811,1846
1873,1995,1892
2221,2144,1977
2175,1941,1905
2483,2128,1939
1327,1633,1758
1118,1699,1712
1535,1675,1854
1686,1570,1873
2070,1881,2000
2876,2276,1994
1653,1765,1634
806,1453,1665
1271,1719,1926
1808,1830,1991
1967,1858,1846
2100,1915,1843
1999,1949,1923
2014,1969,1925
2003,2083,1867
1648,1776,1845
1687,1750,1903
1615,1866,1838
1644,1717,1815
2180,1787,1881
2351,1839,1863
1953,1810,1881
1280,1729,1889
1244,1707,1736
1826,1904,1879
2370,1952,1885
1794,1796,1778
1515,1934,1910
1820,1978,1978
2112,1990,1849
2303,2129,1978
2097,1867,1809
1297,1571,1745
1531,1706,1923
2490,2075,2070
2389,1914,1845
1088,1531,1552
1022,1578,1775
1873,1843,1991
2288,1908,1885
1796,1728,1809
1465,1702,1819
2115,2034,1983
2454,2074,1859
1629,1837,1812
1290,1753,1798
1602,1882,1881
2521,2282,2054
2281,1938,1725
1268,1497,1715
1249,1521,1888
1932,1766,1941
