1825,1846,1847
1845,1891,1840
1856,1827,1842
1840,1858,1836
1821,1887,1871
1798,1827,1891
1823,1885,1855
1837,1808,1831
1818,1811,1862
1860,1811,1840
1856,1865,1847
1823,1792,1886
1777,1782,1863
1795,1810,1851
1827,1840,1854
1842,1835,1845
1845,1869,1846
1818,1830,1840
1825,1863,1851
1843,1874,1862
1846,1900,1870
1824,1873,1862
1856,1836,1822
1853,1886,1819
1806,1838,1871
1797,1867,1892
1840,1857,1872
1853,1823,1854
1835,1831,1859
1868,1840,1851
1841,1845,1859
1821,1883,1865
1809,1873,1862
1838,1853,1868
1854,1862,1854
1851,1855,1840
1826,1840,1859
1836,1849,1862
1854,1840,1855
1882,1825,1831
1883,1911,1840
1821,1853,1873
1792,1797,1847
1840,1771,1806
1823,1904,1875
1823,1915,1896
1848,1887,1876
1856,1853,1866
1785,1811,1862
1791,1805,1861
1818,1802,1849
1853,1823,1839
1856,1804,1834
1831,1862,1878
1838,1862,1867
1855,1852,1857
1855,1872,1858
1860,1875,1872
1847,1846,1863
1862,1856,1815
1835,1869,1856
1821,1852,1863
1867,1771,1813
1840,1827,1869
1811,1921,1868
1783,1813,1860
1804,1791,1872
1827,1811,1859
1846,1858,1847
1840,1840,1850
1872,1869,1825
1856,1821,1834
1814,1842,1861
1818,1854,1866
1849,1856,1849
1857,1881,1844
1839,1866,1856
1867,1859,1867
1906,1890,1780
1808,1762,1808
1754,1762,1887
1811,1797,1872
1840,1808,1856
1866,1849,1863
1846,1802,1839
1790,1828,1831
1777,1814,1855
1815,1873,1855
1838,1866,1847
1815,1807,1841
1821,1798,1840
1847,1802,1839
1839,1856,1863
1837,1873,1858
1850,1867,1841
1877,1852,1793
1855,1878,1863
1837,1870,1898
1837,1762,1856
1835,1793,1824
1830,1750,1786
1808,1744,1863
1810,1871,1893
1831,1858,1847
1821,1863,1859
1835,1811,1862
1840,1793,1850
1847,1808,1845
1859,1866,1849
1837,1853,1862
1846,1836,1856
1851,1856,1859
1843,1870,1850
1861,1813,1824
1870,1820,1803
1839,1904,1858
1825,1810,1873
1810,1815,1869
1844,1851,1839
1841,1761,1823
1831,1826,1863
1809,1858,1868
1819,1898,1841
1847,1856,1789
1827,1765,1824
1789,1789,1879
1794,1810,1869
1832,1867,1853
1837,1857,1840
1836,1822,1879
1839,1830,1866
1842,1861,1837
1842,1829,1834
1840,1808,1827
1882,1877,1826
1874,1817,1854
1823,1846,1885
1826,1862,1874
1835,1833,1847
1822,1765,1797
1801,1809,1850
1832,1840,1873
1837,1874,1869
1843,1882,1840
1838,1863,1846
1834,1825,1867
1852,1822,1859
1840,1856,1884
1827,1866,1857
1829,1840,1837
1887,1808,1803
1886,1889,1776
1811,1850,1874
1778,1747,1883
1818,1803,1857
1827,1827,1845
1849,1903,1862
1810,1840,1857
1835,1809,1842
1849,1814,1840
1852,1851,1840
1840,1842,1862
1840,1834,1855
1873,1821,1851
1825,1867,1855
1813,1850,1863
1838,1859,1838
1846,1775,1827
1794,1818,1869
1789,1863,1883
1815,1851,1862
1840,1870,1842
1856,1815,1840
1855,1887,1826
1810,1849,1867
1814,1841,1879
1828,1838,1851
1826,1842,1838
1838,1932,1871
1837,1877,1877
1820,1840,1857
1815,1766,1809
1829,1811,1850
1831,1904,1866
1821,1893,1851
1809,1834,1853
1820,1811,1847
1834,1831,1841
1838,1864,1847
1845,1878,1859
1847,1801,1825
1847,1809,1823
1835,1881,1863
1825,1877,1867
1828,1855,1857
1872,1839,1846
1815,1901,1845
1793,1857,1850
1814,1841,1846
1843,1834,1840
1856,1819,1815
1845,1883,1856
1807,1853,1858
1802,1846,1840
1826,1792,1817
1823,1902,1867
1841,1901,1872
1869,1793,1806
1823,1788,1847
1808,1841,1900
1837,1856,1861
1851,1854,1847
1855,1847,1857
1855,1856,1862
1862,1869,1847
1856,1887,1840
1841,1843,1852
1857,1841,1858
1873,1926,1846
1853,1857,1843
1833,1833,1840
1843,1809,1829
1894,1826,1829
1840,1837,1857
1791,1831,1858
1776,1839,1851
1825,1855,1847
1845,1861,1846
1853,1863,1851
1846,1859,1856
1858,1869,1849
1871,1893,1842
1867,1898,1854
1858,1835,1855
1857,1835,1841
1863,1821,1822
1863,1879,1853
1870,1874,1871
1860,1865,1855
1869,1858,1857
1840,1844,1839
1872,1834,1776
1867,1874,1802
1840,1818,1875
1780,1798,1904
1798,1830,1872
1827,1806,1840
1833,1831,1840
1831,1844,1855
1842,1856,1866
1857,1852,1853
1858,1859,1846
1858,1852,1859
1857,1851,1863
1872,1868,1857
1877,1873,1852
1868,1818,1830
1863,1871,1860
1873,1909,1872
1858,1806,1854
1821,1803,1830
1863,1811,1805
1831,1899,1865
1856,1734,1853
1808,1771,1856
1789,1835,1858
1817,1866,1851
1850,1862,1845
1856,1848,1851
1857,1852,1854
1875,1859,1850
1875,1867,1842
1871,1863,1847
1867,1859,1856
1873,1872,1841
1877,1886,1855
1872,1872,1841
1863,1851,1840
1867,1869,1866
1854,1786,1826
1840,1757,1814
1819,1851,1873
1856,1877,1872
1840,1829,1868
1819,1805,1855
1815,1814,1858
1840,1825,1857
1859,1841,1852
1862,1853,1870
1863,1837,1836
1878,1827,1822
1860,1879,1856
1855,1873,1858
1866,1883,1860
1878,1899,1855
1858,1819,1826
1849,1859,1840
1856,1882,1863
1878,1902,1857
1911,1920,1843
1865,1851,1847
1837,1826,1854
1843,1817,1835
1878,1821,1795
1842,1825,1857
1867,1853,1884
1867,1856,1857
1851,1856,1845
1850,1856,1850
1891,1866,1851
1890,1840,1855
1843,1872,1840
1856,1838,1809
1840,1882,1860
1855,1914,1835
1815,1818,1869
1799,1775,1879
1808,1792,1855
1849,1823,1849
1878,1856,1853
1859,1839,1853
1838,1840,1853
1857,1875,1855
1895,1908,1833
1874,1805,1837
1840,1818,1879
1842,1843,1871
1836,1851,1859
1840,1835,1857
1852,1872,1849
1845,1789,1825
1872,1896,1872
1883,1892,1873
1819,1853,1856
1799,1812,1802
1825,1831,1853
1840,1878,1892
1825,1854,1840
1808,1779,1845
1823,1776,1865
1837,1807,1869
1845,1833,1862
1850,1854,1853
1853,1865,1853
1845,1863,1853
1841,1856,1851
1856,1863,1850
1872,1869,1852
1873,1877,1856
1855,1837,1837
1839,1821,1831
1850,1874,1842
1921,1890,1866
1821,1802,1838
1791,1811,1837
1808,1866,1871
1835,1951,1869
1835,1814,1846
1840,1802,1833
1835,1809,1841
1845,1842,1853
1838,1835,1851
1846,1830,1845
1857,1870,1840
1858,1806,1819
1862,1787,1844
1872,1865,1866
1858,1837,1839
1834,1828,1855
1852,1833,1856
1858,1808,1842
1833,1831,1858
1827,1854,1857
1811,1836,1855
1840,1846,1849
1857,1842,1844
1875,1774,1803
1853,1841,1857
1859,1872,1877
1873,1860,1870
1842,1872,1851
1849,1856,1845
1850,1836,1856
1840,1855,1853
1841,1870,1851
1847,1882,1856
1861,1799,1815
1872,1858,1840
1840,1840,1857
1817,1811,1862
1840,1758,1840
1872,1805,1844
1851,1741,1847
1776,1789,1838
1806,1840,1853
1831,1876,1872
1839,1866,1871
1844,1862,1870
1867,1863,1858
1872,1866,1856
1856,1840,1853
1854,1855,1857
1872,1914,1857
1856,1856,1852
1853,1827,1845
1831,1830,1846
1877,1813,1811
1862,1849,1844
1825,1813,1867
1851,1825,1852
1849,1840,1850
1856,1831,1850
1823,1802,1834
1809,1781,1869
1855,1775,1808
1837,1814,1840
1818,1823,1875
1821,1856,1903
1856,1859,1885
1867,1862,1865
1863,1849,1865
1862,1849,1872
1865,1872,1875
1871,1875,1871
1857,1862,1861
1850,1823,1866
1840,1819,1837
1847,1776,1858
1839,1806,1873
1840,1892,1889
1870,1889,1902
1898,1856,1856
1846,1808,1856
1806,1790,1841
1823,1761,1837
1839,1821,1886
1840,1837,1889
1821,1869,1906
1855,1861,1874
1867,1847,1856
1867,1879,1857
1817,1831,1865
1819,1841,1872
1835,1797,1837
1852,1793,1842
1840,1857,1899
1854,1862,1885
1858,1849,1872
1851,1902,1872
1839,1840,1855
1857,1840,1855
1855,1803,1862
1845,1824,1870
1840,1840,1863
1882,1767,1807
1857,1852,1847
1815,1843,1895
1810,1865,1891
1831,1866,1861
1839,1856,1855
1824,1806,1863
1826,1840,1861
1844,1840,1852
1869,1795,1823
1839,1815,1847
1837,1846,1872
1846,1857,1871
1850,1854,1854
1854,1840,1856
1855,1847,1866
1877,1892,1863
1866,1867,1842
1897,1904,1824
1859,1749,1797
1814,1687,1839
1797,1790,1895
1823,1819,1888
1850,1904,1874
1840,1861,1856
1866,1863,1858
1841,1813,1849
1844,1745,1838
1840,1839,1866
1845,1861,1863
1853,1853,1859
1853,1850,1863
1879,1869,1872
1883,1866,1867
1877,1848,1855
1852,1831,1856
1841,1841,1854
1845,1861,1858
1858,1890,1854
1868,1796,1820
1861,1808,1858
1831,1893,1829
1787,1680,1834
1795,1775,1887
1836,1826,1885
1853,1857,1867
1845,1849,1863
1855,1840,1858
1856,1856,1862
1861,1859,1855
1851,1847,1857
1852,1851,1860
1858,1853,1856
1871,1861,1856
1881,1811,1840
1867,1895,1866
1815,1851,1869
1839,1840,1863
1866,1887,1872
1834,1863,1847
1829,1769,1790
1840,1664,1823
1790,1839,1886
1789,1865,1871
1815,1868,1834
1840,1757,1814
1837,1776,1858
1838,1843,1878
1847,1860,1865
1857,1851,1851
1868,1838,1847
1846,1839,1856
1852,1853,1849
1865,1847,1839
1920,1936,1847
1831,1808,1847
1775,1790,1847
1821,1808,1851
1837,1824,1850
1838,1877,1820
1840,1785,1825
1845,1818,1879
1823,1808,1872
1823,1808,1850
1836,1829,1841
1856,1825,1830
1844,1858,1844
1854,1904,1857
1841,1832,1841
1863,1815,1792
1853,1793,1824
1808,1857,1884
1825,1843,1851
1840,1803,1833
1820,1838,1856
1826,1859,1865
1842,1873,1857
1856,1834,1842
1862,1820,1830
1831,1825,1842
1822,1811,1837
1860,1767,1823
1846,1821,1866
1815,1853,1875
1839,1875,1866
1853,1887,1860
1853,1878,1839
1793,1777,1839
1792,1777,1846
1838,1827,1836
1838,1810,1847
1843,1829,1859
1870,1842,1856
1878,1789,1817
1825,1847,1845
1810,1886,1864
1842,1873,1861
1866,1870,1853
1868,1872,1851
1851,1839,1854
1881,1872,1823
1886,1893,1840
1823,1782,1840
1840,1691,1787
1856,1835,1870
1857,1881,1890
1813,1840,1883
1775,1792,1885
1808,1806,1851
1868,1836,1818
1837,1821,1837
1821,1840,1845
1829,1841,1842
1840,1833,1839
1840,1833,1840
1840,1834,1841
1859,1851,1842
1882,1865,1801
1869,1825,1818
1840,1849,1863
1823,1821,1866
1842,1829,1859
1847,1866,1855
1866,1818,1810
1858,1827,1847
1824,1811,1846
1831,1796,1827
1809,1859,1863
1831,1907,1859
1856,1866,1875
1840,1901,1851
1794,1825,1830
1804,1803,1851
1840,1834,1856
1855,1830,1837
1821,1850,1840
1837,1870,1826
1861,1810,1824
1861,1798,1814
1830,1881,1867
1850,1901,1861
1874,1931,1852
1841,1894,1814
1841,1754,1808
1839,1837,1862
1827,1836,1849
1826,1811,1853
1840,1815,1859
1889,1842,1821
1892,1803,1834
1790,1834,1856
1767,1857,1861
1811,1867,1845
1850,1861,1839
1856,1854,1837
1843,1844,1847
1854,1863,1829
1862,1907,1847
1860,1846,1855
1846,1856,1844
1846,1834,1839
1822,1818,1837
1835,1777,1806
1826,1839,1869
1849,1860,1872
1862,1888,1832
1840,1841,1840
1818,1787,1841
1845,1822,1846
1870,1855,1844
1843,1819,1836
1845,1822,1838
1866,1845,1842
1875,1836,1834
1847,1853,1845
1876,1863,1840
1831,1841,1814
1829,1823,1801
1827,1830,1856
1830,1866,1874
1872,1909,1840
1910,1787,1808
1804,1806,1847
1783,1842,1867
1824,1861,1845
1852,1862,1840
1872,1853,1804
1860,1839,1854
1851,1936,1873
1843,1839,1853
1831,1803,1846
1835,1812,1843
1859,1840,1852
1873,1889,1846
1882,1845,1822
1834,1802,1859
1826,1866,1863
1834,1840,1857
1865,1834,1857
1847,1864,1857
1836,1874,1863
1828,1815,1859
1835,1808,1846
1830,1840,1845
1849,1904,1855
1872,1775,1791
1885,1728,1811
1815,1877,1899
1817,1904,1904
1844,1905,1877
1859,1922,1863
1859,1895,1855
1842,1827,1851
1835,1817,1846
1843,1840,1856
1842,1850,1855
1863,1860,1851
1884,1888,1849
1872,1842,1840
1847,1842,1869
1874,1869,1869
1867,1853,1856
1833,1844,1851
1837,1897,1858
1854,1869,1846
1836,1783,1808
1830,1793,1855
1814,1819,1877
1845,1776,1831
1819,1792,1865
1826,1867,1877
1827,1842,1869
1840,1834,1856
1851,1843,1856
1847,1847,1856
1843,1845,1853
1857,1855,1850
1866,1846,1838
1871,1855,1840
1855,1887,1865
1858,1849,1861
1874,1874,1861
1877,1845,1839
1810,1811,1858
1810,1857,1857
1837,1841,1858
1836,1781,1817
1838,1791,1830
1846,1877,1861
1838,1839,1856
1833,1881,1872
1820,1853,1872
1842,1860,1875
1853,1825,1856
1840,1808,1844
1840,1820,1847
1855,1814,1831
1866,1857,1856
1899,1947,1871
1855,1795,1822
1808,1824,1872
1805,1797,1860
1821,1808,1842
1882,1805,1766
1827,1778,1834
1819,1825,1881
1813,1840,1878
1819,1847,1870
1840,1853,1847
1857,1859,1843
1850,1826,1839
1850,1856,1837
1857,1867,1851
1856,1866,1866
1850,1895,1862
1853,1891,1861
1863,1918,1872
1875,1843,1846
1811,1743,1834
1805,1761,1854
1813,1809,1846
1846,1851,1849
1872,1879,1846
1854,1825,1854
1817,1808,1842
1809,1827,1845
1820,1847,1851
1851,1819,1812
1873,1818,1831
1854,1857,1843
1827,1854,1845
1814,1882,1872
1827,1849,1875
1854,1855,1856
1846,1831,1843
1870,1911,1855
1837,1840,1845
1808,1811,1835
1809,1838,1858
1850,1864,1866
1830,1855,1865
1826,1822,1863
1822,1808,1859
1837,1821,1840
1858,1845,1837
1843,1839,1831
1846,1865,1826
1856,1790,1794
1835,1827,1850
1843,1873,1858
1840,1867,1843
1829,1862,1857
1843,1874,1817
1840,1774,1781
1785,1773,1835
1793,1853,1881
1829,1931,1873
1852,1887,1847
1836,1845,1843
1822,1799,1850
1834,1801,1841
1841,1851,1843
1831,1835,1847
1826,1840,1858
1840,1846,1849
1865,1856,1859
1856,1841,1829
1856,1925,1870
1847,1855,1850
1815,1810,1840
1810,1808,1845
1822,1810,1842
1877,1840,1818
1859,1838,1821
1803,1894,1852
1789,1824,1861
1807,1823,1857
1840,1813,1840
1846,1777,1826
1817,1828,1872
1808,1845,1857
1842,1849,1850
1830,1852,1839
1840,1867,1836
1868,1851,1813
1862,1869,1855
1811,1863,1869
1803,1834,1858
1837,1840,1847
1861,1856,1846
1850,1867,1847
1846,1872,1859
1862,1859,1812
1852,1819,1822
1806,1831,1862
1805,1855,1872
1837,1861,1850
1894,1978,1829
1858,1839,1843
1787,1802,1843
1807,1795,1841
1835,1840,1856
1870,1856,1834
1839,1805,1825
1810,1844,1862
1838,1808,1825
1847,1861,1834
1838,1855,1868
1838,1853,1871
1841,1860,1857
1835,1849,1847
1822,1839,1835
1850,1886,1844
1854,1867,1846
1838,1861,1858
1833,1840,1856
1859,1851,1839
1855,1846,1849
1833,1855,1861
1828,1825,1851
1873,1856,1845
1831,1856,1832
1846,1853,1790
1831,1826,1860
1813,1856,1871
1799,1796,1845
1803,1787,1839
1839,1806,1821
1865,1793,1815
1830,1825,1855
1813,1840,1873
1829,1860,1868
1854,1811,1837
1871,1850,1843
1875,1873,1837
1813,1809,1874
1774,1837,1866
1782,1863,1861
1809,1850,1829
1822,1836,1879
1831,1801,1857
1845,1831,1843
1840,1765,1838
1854,1801,1796
1818,1813,1825
1841,1909,1835
1858,1822,1841
1810,1791,1926
1781,1835,1907
1829,1847,1872
1902,1856,1850
1881,1859,1847
1850,1872,1840
1872,1840,1859
1845,1810,1863
1794,1952,1887
1791,1887,1821
1767,1751,1811
1775,1827,1855
1818,1841,1872
1816,1866,1879
1899,1779,1805
1840,1871,1824
1713,1949,1872
1743,1865,1906
1846,1890,1861
1797,1801,1823
1767,1872,1823
1859,1744,1830
1983,1872,1831
1808,1887,1867
1712,1777,1781
1723,1783,1858
1910,1835,1904
1954,1860,1895
1829,1950,1858
1799,1974,1770
1724,1769,1743
1687,1791,1767
1767,1859,1814
1811,1911,1847
1806,1821,1878
1727,1895,1915
1793,1888,1920
1790,1872,1789
1764,1805,1744
1760,1889,1811
1770,1834,1831
1873,1936,1886
1835,1814,1765
1760,1787,1783
1731,1881,1852
1776,1930,1853
1789,1872,1839
1786,1898,1839
1813,1847,1741
1850,1929,1811
1822,1954,1915
1767,1808,1838
1746,1723,1776
1725,1819,1841
1789,1830,1760
1783,1914,1790
1746,1891,1866
1730,1904,1834
1775,1906,1853
1744,1820,1808
1756,1803,1742
1795,1984,1877
1785,2008,1838
1795,1857,1757
1744,1827,1806
1772,1830,1882
1858,1855,1827
1777,1871,1781
1775,1885,1840
1845,1856,1791
1747,1840,1812
1690,1804,1776
1731,1869,1870
1806,1936,1967
1809,1854,1823
1795,1905,1775
1884,1946,1840
1888,1978,1925
1762,1913,1836
1684,1840,1866
1741,1733,1772
1779,1819,1759
1856,1841,1744
1765,1913,1822
1771,1865,1852
1805,1839,1827
1741,1855,1825
1751,1883,1870
1815,1835,1849
1788,1842,1783
1763,1878,1845
1782,1871,1913
1799,1856,1867
1808,1949,1806
1760,1776,1742
1759,1776,1805
1775,1923,1913
1837,1890,1904
1857,1890,1805
1777,1867,1771
1798,1975,1819
1781,1790,1795
1808,1865,1881
1787,1893,1917
1808,1770,1852
1782,1821,1870
1745,1808,1792
1791,1819,1749
1835,1906,1858
1788,1893,1862
1807,1869,1819
1865,1888,1883
1845,1959,1926
1773,1779,1776
1721,1761,1819
1744,1839,1872
1805,1882,1831
1814,1885,1821
1856,1869,1876
1808,1713,1801
1759,1839,1825
1819,1980,1922
1862,1902,1981
1862,1811,1831
1839,1843,1771
1776,1936,1843
1830,1808,1846
1866,1843,1842
1769,1899,1840
1787,1859,1858
1863,1840,1935
1767,1680,1786
1833,1731,1825
1789,1907,2006
1746,1969,1885
1831,1838,1713
1826,1797,1839
1840,1860,2002
1850,1899,1905
1798,1857,1810
1872,1893,1794
1882,1867,1813
1847,1881,1899
1823,1841,1859
1813,1614,1787
1767,1732,1823
1754,1834,1853
1850,1884,1869
1834,1929,1895
1811,1931,1913
1836,1871,1917
1782,1872,1942
1760,1791,1888
1801,1814,1808
1871,1845,1776
1936,1847,1813
1844,1845,1861
1822,1789,1900
1886,1895,1855
1797,1764,1825
1735,1846,1929
1904,1710,1915
1891,1817,1827
1769,1861,1819
1715,1834,1840
1815,1904,1939
1831,1887,1859
1822,1877,1824
1815,1952,1907
1835,1811,1956
1840,1734,1788
1823,1840,1831
1859,1977,1946
1879,1808,1827
1829,1763,1840
1778,1750,1842
1719,1744,1812
1791,1731,1824
1883,1887,1933
1904,1917,1967
1857,1885,1916
1824,1872,1806
1824,1869,1810
1814,1891,1978
1819,1936,1938
1837,1931,1835
1907,1856,1828
1888,1719,1805
1792,1741,1840
1875,1908,1866
1905,1808,1921
1781,1904,1952
1705,1840,1867
1694,1727,1751
1811,1787,1828
1913,1837,1885
1830,1845,1894
1881,1887,1878
1910,1920,1943
1878,1843,1899
1774,1795,1781
1826,1891,1801
1870,1717,1745
1824,1819,1873
1821,1913,1937
1846,1921,1946
1819,1862,1910
1776,1806,1856
1843,1877,1895
1911,1837,1906
1968,1809,1941
1822,1844,1869
1846,1881,1811
1923,1895,1869
1871,1825,1886
1742,1763,1865
1759,1798,1830
1808,1918,1829
1890,1873,1862
1874,1798,1877
1821,1751,1893
1779,1842,1872
1860,1869,1855
1920,1872,1872
1907,1879,1955
1899,1855,1973
1826,1814,1893
1822,1775,1828
1792,1808,1829
1857,1897,1825
1927,1905,1934
1924,1886,1979
1904,1904,1895
1803,1861,1819
1856,1838,1811
1905,1800,1872
1807,1747,1808
1803,1856,1898
1786,1844,1918
1874,1834,1893
1835,1809,1874
1899,1872,1879
1863,1887,1877
1851,1708,1815
1793,1773,1856
1787,1875,1914
1824,1889,1967
1850,1833,1842
1861,1846,1826
1914,1919,1850
1904,1959,1923
1872,1841,2019
1839,1840,1998
1855,1806,1875
1921,1820,1812
1927,1828,1727
1819,1777,1743
1859,1885,2001
1935,2022,2094
1920,1801,1836
1821,1669,1716
1744,1808,1865
1817,1829,1903
1862,1824,1927
1866,1796,1858
1904,1883,1859
1834,1917,1963
1873,1802,1875
1858,1772,1798
1869,1854,1803
1952,1904,1904
1840,1837,1922
1811,1889,1821
1869,1828,1889
1936,1907,1983
1953,1866,1968
1793,1744,1797
1776,1805,1747
1897,1846,1870
1941,1749,1811
1952,1840,1876
1887,1872,1952
1807,1818,1931
1787,1853,1843
1844,1871,1826
1859,1840,1842
1872,1795,1782
1889,1888,1888
1904,1871,1984
1863,1867,1968
1843,1754,1749
1815,1885,1818
1845,1870,1938
1921,1810,1871
1893,1856,1850
1865,1877,1984
1927,1773,1845
1986,1926,1821
1946,1762,1766
1726,1839,1888
1749,1847,1955
1856,1808,1883
1884,1892,1935
1846,1844,1841
1858,1809,1846
1874,1794,1853
1841,1791,1781
1881,1883,1895
1939,1958,2043
2044,1866,1940
1895,1823,1739
1775,1872,1808
1826,1819,1795
1882,1773,1831
1846,1925,1861
1867,1851,1914
1776,1773,1975
1822,1728,1858
1859,1779,1872
1845,1797,1814
1885,1810,1849
2033,1895,2045
1951,1937,1951
1828,1885,1826
1909,1829,1847
1865,1872,1836
1807,1867,1825
1907,1956,1921
1920,1792,1940
1946,1745,1822
1791,1733,1742
1793,1851,1868
1905,1891,1854
1899,1921,1865
1856,1835,1886
1953,1840,1906
1904,1739,1870
1787,1853,1941
1822,1840,1858
1837,1821,1872
1881,1894,2042
1845,1802,1808
1847,1882,1740
1919,1935,1951
1869,1854,1924
1921,1872,1837
1926,1819,1791
1867,1805,1874
1925,1738,1842
2098,1717,1749
1871,1919,1859
1706,1979,1933
1690,1810,1933
1807,1806,1887
1877,1834,1803
1863,1808,1847
1877,1874,2000
1889,1879,1923
1918,1873,1866
1852,1840,1775
1890,1856,1815
1947,1871,1873
1907,1879,1872
1906,1911,2034
1855,1759,1829
1860,1656,1707
1814,1829,1793
1851,1798,1850
1927,2000,1971
1887,1914,1885
1783,1759,1923
1889,1791,1915
1936,1838,1814
1807,1805,1815
1856,1861,1894
1840,1843,1835
1837,1859,1905
1835,1847,1922
1881,1867,1846
1921,1823,1809
1900,1825,1826
1805,1822,1771
1870,1873,1824
1951,1890,1889
1913,1826,1895
1967,1952,1968
1919,1898,1856
1792,1680,1796
1741,1738,1808
1712,1777,1808
1789,1831,1915
1904,1831,1951
1935,1898,1936
1881,1806,1828
1852,1873,1853
1847,1857,1863
1827,1832,1773
1879,1883,1875
1923,1895,1975
2016,1885,1857
1905,1890,1761
1866,1863,1755
1738,1815,1872
1762,1906,1900
1858,1872,1957
1899,1776,1983
1840,1779,1713
1864,1758,1669
1873,1845,1827
1871,1769,1901
1984,1849,1954
1968,1855,1815
1838,1949,1953
1823,1878,2060
1760,1821,1810
1750,1863,1712
1863,1898,1848
1920,1861,1917
1958,1822,1850
1795,1791,1776
1799,1840,1853
1870,1929,2044
1913,1845,1879
1919,1911,1745
1863,1840,1776
2058,1743,1835
1854,1810,1877
1763,1856,1872
1984,1871,1919
1859,1842,1974
1732,1815,1920
1801,1867,1741
1907,1854,1830
1936,1856,1849
1811,1815,1797
1822,1900,1916
1857,1840,1887
1914,1873,1872
1862,1813,1937
1833,1783,1810
1826,1879,1805
1835,1845,1874
1939,1904,1937
1957,1852,1858
1859,1817,1904
1876,1849,1855
1821,1795,1770
1850,1780,1860
1842,1818,1839
1894,1919,1916
1936,1973,1851
1865,1831,1808
1837,1792,1843
1776,1815,1846
1926,1867,1870
1921,1851,1953
1763,1774,1836
1741,1826,1802
1819,1881,1854
1936,1866,1902
1936,1847,1933
1840,1857,1903
1854,1853,1867
1920,1921,1779
1969,1871,1834
1906,1893,1922
1846,1840,1929
1763,1839,1841
1810,1870,1743
1923,1843,1840
1936,1872,1939
1916,1792,1881
1827,1786,1839
1823,1722,1664
1818,1755,1789
1766,1875,1959
1787,1904,2020
1854,1821,1873
1947,1894,1853
1883,1862,1840
1864,1879,1808
1870,1883,1872
1914,1856,1872
1885,1850,1823
1814,1816,1883
1871,1836,1879
1843,1818,1856
1872,1798,1765
1962,1885,1881
1936,1927,1879
1883,1872,1863
1794,1883,1861
1819,1871,1871
1835,1712,1713
1885,1759,1863
1825,1817,1930
1818,1902,1840
1840,1884,1881
1967,1988,2016
1826,1839,1861
1835,1734,1712
1872,1782,1754
1867,1840,1847
1924,1875,1870
1855,1878,1850
1802,1879,1861
1833,1892,1915
1949,1813,1822
1930,1921,1904
1931,2029,1929
1831,1785,1776
1778,1744,1776
1798,1818,1851
1846,1841,1835
1884,1814,1917
1993,1927,2087
1914,1926,1907
1747,1816,1682
1765,1808,1762
2013,1919,1897
1862,1820,1856
1747,1783,1841
1799,1838,1826
1865,1845,1769
1937,1908,1903
1917,1908,2019
1872,1808,1799
1858,1907,1757
1956,1950,1886
1902,1748,1825
1842,1742,1817
1817,1879,1808
1833,1940,1943
1861,1811,1901
1862,1778,1841
1773,1771,1761
1780,1775,1822
1825,1887,1926
1957,1938,1968
1886,1871,1855
1783,1844,1767
1814,1854,1846
1872,1850,1841
2090,1932,1946
1951,1930,1947
1746,1808,1694
1901,1905,1847
1959,1907,2032
1699,1779,1852
1776,1783,1855
1826,1633,1712
1727,1687,1674
1802,1842,1854
1853,1881,1872
1871,1887,1854
1937,1917,1905
2000,1904,1936
1923,1889,1921
1868,1889,1883
1847,1810,1814
1840,1881,1854
1759,1899,1890
1818,1903,1869
1905,1904,1901
1926,1841,1853
1857,1818,1804
1743,1743,1847
1835,1706,1799
1889,1785,1833
1856,1829,1856
1881,1859,1783
1903,1897,1839
1818,1858,1927
1819,1866,1838
1784,1842,1842
1837,1826,1905
1855,1797,1903
1840,1836,1872
1859,1935,1807
1893,1859,1742
1938,2007,1840
1890,1893,1844
1762,1632,1815
1797,1721,1858
1756,1756,1898
1828,1840,1902
1879,1915,1922
1836,1826,1807
1843,1855,1759
1834,1839,1797
1886,1893,1862
2026,1905,1919
1919,1804,1909
1728,1832,1871
1723,1808,1711
1829,1948,1834
1803,1806,1831
1843,1814,1823
1952,1808,1745
1795,1789,1867
1758,1811,2082
1855,1831,1871
1821,1807,1714
1901,1815,1782
1878,1898,1916
1855,1871,1911
1854,1843,1818
1843,1833,1810
1856,1840,1808
1956,1998,1984
1910,1889,1851
1783,1819,1754
1805,1778,1745
1933,1712,1807
1858,1790,1875
1755,1817,1870
1777,1898,1856
1780,1860,1935
1810,1822,1873
1877,1788,1751
1863,1840,1870
1877,1867,1951
1905,1836,1825
1880,1799,1807
1799,1895,1874
1825,1891,1840
1962,1879,1817
1904,1782,1775
1773,1823,1866
1815,1787,1899
1847,1735,1830
1879,1904,1835
1870,1841,1871
1814,1858,1863
1806,1840,1878
1831,1867,1850
1834,1982,1808
1863,1793,1837
1901,1799,1914
1868,1858,1915
1835,1899,1824
1899,1834,1814
1864,1747,1814
1766,1822,1878
1847,1862,1901
2011,1895,1931
1887,1826,1824
1854,1989,1871
1743,1792,1749
1762,1738,1738
1779,1743,1773
1837,1870,1889
1913,1890,1984
1963,1904,2053
1837,1739,1741
1767,1789,1728
1919,1849,1840
1984,1920,1938
1823,1940,1895
1785,1781,1741
1846,1807,1783
1904,1968,1921
1858,1811,1904
1786,1876,1835
1808,1803,1798
1893,1808,1749
1839,1860,1882
1810,1775,1872
1801,1846,1869
1843,1856,1910
1839,1796,1795
1856,1819,1789
1878,1870,1891
1975,1912,1963
1872,1878,1893
1795,1864,1890
1808,1863,1808
1860,1840,1834
1808,1857,1744
1874,1894,1759
2064,1903,1899
1910,1809,1939
1773,1776,1811
1729,1739,1763
1734,1809,1840
1803,1856,1887
2000,1913,1942
1887,1873,1887
1742,1851,1808
1791,1802,1792
1845,1900,1873
1872,1904,1971
1922,1906,1899
1958,1937,1862
1857,1840,1851
1889,1931,1967
2053,1859,1829
1787,1679,1616
1681,1723,1663
1872,1830,1813
1903,1905,1929
1790,1842,1927
1775,1835,1808
1792,1787,1819
1901,1841,1915
1983,1907,1979
1837,1907,1875
1790,1887,1869
1785,1818,1734
1883,1857,1791
1910,1904,1889
1850,1911,1887
1898,1810,1826
1984,1848,1888
2093,1865,1805
1905,1891,1752
1698,1847,1808
1938,1941,2064
1757,1787,1915
