1827,1785,1907
1835,1794,1948
1821,1771,1869
1819,1747,1793
1834,1767,1807
1837,1791,1859
1833,1767,1918
1839,1785,1895
1856,1837,1965
1840,1808,1907
1807,1754,1770
1808,1694,1746
1837,1805,1869
1835,1837,1920
1822,1808,1919
1811,1770,1844
1820,1773,1847
1839,1792,1877
1830,1787,1881
1837,1794,1920
1839,1785,1887
1824,1776,1872
1802,1744,1869
1791,1738,1838
1815,1776,1875
1851,1808,1916
1875,1840,1959
1874,1837,1904
1857,1819,1853
1855,1808,1858
1831,1783,1887
1787,1759,1918
1835,1814,1921
1899,1863,1920
1873,1825,1879
1841,1799,1890
1831,1791,1904
1783,1747,1934
1738,1687,1862
1872,1818,1855
1947,1899,1903
1916,1872,1911
1863,1838,1903
1837,1792,1879
1847,1801,1886
1875,1840,1936
1878,1830,1946
1860,1808,1926
1856,1806,1922
1842,1781,1901
1854,1789,1875
1847,1789,1875
1856,1806,1887
1862,1818,1920
1851,1789,1905
1831,1767,1866
1847,1783,1895
1856,1802,1899
1858,1787,1901
1845,1765,1890
1809,1765,1936
1771,1692,1866
1808,1718,1860
1929,1845,1958
1929,1839,1934
1899,1794,1898
1847,1766,1909
1840,1762,1904
1857,1769,1909
1869,1786,1951
1867,1773,1943
1845,1742,1911
1779,1670,1871
1697,1557,1757
1798,1677,1820
1982,1869,1985
1974,1869,2000
1906,1805,1936
1855,1753,1893
1844,1730,1917
1863,1750,1999
1843,1723,1921
1837,1692,1836
1863,1725,1881
1874,1744,1918
1867,1735,1907
1858,1634,1851
1834,1726,1883
1830,1766,1920
1878,1712,1920
1847,1757,1934
1806,1789,1931
1833,1783,1946
1852,1779,1959
1847,1760,1945
1813,1718,1854
1823,1723,1815
1850,1765,1878
1840,1744,1904
1829,1730,1887
1834,1743,1875
1836,1749,1884
1825,1744,1920
1814,1744,1887
1803,1731,1829
1861,1789,1840
1901,1833,1905
1877,1812,1936
1869,1804,1922
1856,1801,1903
1850,1778,1905
1831,1759,1911
1835,1760,1913
1867,1808,1917
1845,1787,1903
1773,1701,1822
1751,1689,1830
1900,1857,1933
1949,1894,1961
1881,1834,1902
1862,1824,1894
1872,1831,1894
1861,1817,1889
1854,1817,1905
1841,1807,1886
1839,1794,1910
1857,1809,1933
1867,1808,1869
1866,1818,1850
1870,1837,1881
1856,1814,1885
1841,1799,1872
1845,1811,1893
1840,1818,1926
1802,1763,1883
1846,1808,1932
1881,1850,1919
1886,1856,1889
1857,1824,1879
1839,1803,1863
1801,1789,1853
1761,1739,1872
1803,1769,1883
1909,1872,1920
1936,1911,1919
1907,1894,1901
1871,1835,1875
1837,1817,1899
1845,1839,1915
1840,1824,1834
1808,1778,1818
1814,1785,1919
1869,1847,1941
1886,1863,1858
1872,1842,1846
1840,1812,1855
1783,1776,1856
1724,1717,1853
1802,1773,1868
1966,1936,1892
1974,1953,1909
1909,1920,1897
1873,1882,1885
1855,1855,1904
1847,1838,1869
1856,1838,1857
1808,1795,1850
1798,1781,1847
1877,1879,1921
1931,1927,1927
1896,1881,1857
1850,1835,1851
1840,1836,1856
1871,1859,1891
1881,1869,1926
1855,1840,1941
1821,1809,1808
1847,1839,1801
1827,1811,1819
1757,1740,1824
1733,1713,1821
1875,1876,1840
1987,1986,1889
1937,1930,1905
1886,1892,1922
1894,1913,1947
1863,1872,1901
1831,1811,1793
1837,1827,1799
1822,1822,1839
1754,1749,1839
1807,1793,1840
1925,1931,1904
1938,1947,1911
1897,1901,1894
1826,1834,1861
1808,1812,1877
1856,1853,1824
1907,1894,1840
1882,1859,1863
1847,1843,1873
1861,1857,1878
1875,1865,1839
1857,1847,1841
1854,1854,1884
1859,1871,1862
1863,1856,1840
1848,1834,1858
1846,1845,1859
1842,1843,1856
1808,1808,1840
1843,1840,1851
1883,1898,1870
1904,1917,1895
1874,1866,1879
1828,1818,1846
1824,1830,1840
1867,1872,1856
1861,1865,1867
1771,1777,1826
1738,1742,1819
1887,1901,1877
1936,1949,1899
1832,1840,1859
1811,1845,1857
1886,1918,1877
1876,1890,1857
1824,1835,1875
1851,1887,1950
1877,1904,1887
1852,1872,1838
1703,1722,1770
1643,1648,1728
1904,1930,1892
2034,2064,1966
1945,1968,1931
1844,1886,1911
1815,1855,1883
1865,1886,1857
1874,1879,1867
1856,1871,1859
1857,1885,1866
1841,1855,1869
1813,1804,1847
1835,1845,1876
1886,1900,1891
1872,1883,1883
1834,1840,1889
1829,1840,1888
1842,1869,1871
1841,1860,1872
1830,1835,1872
1845,1854,1873
1872,1883,1852
1864,1862,1854
1830,1827,1872
1831,1853,1905
1855,1879,1894
1819,1821,1834
1795,1787,1827
1866,1871,1866
1911,1923,1878
1875,1879,1871
1825,1840,1865
1833,1851,1868
1876,1886,1840
1904,1904,1861
1871,1877,1879
1857,1869,1870
1856,1876,1870
1822,1842,1904
1825,1825,1877
1890,1883,1810
1912,1919,1825
1888,1893,1862
1856,1856,1879
1845,1850,1869
1872,1879,1857
1918,1936,2015
1857,1857,1933
1813,1803,1713
1837,1840,1717
1850,1865,1802
1791,1801,1826
1655,1664,1738
1765,1786,1785
2028,2037,1936
1997,1996,1952
1911,1921,1889
1873,1904,1830
1872,1885,1825
1856,1865,1851
1857,1862,1853
1891,1902,1853
1887,1888,1862
1855,1854,1871
1850,1839,1844
1881,1879,1842
1874,1871,1799
1856,1841,1798
1854,1851,1821
1877,1881,1830
1867,1866,1833
1829,1821,1840
1844,1860,1887
1911,1915,1857
1921,1913,1867
1871,1879,1891
1840,1847,1837
1862,1870,1819
1865,1857,1788
1841,1845,1840
1827,1852,1903
1839,1858,1884
1861,1888,1907
1850,1874,1867
1834,1850,1762
1871,1898,1781
1854,1878,1827
1824,1840,1879
1861,1902,1953
1867,1872,1793
1873,1886,1805
1843,1863,1856
1872,1892,1889
1935,1967,1952
1904,1930,1862
1862,1896,1923
1805,1846,1903
1792,1802,1726
1903,1899,1772
1915,1909,1873
1875,1886,1889
1856,1883,1860
1860,1879,1866
1855,1882,1936
1827,1843,1835
1808,1815,1778
1830,1841,1890
1855,1879,1978
1846,1859,1830
1903,1919,1805
1903,1921,1859
1846,1859,1835
1834,1856,1856
1858,1889,1891
1862,1882,1939
1825,1834,1895
1844,1847,1837
1879,1869,1809
1848,1850,1795
1811,1824,1813
1759,1786,1808
1699,1731,1791
1776,1762,1825
2006,1997,1985
2011,2017,1955
1957,1978,1955
1874,1902,1870
1827,1845,1838
1845,1850,1873
1872,1867,1840
1885,1841,1831
1846,1834,1834
1834,1845,1874
1825,1854,1936
1727,1728,1749
1762,1731,1696
1943,1927,1895
1979,1950,1902
1911,1904,1867
1855,1842,1888
1846,1840,1877
1847,1829,1771
1841,1813,1777
1840,1810,1872
1873,1840,1894
1872,1840,1794
1858,1834,1808
1869,1841,1883
1865,1840,1882
1844,1808,1778
1790,1758,1739
1797,1767,1843
1879,1856,1865
1915,1877,1824
1914,1871,1817
1904,1867,1857
1872,1840,1876
1856,1822,1824
1872,1847,1894
1855,1801,1819
1839,1787,1747
1848,1810,1765
1851,1808,1813
1842,1792,1855
1886,1845,1921
1905,1865,1874
1863,1806,1801
1819,1745,1771
1793,1744,1797
1834,1776,1797
1964,1899,1875
1958,1891,1915
1920,1877,1916
1899,1863,1872
1878,1821,1807
1859,1789,1827
1859,1779,1807
1877,1840,1823
1885,1841,1867
1885,1855,1985
1871,1810,1910
1850,1789,1747
1824,1775,1771
1807,1743,1808
1855,1794,1850
1898,1850,1824
1899,1850,1830
1867,1815,1857
1827,1786,1845
1807,1762,1823
1840,1803,1871
1904,1858,1936
1872,1824,1853
1875,1840,1850
1879,1840,1853
1838,1786,1835
1785,1724,1814
1798,1762,1825
1901,1855,1886
1904,1854,1925
1872,1835,1926
1846,1812,1830
1854,1817,1831
1847,1802,1839
1851,1808,1858
1853,1815,1851
1850,1811,1856
1819,1787,1859
1812,1769,1827
1835,1801,1855
1873,1838,1945
1866,1810,1920
1867,1826,1868
1861,1821,1807
1840,1797,1845
1794,1754,1914
1812,1775,1884
1872,1826,1807
1875,1838,1855
1882,1840,1915
1878,1846,1889
1875,1844,1852
1858,1811,1835
1839,1779,1855
1803,1760,1845
1808,1761,1842
1894,1856,1941
1919,1869,1949
1857,1817,1845
1850,1821,1840
1879,1856,1874
1871,1839,1909
1838,1809,1882
1845,1808,1806
1869,1825,1845
1865,1815,1906
1856,1819,1927
1839,1799,1826
1823,1779,1803
1838,1792,1882
1843,1807,1877
1868,1840,1904
1883,1857,1915
1857,1812,1869
1829,1789,1824
1848,1811,1820
1853,1829,1873
1834,1803,1925
1809,1789,1855
1850,1827,1847
1869,1831,1863
1831,1797,1847
1846,1810,1850
1857,1831,1852
1840,1802,1847
1819,1785,1872
1849,1840,1918
1881,1870,1859
1871,1841,1840
1849,1819,1906
1830,1801,1904
1851,1827,1847
1837,1827,1867
1795,1773,1821
1809,1793,1822
1872,1840,1863
1878,1839,1878
1821,1798,1871
1794,1785,1881
1851,1839,1867
1869,1856,1873
1834,1807,1865
1842,1831,1901
1834,1823,1840
1842,1814,1794
1838,1805,1849
1818,1797,1866
1810,1807,1867
1824,1819,1889
1867,1852,1934
1862,1841,1872
1862,1840,1841
1835,1819,1844
1802,1775,1866
1814,1787,1881
1853,1818,1857
1859,1826,1872
1823,1792,1854
1805,1775,1853
1891,1867,1875
1901,1866,1891
1855,1821,1905
1834,1815,1886
1841,1832,1859
1831,1807,1811
1821,1799,1872
1827,1814,1909
1831,1830,1851
1825,1808,1808
1803,1776,1810
1809,1779,1843
1857,1839,1869
1868,1857,1904
1825,1811,1885
1807,1805,1869
1831,1818,1840
1833,1813,1830
1822,1805,1843
1833,1831,1917
1847,1839,1876
1842,1821,1840
1849,1819,1872
1841,1825,1888
1827,1820,1827
1821,1818,1853
1829,1814,1876
1851,1842,1899
1867,1866,1884
1841,1840,1855
1791,1778,1869
1773,1759,1889
1836,1818,1808
1872,1866,1828
1840,1837,1868
1818,1822,1853
1846,1849,1856
1843,1851,1911
1833,1829,1950
1807,1799,1846
1808,1810,1761
1835,1828,1795
1831,1821,1864
1814,1818,1869
1846,1858,1860
1873,1890,1920
1850,1858,1970
1824,1827,1936
1811,1822,1808
1810,1821,1818
1815,1809,1818
1842,1833,1833
1837,1853,1834
1806,1804,1834
1812,1809,1863
1830,1840,1876
1867,1878,1870
1870,1885,1894
1859,1865,1962
1840,1845,1907
1841,1831,1809
1831,1818,1811
1808,1786,1853
1818,1807,1861
1845,1840,1847
1834,1839,1855
1824,1826,1829
1835,1839,1853
1833,1847,1873
1816,1815,1851
1808,1802,1855
1841,1840,1890
1872,1885,1901
1861,1851,1841
1816,1810,1822
1810,1820,1839
1839,1854,1870
1836,1851,1895
1814,1825,1920
1798,1806,1874
1815,1831,1808
1849,1859,1817
1847,1863,1887
1825,1840,1903
1825,1840,1862
1856,1875,1890
1842,1844,1873
1829,1823,1819
1824,1833,1816
1822,1827,1856
1823,1805,1866
1837,1835,1870
1867,1883,1875
1846,1856,1870
1779,1781,1840
1794,1794,1840
1853,1862,1870
1872,1878,1872
1856,1851,1898
1799,1800,1827
1798,1810,1817
1840,1845,1840
1850,1846,1856
1824,1834,1883
1826,1843,1867
1842,1854,1842
1807,1809,1869
1766,1790,1820
1833,1858,1843
1874,1878,1872
1851,1847,1842
1817,1819,1827
1839,1854,1839
1860,1863,1879
1852,1843,1874
1843,1838,1856
1840,1851,1831
1858,1866,1898
1835,1823,1898
1813,1806,1823
1808,1818,1759
1814,1814,1778
1791,1795,1829
1799,1818,1882
1831,1843,1850
1873,1890,1901
1882,1877,1901
1849,1856,1857
1847,1872,1853
1818,1839,1829
1796,1799,1823
1786,1782,1831
1807,1805,1808
1853,1859,1855
1856,1870,1910
1826,1834,1808
1841,1851,1806
1840,1853,1841
1821,1822,1846
1814,1828,1857
1840,1843,1871
1840,1828,1841
1807,1783,1802
1795,1805,1840
1818,1833,1833
1858,1885,1913
1859,1865,1891
1842,1840,1813
1841,1851,1828
1808,1803,1803
1791,1773,1827
1866,1856,1883
1875,1875,1833
1847,1849,1819
1814,1811,1842
1802,1814,1854
1807,1811,1823
1834,1840,1851
1843,1845,1862
1865,1879,1890
1872,1874,1867
1842,1835,1830
1792,1776,1776
1809,1808,1819
1860,1866,1843
1845,1845,1854
1809,1806,1856
1807,1805,1851
1839,1831,1809
1815,1808,1789
1797,1789,1831
1845,1843,1870
1872,1873,1886
1840,1840,1813
1824,1811,1802
1839,1841,1848
1869,1886,1852
1854,1871,1844
1833,1826,1843
1827,1821,1859
1837,1840,1827
1833,1839,1807
1838,1838,1866
1862,1859,1914
1856,1862,1856
1818,1812,1761
1776,1770,1771
1797,1783,1819
1867,1857,1869
1888,1893,1909
1836,1849,1878
1805,1811,1803
1839,1846,1823
1839,1838,1819
1827,1823,1842
1822,1817,1840
1842,1842,1840
1840,1820,1853
1787,1761,1833
1808,1793,1825
1867,1868,1836
1866,1872,1851
1835,1840,1872
1804,1808,1831
1823,1821,1809
1851,1846,1838
1835,1825,1851
1808,1814,1872
1835,1837,1840
1852,1844,1803
1833,1811,1808
1778,1772,1811
1811,1818,1835
1895,1904,1909
1863,1857,1858
1829,1835,1836
1840,1868,1822
1840,1850,1799
1808,1808,1819
1811,1818,1843
1853,1867,1840
1862,1856,1845
1828,1826,1872
1808,1820,1878
1837,1841,1814
1840,1834,1778
1822,1810,1827
1829,1833,1869
1845,1857,1856
1852,1861,1883
1809,1801,1840
1807,1791,1791
1853,1850,1830
1859,1862,1856
1840,1825,1877
1794,1775,1810
1825,1815,1791
1883,1890,1840
1843,1845,1845
1811,1812,1839
1833,1842,1819
1850,1853,1835
1843,1835,1874
1872,1867,1889
1863,1872,1866
1840,1842,1805
1819,1810,1818
1810,1809,1815
1830,1834,1826
1887,1885,1872
1870,1847,1850
1827,1810,1847
1837,1835,1819
1872,1861,1858
1837,1819,1856
1823,1798,1829
1853,1847,1818
1860,1870,1839
1840,1842,1872
1819,1824,1846
1811,1819,1815
1821,1808,1799
1842,1828,1854
1840,1833,1872
1845,1855,1872
1837,1840,1838
1855,1835,1842
1856,1842,1852
1846,1843,1801
1839,1835,1808
1815,1798,1840
1814,1808,1859
1843,1850,1850
1855,1861,1872
1847,1850,1905
1845,1839,1871
1847,1841,1818
1826,1815,1769
1808,1801,1806
1828,1835,1853
1872,1886,1866
1873,1869,1852
1835,1825,1853
1827,1826,1863
1808,1807,1789
1842,1840,1817
1857,1841,1872
1845,1838,1870
1853,1847,1840
1856,1843,1840
1824,1808,1872
1811,1797,1821
1850,1842,1825
1869,1863,1843
1841,1809,1841
1812,1795,1847
1833,1819,1814
1841,1834,1835
1839,1826,1881
1854,1842,1853
1866,1866,1834
1863,1857,1845
1845,1836,1905
1817,1808,1822
1840,1834,1808
1854,1841,1824
1827,1810,1853
1821,1818,1890
1859,1861,1843
1866,1872,1829
1824,1809,1818
1783,1776,1809
1819,1822,1819
1887,1885,1911
1904,1891,1936
1843,1826,1840
1817,1808,1770
1837,1820,1814
1850,1837,1851
1850,1842,1863
1857,1855,1862
1840,1837,1852
1808,1801,1865
1808,1802,1823
1854,1847,1811
1860,1852,1845
1831,1811,1856
1825,1807,1841
1842,1845,1830
1815,1811,1850
1791,1776,1846
1841,1840,1895
1883,1882,1903
1846,1851,1847
1797,1785,1766
1814,1797,1781
1840,1835,1835
1841,1825,1845
1840,1823,1872
1853,1840,1873
1874,1877,1871
1885,1877,1909
1827,1815,1840
1818,1807,1819
1852,1845,1810
1856,1850,1826
1821,1806,1846
1811,1802,1861
1861,1857,1856
1864,1850,1843
1830,1811,1837
1838,1826,1842
1859,1857,1863
1862,1869,1903
1838,1837,1872
1819,1807,1803
1840,1829,1811
1841,1827,1867
1806,1781,1859
1806,1783,1823
1863,1849,1818
1883,1872,1841
1858,1850,1897
1817,1814,1855
1824,1826,1840
1856,1841,1835
1861,1842,1861
1841,1825,1840
1840,1831,1808
1839,1834,1815
1815,1808,1853
1856,1849,1874
1873,1856,1840
1841,1834,1829
1860,1841,1914
1862,1840,1849
1864,1852,1826
1852,1840,1824
1808,1788,1835
1806,1787,1815
1854,1844,1849
1881,1872,1857
1840,1833,1857
1823,1813,1858
1861,1851,1843
1861,1840,1837
1799,1781,1838
1806,1777,1827
1871,1871,1840
1874,1872,1842
1834,1811,1875
1801,1789,1847
1840,1830,1815
1874,1858,1831
1850,1817,1855
1815,1793,1847
1854,1845,1872
1862,1843,1851
1840,1827,1850
1821,1814,1841
1822,1810,1797
1840,1823,1815
1840,1812,1851
1834,1821,1872
1875,1873,1862
1861,1857,1840
1827,1810,1843
1813,1808,1840
1842,1853,1866
1842,1840,1863
1835,1808,1830
1839,1806,1811
1848,1838,1803
1841,1827,1805
1803,1783,1831
1799,1797,1840
1842,1840,1866
1855,1851,1866
1838,1813,1856
1823,1808,1827
1830,1825,1822
1841,1847,1853
1857,1841,1902
1846,1827,1877
1840,1839,1832
1856,1845,1797
1856,1829,1831
1830,1813,1851
1840,1839,1867
1845,1831,1861
1820,1803,1853
1813,1792,1853
1829,1814,1812
1852,1840,1823
1844,1819,1872
1839,1808,1871
1838,1815,1817
1867,1845,1840
1855,1824,1856
1835,1821,1857
1837,1823,1825
1840,1821,1818
1822,1790,1851
1832,1828,1874
1871,1868,1853
1873,1870,1872
1837,1826,1872
1798,1791,1855
1829,1821,1808
1855,1850,1840
1824,1801,1815
1811,1791,1818
1845,1825,1837
1878,1869,1889
1869,1854,1893
1853,1831,1855
1854,1852,1847
1847,1839,1871
1811,1785,1803
1811,1778,1809
1841,1831,1842
1856,1840,1853
1852,1829,1861
1831,1813,1851
1830,1824,1824
1843,1838,1811
1842,1834,1840
1816,1811,1850
1833,1840,1855
1859,1856,1837
1842,1825,1858
1833,1824,1862
1849,1859,1854
1861,1871,1856
1803,1795,1825
1792,1787,1835
1867,1859,1861
1883,1881,1887
1840,1838,1888
1838,1821,1842
1845,1847,1819
1859,1863,1888
1830,1823,1872
1808,1802,1808
1823,1815,1791
1866,1859,1869
1826,1813,1849
1807,1804,1827
1843,1851,1853
1856,1847,1834
1840,1833,1889
1841,1821,1842
1853,1850,1817
1847,1846,1851
1818,1808,1872
1818,1792,1856
1837,1823,1815
1865,1841,1846
1839,1811,1853
1829,1815,1840
1855,1856,1855
1866,1858,1865
1839,1821,1835
1841,1830,1843
1863,1867,1862
1843,1851,1862
1826,1815,1842
1811,1793,1839
1825,1830,1838
1840,1828,1808
1818,1798,1818
1840,1834,1865
1872,1870,1873
1855,1840,1815
1837,1819,1829
1837,1831,1853
1855,1851,1856
1837,1823,1837
1798,1792,1823
1830,1825,1870
1856,1863,1860
1870,1873,1860
1829,1835,1869
1809,1810,1839
1840,1840,1805
1845,1840,1840
1839,1826,1858
1836,1827,1870
1838,1839,1869
1835,1840,1827
1814,1810,1842
1830,1825,1861
1849,1861,1858
1876,1882,1861
1845,1830,1837
1815,1814,1848
1826,1829,1843
1843,1840,1840
1840,1835,1853
1833,1826,1846
1842,1850,1857
1847,1864,1872
1829,1818,1858
1840,1840,1877
1839,1851,1833
1814,1814,1795
1814,1810,1836
1834,1829,1858
1858,1856,1859
1846,1853,1859
1807,1795,1815
1830,1829,1851
1872,1883,1846
1859,1872,1833
1825,1824,1850
1797,1807,1857
1825,1823,1825
1856,1849,1840
1844,1836,1869
1824,1820,1861
1840,1848,1851
1849,1858,1877
1841,1843,1906
1838,1825,1842
1862,1861,1840
1856,1849,1819
1822,1809,1838
1813,1810,1843
1824,1821,1836
1840,1844,1855
1814,1805,1857
1845,1840,1872
1874,1888,1879
1863,1865,1851
1833,1829,1834
1814,1810,1841
1832,1833,1847
1830,1830,1872
1837,1834,1899
1840,1837,1872
1840,1830,1822
1818,1814,1840
1840,1823,1863
1856,1831,1867
1858,1851,1837
1867,1858,1845
1831,1811,1846
1807,1795,1831
1823,1825,1817
1843,1841,1854
1808,1809,1873
1794,1795,1853
1886,1890,1856
1905,1901,1867
1867,1863,1903
1821,1826,1845
1815,1819,1792
1830,1833,1808
1837,1809,1839
1827,1810,1866
1838,1834,1861
1837,1826,1829
1843,1829,1851
1837,1834,1845
1842,1859,1867
1865,1869,1858
1849,1843,1867
1823,1810,1814
1839,1839,1826
1845,1853,1857
1816,1809,1840
1809,1795,1823
1841,1839,1822
1872,1861,1872
1840,1840,1904
1824,1807,1840
1841,1850,1826
1855,1856,1872
1808,1792,1822
1807,1792,1801
1840,1829,1802
1846,1829,1840
1851,1834,1872
1838,1833,1854
1865,1860,1862
1871,1861,1898
1822,1788,1840
1826,1803,1811
1854,1841,1840
1869,1852,1872
1851,1823,1868
1819,1806,1826
1838,1830,1808
1856,1855,1851
1841,1825,1860
1824,1824,1877
1840,1843,1845
1835,1829,1808
1826,1804,1808
1829,1825,1871
1855,1857,1905
1845,1828,1821
1813,1797,1807
1814,1808,1851
1847,1842,1869
1868,1858,1862
1843,1821,1836
1829,1819,1842
1850,1850,1825
1841,1831,1830
1827,1833,1849
1855,1840,1865
1878,1875,1867
1857,1846,1836
1808,1791,1802
1801,1790,1815
1851,1844,1863
1870,1855,1855
1834,1808,1830
1809,1807,1840
1827,1840,1858
1851,1850,1824
1831,1815,1834
1835,1819,1872
1872,1875,1882
1862,1854,1856
1822,1808,1848
1807,1789,1808
1840,1827,1827
1856,1856,1875
1822,1817,1886
1801,1793,1850
1840,1846,1841
1867,1855,1855
1831,1818,1853
1830,1820,1840
1851,1861,1872
1849,1844,1861
1808,1794,1827
1810,1808,1830
1847,1859,1850
1872,1867,1879
1826,1811,1846
1783,1778,1857
1791,1795,1833
1876,1872,1893
1904,1879,1885
1855,1842,1840
1835,1843,1809
1833,1840,1844
1813,1803,1862
1815,1810,1845
1854,1861,1859
1851,1851,1849
1829,1833,1849
1813,1829,1860
1840,1849,1916
1860,1846,1833
1867,1845,1834
1843,1824,1856
1831,1831,1835
1827,1836,1840
1807,1790,1830
1813,1806,1823
1845,1841,1829
1845,1847,1853
1807,1803,1886
1796,1777,1835
1850,1839,1811
1894,1886,1870
1867,1859,1904
1834,1838,1855
1830,1843,1827
1818,1823,1811
1808,1792,1813
1808,1806,1862
1808,1808,1820
1861,1856,1829
1861,1859,1875
1855,1869,1925
1854,1861,1889
1829,1831,1776
1807,1799,1814
1809,1802,1840
1834,1834,1834
1840,1840,1846
1824,1825,1867
1811,1794,1846
1798,1789,1809
1834,1837,1861
1846,1846,1887
1837,1827,1859
1842,1839,1829
1852,1840,1846
1842,1819,1867
1826,1809,1842
1826,1825,1837
1831,1835,1841
1809,1803,1855
1825,1819,1888
1846,1834,1831
1840,1814,1798
1808,1796,1846
1838,1835,1882
1856,1862,1847
1844,1843,1809
1823,1806,1842
1808,1797,1865
1843,1840,1857
1865,1845,1822
1827,1824,1851
1829,1831,1887
1829,1834,1843
1847,1840,1839
1839,1815,1818
1829,1822,1841
1845,1855,1858
1856,1862,1851
1824,1808,1859
1825,1808,1897
1854,1858,1843
1833,1831,1799
1807,1791,1812
1834,1826,1877
1871,1872,1838
1853,1857,1811
1835,1840,1840
1821,1837,1870
1844,1858,1889
1861,1862,1861
1839,1811,1831
1817,1807,1830
1824,1829,1809
1835,1831,1840
1818,1810,1840
1833,1822,1841
1863,1853,1843
1861,1858,1865
1830,1824,1846
1798,1803,1844
1856,1877,1927
1873,1872,1856
1823,1808,1780
1811,1807,1792
1843,1850,1839
1843,1837,1837
1831,1807,1844
1825,1808,1842
1838,1840,1847
1839,1846,1866
1824,1824,1885
1843,1840,1842
1875,1891,1840
1877,1888,1862
1817,1809,1821
1798,1791,1807
1827,1840,1820
1840,1843,1833
1840,1837,1857
1830,1819,1844
1827,1839,1840
1840,1844,1856
1856,1842,1873
1849,1837,1856
1851,1854,1834
1840,1841,1833
1835,1831,1849
1837,1816,1853
1822,1826,1825
1832,1833,1808
1839,1827,1818
1838,1838,1840
1854,1866,1871
1856,1847,1857
1833,1820,1843
1825,1808,1856
1865,1867,1875
1842,1829,1817
1808,1789,1801
1839,1835,1859
1872,1871,1857
1861,1848,1817
1843,1839,1845
1829,1823,1840
1831,1840,1827
1830,1830,1825
1840,1837,1875
1840,1835,1904
1835,1840,1865
1853,1851,1796
1847,1831,1814
1827,1813,1850
1840,1840,1854
1856,1870,1872
1840,1841,1866
1819,1814,1837
1850,1846,1819
1850,1860,1827
1814,1810,1856
1818,1829,1927
1841,1846,1829
1824,1827,1765
1787,1780,1791
1839,1844,1891
1883,1882,1874
1858,1851,1837
1836,1829,1855
1825,1828,1890
1818,1820,1834
1840,1830,1814
1840,1825,1819
1843,1831,1825
1847,1846,1842
1850,1846,1841
1856,1847,1873
1848,1830,1866
1856,1854,1854
1865,1861,1829
1822,1809,1834
1806,1798,1850
1826,1820,1833
1833,1831,1841
1834,1823,1862
1827,1812,1839
1855,1846,1827
1875,1872,1886
1850,1856,1905
1823,1811,1821
1824,1823,1783
1840,1839,1822
1823,1805,1856
1824,1812,1889
1840,1843,1855
1853,1856,1852
1834,1831,1851
1839,1834,1851
1855,1849,1824
1845,1844,1808
1813,1811,1840
1809,1812,1857
1827,1821,1828
1852,1844,1859
1870,1858,1865
1853,1841,1845
1834,1842,1840
1833,1841,1853
1847,1851,1888
1834,1839,1871
1859,1857,1851
1831,1834,1811
1805,1795,1832
1799,1787,1831
1840,1833,1830
1885,1883,1885
1854,1855,1908
1838,1827,1872
1831,1829,1808
1831,1831,1788
1837,1817,1845
1840,1828,1879
1851,1840,1858
1840,1825,1826
1840,1818,1830
1831,1827,1853
1845,1856,1861
1843,1846,1869
1825,1799,1863
1840,1825,1858
1855,1854,1837
1844,1834,1830
1810,1801,1859
1809,1797,1872
1857,1835,1840
1882,1863,1845
1868,1855,1886
1838,1837,1855
1824,1831,1817
1841,1826,1887
1831,1815,1866
1808,1794,1808
1824,1822,1808
1840,1837,1830
1822,1810,1883
1843,1837,1887
1891,1899,1887
1869,1859,1849
1811,1791,1808
1824,1801,1831
1843,1829,1827
1829,1818,1856
1817,1804,1869
1823,1813,1862
1840,1843,1856
1856,1855,1863
1851,1836,1856
1847,1832,1848
1862,1860,1847
1849,1847,1846
1823,1806,1843
1812,1795,1850
1856,1838,1856
1872,1856,1865
1834,1804,1839
1799,1781,1805
1835,1827,1846
1892,1886,1891
1877,1867,1878
1840,1840,1867
1827,1825,1854
1810,1797,1793
1840,1813,1840
1845,1834,1870
1872,1861,1856
1859,1860,1854
1824,1821,1838
1805,1805,1856
1847,1856,1872
1873,1872,1849
1846,1840,1831
1815,1812,1826
1823,1829,1859
1840,1833,1871
1842,1823,1866
1847,1841,1879
1831,1838,1830
1808,1810,1788
1838,1819,1834
1854,1840,1861
1872,1866,1878
1870,1856,1865
1840,1824,1853
1821,1815,1837
1819,1811,1834
1845,1839,1847
1867,1853,1886
1860,1838,1872
1849,1831,1830
1831,1808,1811
1850,1831,1877
1867,1847,1905
1872,1865,1854
1858,1843,1840
1840,1839,1865
1810,1802,1849
1815,1800,1803
1863,1848,1821
1855,1829,1861
1841,1827,1901
1845,1846,1843
1843,1836,1823
1829,1810,1845
1830,1815,1869
1851,1836,1872
1840,1830,1850
1840,1825,1849
1867,1851,1904
1859,1847,1885
1850,1840,1825
1840,1815,1827
1810,1792,1822
1860,1849,1854
1879,1865,1872
1833,1808,1841
1827,1811,1866
1840,1830,1861
1842,1827,1855
1826,1810,1872
1824,1808,1843
1865,1872,1875
1875,1870,1865
1847,1826,1817
1831,1810,1824
1854,1840,1846
1850,1834,1865
1835,1807,1871
1840,1821,1859
1860,1861,1863
1862,1857,1865
1840,1825,1895
1808,1787,1876
1845,1838,1870
1857,1843,1824
1862,1841,1845
1841,1829,1857
1840,1839,1862
1834,1813,1834
1830,1801,1836
1818,1793,1851
1835,1827,1882
1859,1862,1883
1840,1840,1840
1807,1787,1817
1835,1822,1840
1843,1840,1829
1824,1808,1833
1840,1841,1867
1867,1873,1891
1866,1856,1854
1856,1847,1871
1854,1835,1869
1856,1857,1841
1851,1841,1829
1805,1799,1805
1780,1778,1825
1819,1818,1840
1859,1846,1861
1835,1817,1870
1822,1815,1848
1846,1847,1830
1869,1871,1867
1856,1842,1899
1842,1837,1869
1868,1877,1878
1863,1863,1845
1814,1794,1797
1810,1793,1822
1838,1822,1826
1851,1834,1830
1840,1818,1870
1806,1797,1831
1794,1796,1786
1861,1858,1839
1878,1872,1892
1840,1847,1869
1849,1869,1879
1861,1877,1893
1831,1814,1814
1819,1808,1806
1838,1838,1839
1840,1840,1829
1808,1803,1826
1791,1790,1850
1798,1801,1836
1829,1831,1824
1874,1868,1850
1872,1869,1869
1844,1859,1872
1818,1827,1854
1851,1839,1861
1857,1837,1808
