1841,1827,1936
1835,1807,1911
1829,1832,1907
1822,1810,1921
1826,1818,1910
1827,1806,1904
1824,1802,1914
1838,1784,1872
1861,1714,1856
1826,1823,1920
1799,1821,1954
1815,1813,1942
1847,1837,1951
1846,1811,1920
1840,1813,1909
1833,1841,1933
1843,1845,1942
1833,1806,1927
1819,1793,1892
1839,1808,1877
1866,1784,1885
1818,1809,1920
1788,1839,1934
1802,1834,1930
1834,1804,1926
1834,1782,1905
1839,1738,1880
1821,1813,1914
1833,1840,1926
1832,1844,1926
1825,1843,1911
1834,1793,1888
1853,1762,1909
1839,1802,1925
1829,1779,1890
1825,1824,1914
1827,1865,1932
1840,1874,1917
1826,1779,1927
1824,1763,1903
1838,1815,1918
1835,1829,1909
1826,1815,1907
1837,1786,1903
1844,1760,1845
1828,1788,1895
1805,1836,1937
1822,1833,1945
1853,1802,1909
1846,1834,1905
1823,1843,1924
1815,1840,1936
1839,1859,1918
1840,1846,1894
1820,1823,1889
1825,1789,1904
1843,1794,1899
1851,1781,1891
1833,1827,1915
1827,1813,1932
1846,1810,1868
1830,1827,1891
1822,1833,1935
1815,1813,1927
1840,1832,1920
1839,1834,1895
1827,1810,1894
1837,1813,1903
1844,1859,1904
1838,1841,1920
1831,1790,1881
1841,1746,1855
1840,1887,1916
1826,1839,1901
1823,1812,1887
1830,1824,1890
1834,1815,1915
1857,1805,1876
1836,1838,1878
1839,1771,1857
1823,1810,1899
1826,1831,1878
1829,1858,1874
1809,1808,1887
1839,1809,1886
1845,1869,1898
1825,1840,1898
1827,1803,1921
1839,1814,1889
1853,1821,1867
1833,1867,1885
1829,1765,1855
1838,1808,1867
1834,1849,1877
1821,1843,1883
1829,1857,1885
1858,1816,1866
1849,1808,1853
1808,1841,1897
1824,1810,1846
1853,1809,1863
1830,1850,1895
1814,1847,1887
1822,1831,1872
1831,1859,1872
1834,1847,1899
1827,1809,1859
1827,1818,1861
1842,1854,1875
1841,1839,1869
1829,1802,1856
1855,1745,1803
1850,1885,1863
1826,1866,1896
1813,1859,1853
1822,1801,1841
1829,1825,1869
1843,1872,1871
1830,1814,1871
1827,1797,1840
1842,1835,1851
1834,1847,1850
1835,1808,1835
1829,1808,1866
1840,1831,1846
1865,1777,1799
1834,1841,1866
1824,1844,1913
1845,1856,1863
1831,1849,1813
1827,1840,1793
1835,1854,1853
1840,1840,1867
1834,1820,1866
1835,1817,1850
1831,1815,1845
1846,1854,1856
1855,1833,1843
1839,1823,1841
1826,1818,1845
1838,1830,1856
1850,1803,1815
1836,1799,1843
1834,1834,1867
1846,1863,1873
1847,1819,1839
1860,1787,1825
1839,1838,1834
1819,1905,1875
1829,1891,1866
1821,1846,1840
1813,1780,1841
1839,1808,1857
1850,1813,1855
1837,1773,1792
1822,1808,1827
1831,1819,1857
1841,1829,1855
1837,1783,1831
1840,1808,1842
1856,1853,1859
1859,1827,1845
1840,1788,1825
1833,1814,1809
1842,1861,1829
1845,1831,1811
1829,1839,1840
1819,1819,1845
1835,1823,1845
1838,1811,1838
1838,1801,1819
1847,1780,1808
1846,1845,1858
1841,1867,1875
1834,1872,1856
1836,1825,1833
1849,1798,1827
1840,1797,1849
1840,1732,1831
1831,1791,1808
1829,1882,1841
1836,1872,1857
1829,1835,1851
1834,1826,1842
1851,1837,1822
1869,1826,1782
1815,1801,1851
1808,1798,1858
1839,1790,1843
1842,1840,1867
1831,1840,1862
1831,1838,1840
1840,1841,1838
1847,1823,1836
1840,1841,1861
1839,1837,1811
1850,1746,1778
1830,1829,1840
1822,1841,1867
1830,1832,1846
1849,1851,1838
1877,1791,1829
1850,1810,1794
1793,1797,1829
1814,1819,1854
1840,1827,1846
1826,1810,1835
1827,1810,1831
1846,1831,1840
1841,1840,1863
1837,1823,1840
1826,1829,1851
1865,1753,1789
1858,1786,1803
1837,1882,1858
1829,1854,1865
1833,1819,1850
1844,1789,1812
1847,1782,1829
1829,1819,1845
1840,1898,1846
1831,1814,1819
1814,1786,1839
1826,1799,1839
1851,1825,1840
1855,1827,1850
1838,1818,1831
1839,1830,1853
1859,1839,1845
1854,1802,1833
1842,1783,1813
1840,1850,1835
1856,1840,1835
1849,1839,1842
1823,1833,1847
1826,1831,1861
1858,1834,1839
1875,1824,1817
1831,1840,1853
1822,1825,1858
1833,1818,1839
1840,1819,1851
1840,1826,1869
1837,1786,1840
1861,1835,1815
1862,1845,1822
1840,1851,1840
1841,1835,1839
1871,1810,1821
1862,1853,1849
1847,1874,1846
1850,1863,1846
1867,1840,1855
1855,1827,1843
1865,1822,1822
1840,1803,1815
1851,1825,1830
1872,1781,1803
1847,1797,1802
1836,1808,1855
1865,1819,1851
1855,1872,1877
1845,1867,1888
1841,1854,1842
1855,1829,1823
1867,1829,1840
1859,1825,1847
1852,1852,1840
1863,1847,1830
1869,1798,1822
1840,1817,1840
1841,1820,1824
1856,1831,1821
1867,1836,1840
1856,1806,1817
1857,1765,1782
1842,1905,1888
1845,1894,1898
1840,1837,1867
1839,1808,1846
1861,1835,1835
1866,1815,1818
1844,1834,1843
1842,1828,1853
1872,1837,1846
1899,1799,1824
1845,1786,1790
1823,1872,1867
1867,1834,1881
1863,1897,1901
1839,1833,1825
1840,1834,1810
1866,1835,1856
1865,1831,1854
1849,1818,1851
1852,1835,1830
1866,1853,1837
1872,1863,1840
1858,1834,1830
1869,1776,1815
1876,1824,1872
1875,1907,1876
1824,1874,1855
1838,1795,1807
1863,1813,1815
1856,1855,1856
1840,1819,1854
1837,1837,1838
1857,1811,1809
1866,1793,1824
1841,1843,1875
1849,1894,1903
1857,1867,1873
1873,1825,1839
1855,1855,1879
1844,1853,1856
1855,1823,1821
1856,1840,1834
1850,1840,1840
1854,1779,1812
1861,1845,1841
1856,1863,1831
1833,1796,1808
1840,1808,1839
1857,1840,1867
1856,1878,1883
1855,1835,1857
1850,1840,1862
1848,1847,1855
1867,1889,1851
1846,1856,1853
1831,1825,1851
1854,1835,1842
1871,1796,1803
1856,1779,1793
1838,1872,1865
1847,1904,1875
1864,1869,1855
1851,1822,1869
1831,1786,1840
1855,1856,1856
1853,1840,1847
1842,1821,1851
1849,1835,1870
1856,1872,1847
1857,1869,1830
1850,1868,1843
1860,1791,1822
1856,1808,1829
1845,1886,1873
1840,1867,1872
1855,1871,1850
1872,1883,1843
1861,1858,1851
1840,1771,1825
1845,1791,1849
1856,1854,1873
1857,1867,1857
1847,1859,1841
1866,1818,1847
1856,1866,1867
1854,1872,1857
1848,1803,1820
1863,1824,1814
1859,1883,1843
1850,1904,1875
1828,1859,1855
1843,1839,1841
1887,1878,1851
1863,1886,1855
1837,1823,1851
1831,1778,1834
1850,1801,1828
1865,1787,1792
1840,1791,1843
1822,1878,1872
1840,1923,1875
1861,1899,1862
1849,1831,1855
1845,1838,1856
1853,1857,1841
1859,1859,1846
1846,1840,1821
1825,1794,1838
1837,1834,1858
1850,1811,1840
1862,1776,1819
1844,1830,1870
1837,1856,1872
1845,1921,1869
1837,1867,1859
1840,1853,1855
1862,1891,1858
1863,1838,1837
1840,1808,1832
1831,1843,1841
1850,1856,1855
1863,1915,1824
1841,1810,1808
1829,1821,1842
1856,1811,1840
1866,1799,1855
1831,1850,1856
1829,1891,1850
1851,1907,1845
1872,1877,1829
1849,1844,1853
1840,1819,1849
1858,1821,1813
1849,1843,1843
1835,1809,1836
1843,1803,1845
1830,1883,1867
1840,1886,1855
1840,1862,1862
1856,1860,1856
1858,1850,1835
1861,1857,1839
1856,1886,1843
1841,1814,1821
1867,1838,1813
1861,1888,1842
1843,1793,1825
1839,1791,1821
1847,1840,1859
1856,1887,1840
1820,1886,1875
1812,1865,1855
1845,1822,1841
1865,1834,1840
1839,1838,1830
1840,1839,1839
1842,1860,1846
1856,1879,1846
1847,1793,1797
1840,1837,1841
1847,1838,1821
1839,1841,1854
1825,1840,1869
1823,1841,1840
1855,1826,1854
1847,1838,1840
1815,1835,1831
1824,1839,1834
1840,1873,1863
1847,1823,1835
1850,1778,1777
1835,1845,1837
1817,1885,1858
1819,1862,1857
1825,1845,1860
1841,1815,1840
1871,1799,1808
1852,1898,1835
1813,1877,1872
1812,1855,1847
1845,1840,1845
1853,1830,1840
1840,1830,1831
1830,1845,1834
1841,1857,1838
1849,1838,1829
1845,1840,1826
1837,1812,1810
1866,1814,1807
1855,1898,1882
1835,1857,1867
1825,1903,1826
1842,1855,1830
1850,1835,1851
1817,1854,1837
1827,1813,1811
1840,1830,1847
1844,1840,1857
1824,1813,1841
1820,1814,1838
1843,1841,1840
1854,1824,1810
1855,1761,1817
1823,1857,1858
1822,1905,1866
1838,1886,1849
1831,1858,1843
1840,1854,1835
1867,1883,1846
1852,1833,1847
1808,1843,1841
1815,1826,1825
1841,1835,1843
1865,1839,1839
1840,1803,1776
1813,1805,1825
1839,1834,1869
1861,1775,1830
1815,1877,1847
1805,1877,1847
1840,1865,1850
1865,1838,1828
1847,1873,1841
1820,1841,1858
1825,1826,1848
1840,1827,1833
1847,1799,1795
1839,1849,1840
1861,1834,1822
1862,1785,1825
1809,1841,1855
1813,1855,1855
1854,1899,1849
1841,1857,1828
1820,1848,1840
1828,1843,1839
1842,1839,1809
1839,1830,1830
1825,1836,1855
1830,1803,1839
1855,1845,1859
1872,1862,1835
1845,1776,1791
1823,1822,1826
1823,1870,1859
1829,1872,1856
1822,1847,1828
1839,1856,1807
1852,1872,1826
1843,1840,1835
1840,1798,1843
1814,1840,1842
1829,1868,1840
1850,1836,1814
1839,1828,1811
1842,1853,1829
1863,1820,1843
1878,1787,1794
1811,1839,1823
1790,1840,1867
1822,1843,1868
1847,1840,1831
1840,1814,1819
1844,1813,1801
1845,1856,1848
1836,1840,1847
1840,1795,1827
1839,1807,1830
1859,1829,1823
1822,1815,1807
1794,1853,1841
1815,1902,1805
1819,1794,1830
1814,1785,1845
1820,1776,1827
1820,1811,1828
1840,1837,1844
1840,1859,1836
1825,1823,1811
1831,1823,1827
1850,1767,1808
1847,1819,1823
1840,1872,1843
1823,1856,1840
1818,1834,1853
1825,1856,1821
1838,1859,1775
1803,1777,1820
1808,1785,1841
1826,1777,1824
1815,1840,1831
1813,1831,1833
1837,1807,1802
1855,1840,1837
1823,1865,1851
1805,1841,1822
1831,1855,1834
1849,1843,1831
1853,1840,1808
1809,1821,1816
1826,1851,1842
1839,1847,1841
1851,1838,1840
1845,1807,1807
1835,1885,1840
1821,1823,1839
1809,1808,1808
1829,1761,1781
1853,1823,1834
1849,1917,1863
1837,1823,1808
1813,1810,1850
1821,1830,1861
1827,1834,1827
1809,1840,1817
1807,1844,1833
1831,1822,1825
1845,1793,1796
1856,1750,1776
1807,1814,1851
1822,1851,1864
1840,1834,1833
1823,1835,1817
1830,1844,1837
1839,1856,1836
1842,1798,1830
1826,1859,1809
1837,1840,1808
1822,1878,1827
1810,1831,1857
1821,1808,1824
1842,1765,1777
1845,1767,1815
1823,1887,1874
1811,1872,1856
1820,1827,1831
1830,1856,1840
1838,1898,1842
1822,1831,1808
1810,1794,1819
1830,1846,1810
1835,1809,1821
1813,1825,1837
1808,1820,1842
1842,1837,1830
1840,1805,1819
1810,1843,1845
1815,1862,1881
1855,1834,1808
1826,1834,1775
1811,1793,1810
1805,1858,1861
1809,1846,1857
1833,1817,1781
1819,1846,1824
1797,1829,1862
1827,1855,1878
1832,1830,1841
1819,1827,1832
1826,1828,1826
1829,1849,1836
1843,1857,1814
1809,1839,1840
1810,1807,1834
1829,1840,1838
1831,1899,1844
1830,1875,1813
1843,1747,1808
1811,1885,1869
1803,1861,1877
1803,1839,1843
1811,1808,1837
1818,1808,1840
1826,1805,1808
1821,1862,1815
1808,1846,1851
1823,1835,1839
1839,1816,1819
1823,1863,1837
1815,1817,1843
1839,1812,1855
1857,1851,1822
1838,1839,1843
1809,1807,1865
1808,1878,1870
1818,1862,1850
1831,1847,1840
1840,1833,1845
1836,1847,1821
1819,1763,1823
1792,1808,1847
1795,1837,1858
1829,1850,1848
1839,1819,1823
1817,1840,1841
1814,1850,1870
1837,1856,1858
1840,1817,1835
1822,1869,1837
1811,1837,1840
1841,1814,1826
1827,1865,1857
1811,1861,1867
1813,1868,1871
1835,1866,1868
1838,1847,1853
1826,1830,1846
1817,1827,1830
1835,1841,1840
1845,1856,1857
1826,1840,1857
1821,1840,1855
1839,1845,1855
1839,1855,1856
1819,1840,1858
1808,1825,1849
1809,1824,1826
1851,1859,1843
1842,1854,1841
1818,1845,1863
1827,1847,1874
1840,1871,1896
1797,1819,1847
1776,1778,1777
1862,1856,1821
1906,1896,1857
1856,1849,1843
1826,1819,1859
1845,1843,1872
1855,1853,1867
1856,1856,1865
1871,1872,1895
1870,1871,1891
1844,1850,1840
1829,1846,1868
1835,1863,1907
1872,1887,1902
1881,1873,1842
1851,1840,1812
1827,1830,1821
1835,1843,1872
1870,1872,1917
1869,1855,1793
1916,1902,1843
1905,1880,1838
1894,1867,1791
1857,1856,1812
1861,1843,1825
1886,1867,1827
1877,1869,1837
1841,1809,1808
1840,1827,1808
1887,1878,1854
1904,1883,1874
1873,1852,1856
1826,1821,1795
1854,1836,1792
1872,1843,1817
1850,1818,1819
1826,1808,1785
1827,1808,1786
1817,1785,1744
1826,1792,1779
1856,1840,1818
1903,1872,1793
1907,1880,1795
1870,1837,1798
1819,1803,1772
1841,1824,1776
1856,1827,1777
1840,1808,1783
1834,1815,1796
1823,1795,1767
1813,1779,1745
1872,1841,1805
1951,1910,1905
1914,1868,1776
1844,1831,1691
1821,1794,1728
1783,1754,1738
1808,1786,1762
1886,1857,1786
1893,1872,1846
1881,1873,1902
1850,1830,1751
1840,1805,1686
1808,1750,1712
1792,1746,1776
1890,1845,1807
1935,1888,1790
1887,1857,1795
1848,1835,1814
1821,1802,1753
1818,1783,1766
1861,1812,1771
1875,1847,1771
1887,1853,1797
1872,1844,1819
1841,1795,1745
1865,1807,1727
1862,1823,1734
1879,1841,1795
1877,1815,1773
1864,1808,1728
1877,1819,1753
1883,1838,1833
1874,1800,1795
1843,1771,1738
1815,1745,1693
1827,1767,1694
1883,1850,1789
1881,1840,1799
1854,1836,1743
1829,1794,1702
1783,1744,1715
1799,1759,1771
1885,1845,1817
1933,1865,1749
1900,1829,1739
1870,1806,1745
1872,1807,1728
1900,1823,1760
1878,1801,1783
1846,1769,1719
1861,1780,1726
1885,1797,1713
1858,1776,1717
1826,1770,1766
1858,1790,1739
1885,1803,1744
1827,1761,1770
1778,1718,1677
1878,1802,1729
1936,1843,1776
1903,1809,1757
1818,1772,1731
1806,1762,1712
1885,1821,1719
1887,1818,1776
1830,1776,1763
1824,1775,1744
1873,1792,1728
1898,1803,1722
1886,1797,1758
1892,1812,1792
1883,1792,1747
1840,1747,1721
1822,1738,1760
1840,1758,1740
1853,1771,1697
1910,1792,1782
1878,1776,1810
1815,1764,1721
1879,1799,1712
1899,1830,1819
1872,1790,1857
1867,1779,1769
1868,1791,1717
1885,1791,1760
1850,1778,1808
1859,1790,1817
1852,1759,1771
1839,1727,1749
1843,1741,1731
1873,1790,1753
1886,1815,1834
1872,1811,1913
1822,1747,1816
1834,1743,1725
1856,1769,1723
1878,1787,1847
1881,1774,1869
1852,1776,1796
1847,1806,1792
1872,1805,1821
1834,1743,1808
1794,1745,1763
1808,1765,1810
1837,1787,1807
1871,1819,1845
1875,1810,1817
1866,1798,1809
1840,1775,1831
1809,1765,1839
1831,1787,1857
1841,1792,1778
1826,1762,1785
1830,1767,1859
1863,1807,1841
1882,1824,1795
1855,1805,1820
1802,1762,1835
1808,1755,1823
1873,1811,1870
1873,1834,1925
1843,1811,1906
1818,1790,1769
1820,1757,1729
1835,1775,1828
1846,1781,1903
1872,1815,1898
1874,1823,1840
1834,1793,1856
1792,1769,1840
1811,1778,1840
1895,1831,1855
1857,1813,1856
1809,1785,1859
1826,1789,1851
1833,1785,1805
1808,1782,1847
1785,1780,1855
1842,1824,1888
1872,1839,1904
1826,1782,1840
1776,1763,1837
1805,1790,1872
1846,1827,1901
1849,1814,1872
1829,1813,1872
1834,1815,1867
1837,1798,1863
1813,1795,1831
1791,1781,1833
1827,1793,1840
1872,1847,1935
1842,1818,1936
1802,1792,1941
1795,1754,1801
1813,1791,1799
1846,1825,1886
1822,1819,1884
1807,1808,1861
1823,1805,1868
1823,1817,1927
1805,1808,1899
1840,1850,1885
1878,1852,1906
1829,1811,1922
1763,1772,1872
1802,1808,1842
1825,1821,1867
1793,1781,1847
1806,1805,1852
1821,1831,1909
1871,1860,1949
1846,1839,1922
1800,1828,1905
1813,1840,1894
1837,1839,1892
1808,1795,1872
1778,1805,1872
1793,1808,1850
1808,1815,1862
1813,1819,1936
1823,1826,1924
1825,1815,1845
1819,1808,1819
1791,1797,1858
1806,1831,1949
1822,1843,1928
1824,1830,1898
1792,1797,1872
1775,1785,1857
1803,1808,1851
1851,1840,1920
1809,1830,1998
1766,1809,1954
1805,1808,1840
1879,1840,1840
1859,1849,1919
1793,1818,1922
1808,1837,1911
1835,1856,1941
1802,1803,1872
1767,1776,1831
1802,1814,1879
1851,1853,1901
1850,1840,1926
1846,1852,1959
1839,1863,1935
1811,1818,1806
1808,1807,1823
1833,1846,1959
1857,1882,2017
1840,1840,1876
1802,1803,1810
1775,1809,1888
1795,1820,1866
1825,1817,1863
1810,1819,1922
1782,1826,1922
1825,1850,1965
1846,1850,1895
1800,1815,1870
1793,1825,1891
1821,1841,1840
1847,1842,1836
1811,1813,1869
1793,1836,1938
1834,1859,1936
1839,1847,1933
1792,1808,1873
1765,1799,1879
1809,1840,1881
1856,1847,1879
1842,1835,1911
1807,1824,1927
1810,1830,1869
1823,1843,1897
1825,1831,1923
1795,1805,1888
1815,1840,1855
1840,1851,1855
1829,1842,1920
1803,1842,1979
1819,1853,1951
1822,1830,1845
1791,1808,1815
1765,1791,1851
1805,1829,1885
1841,1875,1936
1824,1862,1969
1786,1807,1880
1808,1808,1823
1838,1830,1867
1809,1830,1921
1792,1824,1911
1818,1823,1849
1840,1840,1831
1810,1814,1866
1815,1834,1964
1851,1859,1952
1814,1833,1875
1803,1817,1882
1793,1814,1859
1840,1882,1881
1850,1872,1908
1842,1827,1925
1776,1803,1906
1776,1821,1830
1840,1856,1866
1840,1849,1906
1803,1819,1894
1775,1797,1853
1807,1809,1846
1838,1845,1909
1825,1854,1941
1835,1866,1905
1830,1850,1856
1810,1826,1899
1775,1809,1939
1798,1828,1910
1834,1840,1840
1830,1837,1842
1799,1823,1866
1805,1843,1887
1872,1888,1968
1872,1840,1961
1744,1778,1809
1781,1821,1808
1837,1854,1851
1830,1854,1925
1806,1818,1923
1818,1835,1878
1856,1859,1894
1831,1840,1878
1792,1818,1872
1801,1830,1883
1825,1856,1962
1805,1807,1872
1792,1808,1839
1827,1854,1850
1840,1870,1917
1820,1840,1915
1759,1802,1859
1806,1834,1851
1830,1845,1899
1819,1834,1902
1806,1835,1964
1811,1825,1817
1826,1830,1778
1823,1841,1855
1789,1820,1936
1840,1856,1955
1853,1862,1899
1811,1826,1850
1787,1808,1836
1808,1837,1869
1830,1856,1894
1841,1870,1946
1791,1829,1902
1794,1823,1858
1845,1841,1859
1842,1836,1902
1808,1842,1946
1811,1872,1915
1840,1840,1809
1805,1799,1823
1776,1812,1861
1837,1860,1887
1859,1872,1882
1817,1840,1883
1793,1838,1930
1806,1825,1847
1838,1843,1869
1823,1831,1877
1808,1839,1927
1808,1837,1904
1818,1825,1852
1833,1845,1863
1811,1829,1872
1820,1845,1899
1842,1854,1872
1819,1825,1857
1797,1829,1861
1840,1870,1881
1859,1859,1859
1826,1839,1881
1828,1852,1971
1840,1889,2055
1822,1853,1842
1766,1779,1723
1755,1770,1760
1838,1850,1872
1865,1872,1904
1835,1853,1915
1813,1844,1897
1813,1835,1859
1826,1834,1859
1836,1837,1910
1830,1857,1952
1852,1897,1963
1839,1867,1904
1797,1822,1793
1793,1807,1766
1810,1823,1801
1837,1839,1861
1834,1831,1885
1825,1852,1909
1855,1869,1901
1857,1872,1878
1841,1847,1885
1806,1818,1929
1805,1840,1925
1835,1830,1830
1840,1832,1809
1802,1817,1829
1808,1828,1837
1859,1841,1843
1839,1841,1860
1808,1822,1866
1823,1841,1863
1828,1842,1879
1797,1811,1872
1807,1823,1855
1853,1861,1903
1884,1894,1947
1872,1856,1897
1807,1806,1818
1807,1822,1787
1840,1841,1822
1819,1829,1847
1808,1819,1867
1836,1847,1875
1869,1860,1878
1836,1837,1855
1814,1813,1855
1835,1837,1879
1857,1862,1920
1843,1857,1910
1810,1840,1904
1830,1839,1841
1855,1847,1814
1832,1833,1829
1819,1801,1845
1851,1820,1861
1860,1837,1851
1835,1838,1867
1808,1823,1856
1815,1830,1845
1856,1850,1861
1840,1819,1846
1821,1824,1884
1840,1847,1885
1860,1856,1853
1840,1840,1837
1815,1831,1850
1825,1840,1851
1847,1840,1840
1872,1861,1878
1843,1838,1893
1820,1829,1843
1836,1834,1835
1864,1863,1919
1834,1832,1884
1836,1826,1797
1867,1847,1812
1855,1850,1872
1827,1844,1901
1845,1845,1867
1854,1838,1825
1851,1850,1904
1817,1819,1855
1803,1817,1837
1851,1867,1913
1882,1872,1881
1821,1822,1804
1815,1840,1808
1841,1834,1787
1830,1813,1840
1830,1837,1866
1849,1849,1872
1872,1841,1847
1839,1851,1849
1827,1856,1871
1854,1872,1906
1834,1818,1821
1814,1805,1811
1840,1845,1887
1871,1859,1902
1874,1845,1824
1851,1835,1838
1830,1831,1872
1852,1857,1882
1863,1858,1834
1840,1837,1802
1826,1832,1872
1853,1851,1902
1862,1840,1837
1841,1802,1793
1824,1799,1807
1818,1803,1821
1870,1845,1845
1855,1846,1858
1821,1829,1875
1850,1851,1878
1886,1883,1920
1860,1857,1937
1797,1785,1815
1837,1811,1783
1870,1840,1808
1821,1819,1793
1808,1826,1839
1846,1838,1856
1872,1850,1851
1871,1845,1936
1803,1794,1829
1836,1819,1772
1862,1841,1791
1843,1830,1855
1833,1823,1857
1859,1845,1857
1858,1851,1840
1843,1839,1846
1840,1844,1899
1872,1846,1875
1895,1842,1831
1829,1826,1901
1774,1782,1857
1820,1827,1795
1904,1875,1849
1874,1855,1831
1822,1822,1840
1826,1844,1861
1863,1872,1858
1840,1814,1794
1803,1797,1831
1840,1846,1900
1877,1856,1872
1855,1835,1850
1815,1810,1817
1825,1821,1808
1878,1831,1838
1843,1803,1851
1801,1810,1900
1843,1845,1857
1871,1850,1857
1815,1808,1819
1792,1787,1836
1835,1818,1846
1891,1879,1889
1856,1853,1872
1808,1808,1842
1829,1821,1824
1872,1842,1838
1837,1810,1815
1817,1807,1835
1849,1839,1885
1876,1847,1849
1826,1815,1813
1808,1825,1848
1844,1843,1839
1860,1849,1847
1851,1825,1867
1827,1829,1875
1840,1851,1809
1865,1849,1817
1841,1834,1856
1815,1814,1846
1808,1819,1814
1851,1837,1815
1833,1830,1854
1809,1821,1850
1840,1847,1858
1867,1840,1863
1835,1821,1845
1807,1826,1874
1846,1870,1950
1861,1840,1875
1835,1804,1781
1809,1807,1807
1857,1863,1859
1869,1872,1840
1825,1817,1802
1809,1806,1840
1843,1830,1846
1849,1831,1838
1826,1813,1850
1828,1834,1866
1856,1846,1853
1896,1847,1863
1830,1809,1855
1804,1808,1829
1825,1831,1806
1847,1855,1804
1843,1837,1833
1817,1823,1871
1856,1850,1890
1882,1869,1858
1844,1848,1863
1802,1809,1840
1842,1839,1862
1867,1850,1878
1847,1822,1851
1811,1814,1839
1843,1840,1850
1845,1825,1809
1832,1810,1835
1840,1820,1860
1867,1840,1830
1850,1831,1803
1827,1805,1794
1811,1808,1860
1840,1843,1897
1865,1845,1852
1852,1833,1837
1835,1810,1840
1847,1851,1883
1840,1839,1859
1813,1797,1795
1809,1805,1814
1841,1829,1840
1864,1837,1841
1825,1798,1824
1824,1819,1860
1853,1838,1839
1881,1856,1856
1851,1834,1873
1810,1801,1841
1856,1844,1829
1884,1858,1860
1840,1799,1835
1788,1798,1872
1818,1819,1863
1856,1815,1775
1867,1843,1867
1868,1859,1962
1840,1829,1778
1837,1827,1755
1823,1799,1793
1775,1782,1815
1821,1813,1838
1855,1834,1863
1874,1853,1904
1827,1823,1840
1835,1840,1825
1856,1851,1902
1842,1839,1875
1823,1838,1840
1841,1845,1829
1852,1856,1841
1826,1831,1873
1783,1776,1791
1829,1825,1783
1872,1846,1835
1866,1841,1882
1783,1794,1827
1808,1808,1806
1883,1872,1862
1872,1866,1907
1829,1823,1887
1825,1808,1795
1867,1839,1813
1844,1837,1843
1821,1827,1855
1846,1855,1873
1879,1853,1862
1825,1803,1792
1785,1783,1756
1823,1833,1822
1872,1862,1867
1840,1834,1857
1815,1818,1871
1863,1862,1907
1869,1857,1840
1839,1810,1830
1840,1847,1885
1856,1860,1872
1840,1824,1802
1789,1783,1753
1791,1814,1839
1854,1854,1878
1875,1867,1882
1837,1825,1824
1826,1821,1798
1843,1841,1819
1872,1841,1834
1847,1840,1854
1820,1846,1904
1834,1841,1846
1859,1851,1830
1833,1834,1850
1811,1822,1862
1843,1831,1870
1853,1826,1831
1851,1835,1843
1822,1819,1831
1817,1814,1792
1846,1825,1803
1860,1829,1869
1841,1841,1902
1882,1878,1902
1879,1873,1860
1811,1803,1808
1793,1777,1813
1829,1813,1840
1857,1839,1840
1843,1824,1853
1822,1835,1902
1834,1837,1868
1876,1862,1863
1843,1823,1840
1836,1811,1835
1851,1803,1808
1841,1818,1806
1818,1822,1839
1839,1840,1867
1856,1850,1888
1856,1844,1850
1850,1825,1846
1808,1794,1851
1839,1812,1809
1882,1873,1879
1841,1839,1854
1812,1809,1840
1831,1824,1834
1849,1837,1821
1843,1815,1838
1843,1829,1863
1837,1856,1904
1840,1840,1817
1814,1813,1795
1793,1796,1830
1829,1840,1866
1857,1843,1877
1840,1827,1906
1840,1836,1861
1857,1843,1833
1840,1828,1783
1827,1820,1840
1815,1815,1878
1841,1827,1819
1873,1849,1818
1856,1856,1882
1819,1829,1872
1847,1840,1860
1837,1838,1853
1815,1821,1840
1803,1810,1817
1854,1854,1831
1883,1871,1857
1833,1840,1866
1789,1803,1837
1808,1808,1807
1856,1823,1846
1871,1855,1867
1856,1847,1872
1852,1857,1861
1872,1857,1813
1840,1836,1853
1805,1808,1842
1840,1841,1849
1874,1865,1896
1843,1839,1885
1808,1812,1798
1829,1822,1775
1844,1835,1815
1835,1814,1837
1810,1787,1855
1840,1847,1879
1883,1874,1839
1858,1847,1827
1824,1815,1852
1865,1849,1872
1851,1856,1895
1837,1841,1861
1841,1833,1840
1859,1850,1826
1866,1856,1834
1841,1830,1874
1799,1808,1841
1830,1837,1863
1862,1841,1861
1843,1834,1825
1829,1815,1840
1866,1840,1840
1853,1837,1810
1846,1840,1866
1822,1818,1873
1829,1827,1842
1857,1843,1810
1867,1835,1835
1819,1820,1861
1815,1817,1851
1840,1837,1808
1856,1849,1843
1843,1846,1872
1869,1874,1907
1881,1875,1887
1821,1821,1837
1776,1792,1850
1820,1812,1823
1879,1849,1811
1872,1852,1856
1832,1831,1837
1839,1849,1834
1861,1860,1856
1860,1845,1901
1820,1812,1840
1859,1856,1823
1854,1846,1825
1829,1823,1831
1819,1829,1857
1826,1839,1846
1872,1865,1858
1872,1863,1946
1823,1807,1870
1845,1835,1840
1866,1853,1792
1840,1830,1833
1809,1810,1867
1833,1824,1813
1862,1835,1821
1866,1847,1885
1849,1834,1875
1856,1847,1822
1866,1857,1856
1840,1836,1908
1795,1797,1793
1845,1833,1807
1879,1856,1858
1871,1863,1972
1840,1835,1878
1840,1819,1790
1863,1814,1801
1843,1829,1831
1834,1840,1866
1824,1825,1829
1855,1840,1867
1853,1829,1869
1808,1805,1808
1843,1840,1814
1887,1873,1891
1877,1857,1891
1845,1840,1877
1856,1843,1839
1867,1851,1840
1824,1819,1856
1797,1803,1858
1810,1798,1795
1857,1829,1810
1858,1827,1843
1851,1867,1939
1838,1845,1867
1849,1817,1795
1823,1805,1807
1823,1839,1857
1870,1861,1872
1881,1862,1857
1843,1823,1856
1815,1803,1850
1831,1809,1809
1871,1847,1847
1847,1819,1840
1837,1825,1887
1835,1840,1868
1842,1815,1798
1822,1795,1808
1807,1798,1815
1840,1837,1903
1870,1847,1855
1850,1831,1799
1853,1823,1839
1873,1837,1872
1873,1856,1914
1840,1839,1883
1808,1811,1842
1813,1801,1781
1832,1805,1782
1841,1821,1835
1838,1830,1859
1865,1857,1865
1885,1866,1873
1842,1838,1891
1799,1796,1826
1827,1806,1808
1883,1850,1841
1862,1838,1887
1820,1824,1875
1819,1819,1822
1850,1835,1823
1824,1813,1842
1806,1811,1851
