1871,1868,1872
1812,1815,1847
1808,1785,1840
1837,1766,1825
1870,1712,1783
1838,1830,1865
1839,1833,1881
1804,1872,1883
1827,1898,1856
1845,1843,1851
1840,1786,1840
1825,1842,1859
1823,1869,1865
1815,1787,1860
1829,1781,1855
1846,1825,1849
1851,1873,1847
1839,1812,1854
1830,1849,1855
1837,1827,1855
1840,1808,1845
1840,1780,1851
1845,1815,1835
1875,1808,1826
1840,1824,1869
1834,1872,1886
1830,1776,1850
1840,1802,1844
1840,1813,1845
1836,1873,1853
1813,1810,1840
1830,1846,1839
1841,1739,1839
1840,1757,1843
1839,1765,1859
1823,1872,1884
1843,1844,1865
1836,1842,1847
1826,1840,1857
1856,1775,1812
1852,1869,1857
1811,1842,1870
1811,1809,1864
1838,1823,1855
1850,1892,1851
1852,1790,1840
1851,1835,1867
1835,1810,1838
1842,1802,1808
1835,1846,1856
1823,1775,1872
1831,1800,1873
1813,1831,1837
1822,1811,1813
1825,1831,1835
1849,1825,1829
1846,1788,1841
1831,1837,1823
1840,1790,1773
1821,1838,1869
1822,1850,1892
1838,1813,1877
1844,1827,1871
1853,1806,1846
1854,1840,1840
1853,1831,1850
1846,1840,1858
1855,1862,1842
1835,1901,1824
1825,1834,1840
1821,1792,1859
1818,1807,1842
1824,1815,1826
1837,1778,1813
1843,1840,1841
1867,1931,1852
1850,1808,1849
1821,1786,1842
1834,1834,1840
1854,1739,1796
1851,1830,1845
1847,1808,1866
1847,1808,1863
1839,1853,1870
1825,1840,1836
1840,1840,1840
1863,1819,1844
1883,1834,1808
1840,1877,1849
1777,1887,1877
1799,1766,1874
1822,1770,1850
1835,1859,1826
1824,1826,1830
1837,1804,1850
1854,1798,1808
1866,1842,1851
1846,1867,1856
1814,1758,1857
1829,1791,1858
1840,1835,1858
1828,1822,1854
1840,1804,1849
1833,1860,1843
1843,1831,1820
1845,1810,1856
1836,1819,1862
1840,1856,1845
1857,1863,1843
1813,1828,1845
1818,1851,1841
1840,1838,1802
1872,1702,1786
1804,1808,1895
1798,1850,1904
1840,1859,1862
1856,1847,1856
1839,1778,1835
1824,1801,1835
1837,1792,1835
1835,1827,1842
1830,1839,1856
1831,1838,1824
1872,1808,1808
1818,1853,1854
1799,1831,1871
1821,1813,1867
1841,1779,1815
1854,1834,1830
1856,1863,1872
1856,1831,1869
1831,1806,1874
1845,1845,1862
1818,1807,1837
1796,1812,1830
1825,1825,1840
1837,1823,1835
1844,1805,1831
1840,1808,1835
1840,1883,1850
1834,1818,1839
1834,1803,1831
1829,1808,1847
1851,1840,1856
1835,1825,1847
1833,1830,1818
1826,1829,1808
1827,1861,1865
1843,1821,1861
1822,1795,1843
1825,1821,1840
1851,1817,1822
1854,1856,1853
1826,1840,1846
1825,1877,1850
1839,1827,1839
1826,1800,1847
1813,1775,1825
1837,1789,1825
1855,1891,1799
1829,1783,1841
1827,1809,1872
1838,1782,1840
1853,1793,1836
1814,1893,1866
1826,1890,1867
1838,1854,1850
1839,1842,1852
1840,1841,1842
1856,1808,1839
1844,1822,1850
1840,1831,1831
1835,1840,1840
1842,1810,1858
1844,1786,1829
1858,1858,1833
1825,1831,1837
1821,1774,1855
1831,1779,1827
1845,1839,1841
1840,1844,1853
1847,1803,1843
1871,1787,1806
1827,1868,1844
1811,1842,1862
1840,1821,1856
1841,1795,1829
1819,1867,1833
1815,1844,1845
1813,1810,1838
1808,1797,1836
1840,1842,1840
1854,1877,1837
1856,1863,1806
1835,1753,1822
1831,1842,1865
1833,1872,1859
1840,1797,1847
1843,1799,1842
1840,1808,1846
1844,1777,1813
1845,1798,1801
1801,1846,1861
1827,1887,1867
1857,1867,1845
1838,1809,1832
1840,1809,1837
1840,1840,1840
1855,1841,1855
1826,1822,1842
1814,1775,1814
1853,1799,1795
1838,1883,1861
1822,1835,1894
1825,1810,1839
1847,1892,1799
1857,1830,1810
1833,1835,1859
1812,1801,1851
1834,1773,1828
1858,1757,1814
1846,1909,1869
1841,1814,1856
1842,1802,1839
1829,1782,1818
1833,1837,1842
1831,1846,1855
1837,1813,1848
1853,1870,1856
1855,1822,1843
1833,1789,1813
1840,1807,1810
1839,1859,1839
1814,1824,1840
1854,1799,1849
1888,1875,1853
1828,1742,1776
1797,1794,1843
1805,1859,1881
1840,1872,1872
1850,1850,1823
1841,1776,1817
1851,1871,1879
1825,1837,1859
1814,1820,1835
1838,1808,1813
1843,1808,1826
1853,1895,1829
1822,1833,1822
1806,1809,1840
1823,1820,1856
1872,1825,1855
1850,1844,1821
1829,1787,1814
1817,1841,1872
1845,1825,1868
1838,1829,1846
1872,1809,1827
1850,1806,1850
1819,1833,1845
1822,1840,1845
1837,1827,1853
1838,1814,1853
1858,1839,1826
1869,1871,1835
1815,1776,1830
1832,1699,1783
1856,1858,1846
1847,1882,1874
1813,1808,1853
1810,1823,1853
1838,1845,1805
1845,1915,1830
1809,1823,1842
1825,1778,1867
1839,1808,1859
1841,1818,1857
1827,1807,1827
1836,1824,1840
1840,1904,1882
1853,1868,1845
1835,1780,1813
1824,1765,1829
1841,1834,1846
1829,1810,1828
1814,1798,1828
1826,1841,1858
1855,1874,1862
1856,1843,1844
1853,1819,1845
1856,1801,1799
1857,1794,1798
1810,1835,1871
1788,1884,1889
1808,1861,1867
1840,1861,1843
1831,1840,1839
1841,1784,1829
1855,1763,1853
1840,1874,1847
1825,1909,1842
1805,1789,1811
1830,1734,1829
1826,1808,1853
1841,1815,1811
1819,1831,1862
1823,1840,1892
1830,1840,1858
1858,1840,1829
1808,1827,1829
1809,1840,1833
1845,1787,1840
1845,1821,1840
1810,1817,1844
1831,1792,1815
1825,1862,1853
1839,1840,1857
1825,1811,1849
1831,1834,1859
1849,1799,1823
1838,1872,1839
1813,1825,1869
1829,1820,1856
1852,1839,1822
1835,1802,1779
1834,1882,1815
1858,1925,1855
1827,1808,1845
1791,1760,1857
1789,1789,1839
1814,1780,1847
1840,1808,1840
1843,1793,1837
1845,1829,1855
1849,1839,1843
1840,1852,1842
1833,1872,1840
1841,1904,1841
1840,1843,1840
1855,1798,1822
1840,1728,1807
1837,1782,1840
1815,1873,1875
1841,1840,1840
1840,1883,1872
1887,1920,1872
1825,1838,1856
1804,1803,1839
1833,1843,1839
1835,1853,1828
1831,1742,1852
1834,1782,1854
1845,1815,1845
1844,1799,1841
1842,1831,1860
1848,1851,1854
1855,1844,1842
1845,1836,1843
1865,1870,1845
1858,1819,1848
1883,1847,1872
1831,1771,1837
1811,1789,1831
1821,1845,1816
1851,1793,1785
1818,1826,1857
1833,1858,1879
1846,1799,1856
1842,1840,1872
1831,1787,1835
1837,1827,1862
1856,1872,1861
1841,1872,1850
1839,1808,1845
1837,1820,1846
1819,1843,1848
1834,1863,1856
1841,1847,1856
1850,1872,1872
1863,1840,1857
1855,1850,1821
1840,1781,1812
1843,1755,1831
1848,1830,1855
1811,1821,1887
1825,1777,1854
1884,1868,1819
1853,1843,1870
1787,1776,1859
1799,1776,1840
1825,1796,1843
1856,1826,1851
1840,1840,1849
1840,1840,1850
1841,1829,1859
1861,1858,1855
1865,1862,1856
1858,1835,1870
1827,1800,1840
1833,1840,1831
1856,1851,1839
1859,1808,1805
1849,1722,1775
1840,1856,1874
1825,1952,1905
1819,1887,1883
1824,1814,1853
1827,1767,1851
1842,1819,1868
1843,1849,1860
1857,1840,1849
1839,1850,1850
1859,1827,1840
1859,1842,1841
1840,1872,1845
1838,1834,1849
1839,1841,1858
1854,1829,1841
1859,1827,1840
1872,1844,1851
1861,1840,1845
1869,1846,1846
1863,1777,1817
1879,1811,1826
1862,1874,1840
1847,1904,1873
1840,1841,1845
1822,1715,1814
1808,1757,1867
1809,1807,1875
1866,1919,1867
1835,1855,1873
1827,1809,1851
1822,1803,1847
1835,1802,1854
1844,1831,1842
1846,1834,1840
1854,1781,1809
1842,1825,1836
1850,1885,1871
1855,1872,1867
1856,1843,1861
1851,1827,1865
1872,1872,1837
1861,1872,1854
1846,1829,1886
1840,1865,1857
1827,1831,1809
1823,1766,1819
1858,1731,1830
1821,1798,1853
1808,1811,1865
1835,1852,1865
1839,1815,1862
1843,1850,1842
1867,1822,1843
1846,1831,1874
1839,1827,1878
1840,1819,1847
1856,1824,1825
1859,1827,1822
1858,1763,1796
1846,1833,1862
1857,1856,1872
1895,1904,1867
1822,1827,1860
1804,1878,1872
1870,1839,1857
1831,1754,1834
1808,1735,1825
1839,1785,1851
1847,1838,1872
1829,1851,1866
1815,1851,1887
1830,1808,1885
1852,1779,1795
1838,1862,1813
1837,1869,1840
1833,1889,1861
1855,1772,1802
1854,1793,1835
1835,1872,1893
1834,1866,1889
1871,1863,1871
1861,1882,1836
1847,1904,1847
1841,1793,1854
1839,1811,1843
1827,1845,1885
1819,1745,1859
1830,1761,1836
1851,1809,1821
1847,1801,1829
1850,1797,1842
1870,1820,1844
1849,1872,1843
1853,1840,1859
1847,1840,1869
1840,1835,1854
1834,1840,1840
1865,1800,1811
1855,1850,1865
1841,1819,1856
1843,1872,1874
1837,1892,1879
1844,1905,1855
1840,1790,1839
1866,1863,1822
1837,1832,1862
1808,1753,1863
1818,1775,1855
1854,1810,1842
1872,1859,1844
1861,1852,1822
1840,1740,1839
1833,1798,1856
1846,1825,1865
1859,1856,1872
1858,1855,1851
1846,1805,1808
1856,1776,1802
1822,1855,1881
1840,1829,1875
1857,1819,1856
1835,1881,1872
1823,1884,1869
1815,1837,1862
1840,1841,1843
1862,1842,1840
1840,1871,1854
1807,1857,1869
1821,1742,1808
1839,1744,1839
1851,1846,1862
1843,1777,1856
1830,1839,1863
1842,1804,1822
1825,1843,1856
1827,1905,1866
1837,1856,1852
1858,1904,1857
1841,1794,1829
1850,1776,1849
1850,1793,1870
1823,1835,1847
1824,1789,1840
1840,1781,1841
1849,1836,1869
1851,1874,1854
1872,1872,1883
1825,1847,1882
1823,1818,1844
1857,1833,1815
1823,1798,1823
1819,1814,1840
1856,1778,1840
1895,1693,1803
1829,1847,1863
1800,1879,1886
1807,1809,1830
1847,1833,1813
1847,1831,1831
1824,1806,1868
1825,1872,1872
1825,1860,1872
1814,1879,1840
1838,1815,1846
1840,1808,1851
1841,1837,1859
1836,1782,1850
1838,1813,1872
1851,1809,1857
1846,1813,1841
1840,1835,1847
1854,1790,1809
1878,1775,1791
1839,1823,1842
1840,1765,1847
1863,1825,1869
1851,1877,1874
1813,1847,1856
1822,1828,1840
1822,1843,1838
1853,1765,1811
1855,1807,1856
1834,1878,1857
1840,1866,1852
1831,1856,1866
1845,1847,1859
1838,1828,1840
1835,1830,1835
1850,1847,1833
1861,1835,1805
1856,1839,1856
1829,1889,1856
1835,1857,1846
1823,1764,1842
1839,1735,1847
1845,1744,1839
1843,1853,1842
1840,1831,1847
1856,1840,1862
1868,1793,1861
1847,1821,1838
1841,1838,1845
1838,1830,1840
1840,1792,1838
1855,1813,1844
1854,1916,1843
1856,1840,1825
1859,1744,1786
1823,1846,1862
1778,1872,1886
1808,1845,1869
1817,1840,1859
1840,1835,1845
1839,1835,1822
1821,1807,1834
1834,1842,1858
1847,1873,1850
1854,1781,1836
1840,1813,1854
1817,1730,1850
1840,1759,1851
1835,1845,1847
1823,1821,1846
1836,1798,1849
1892,1767,1791
1824,1881,1842
1823,1933,1878
1808,1837,1883
1808,1824,1853
1828,1831,1815
1855,1739,1777
1830,1821,1846
1823,1860,1872
1841,1872,1845
1837,1840,1835
1839,1823,1840
1815,1817,1854
1815,1846,1841
1822,1819,1830
1846,1792,1835
1857,1807,1843
1830,1846,1855
1819,1824,1840
1819,1826,1814
1862,1828,1833
1843,1856,1875
1830,1839,1885
1827,1821,1856
1840,1744,1799
1854,1847,1812
1809,1879,1850
1822,1862,1872
1863,1904,1857
1840,1825,1861
1845,1792,1840
1855,1811,1842
1840,1793,1839
1842,1810,1826
1853,1794,1797
1827,1808,1872
1809,1771,1795
1839,1787,1826
1843,1885,1845
1840,1872,1841
1839,1900,1853
1827,1727,1826
1807,1840,1840
1822,1811,1857
1847,1826,1865
1883,1808,1839
1855,1808,1833
1829,1807,1831
1840,1909,1835
1839,1899,1827
1835,1830,1840
1842,1836,1850
1857,1857,1840
1838,1828,1840
1842,1744,1809
1846,1776,1825
1869,1874,1869
1841,1822,1841
1827,1875,1841
1828,1808,1850
1868,1808,1806
1835,1823,1830
1840,1830,1822
1818,1872,1861
1839,1893,1845
1835,1822,1838
1811,1808,1850
1829,1815,1836
1836,1843,1833
1850,1851,1835
1855,1907,1839
1825,1804,1832
1840,1774,1813
1843,1867,1847
1826,1829,1876
1831,1830,1845
1854,1840,1839
1841,1863,1841
1829,1806,1849
1846,1771,1811
1830,1808,1841
1867,1825,1857
1849,1814,1844
1819,1810,1840
1825,1872,1847
1835,1854,1827
1840,1790,1819
1840,1789,1799
1856,1872,1874
1840,1873,1872
1824,1846,1831
1859,1747,1807
1846,1802,1872
1826,1843,1902
1799,1825,1857
1808,1817,1832
1840,1840,1830
1863,1862,1824
1855,1830,1847
1826,1861,1855
1840,1834,1827
1861,1799,1850
1840,1858,1878
1814,1825,1872
1829,1856,1839
1845,1749,1810
1838,1821,1840
1855,1920,1846
1843,1840,1828
1851,1837,1826
1839,1822,1843
1843,1770,1829
1842,1840,1858
1845,1930,1902
1834,1794,1845
1827,1781,1840
1861,1855,1862
1848,1842,1808
1851,1856,1850
1826,1858,1895
1830,1795,1827
1834,1778,1841
1826,1814,1823
1836,1824,1813
1840,1834,1807
1839,1818,1835
1839,1827,1899
1861,1878,1918
1874,1914,1904
1872,1903,1855
1776,1779,1727
1806,1838,1888
2001,1983,2270
1972,1829,2096
1741,1642,1534
1699,1667,1470
1823,1874,1761
1920,1968,2027
1902,1790,2013
1872,1806,1902
1776,1744,1664
1769,1808,1665
1829,1851,1794
1823,1808,1903
1835,1842,1974
1837,1808,1774
1895,1825,1866
1926,1854,1941
1870,1882,1820
1808,1861,1817
1829,1818,1852
1855,1764,1776
1915,1723,1738
1851,1847,1851
1838,1854,1953
1808,1855,1899
1766,1814,1748
1831,1840,1845
1840,1777,1845
1850,1807,1809
1864,1842,1808
1894,1879,1824
1872,1787,1865
1823,1761,1874
1776,1840,1767
1792,1861,1762
1840,1845,1857
1881,1792,1803
1853,1855,1875
1791,1865,1922
1801,1818,1776
1821,1724,1660
1850,1794,1741
1919,1933,1908
1890,1872,2047
1808,1692,1705
1763,1823,1596
1769,1814,1753
1788,1866,1905
1813,1762,1936
1829,1827,1839
1838,1859,1804
1862,1863,1845
1808,1785,1759
1774,1801,1760
1837,1887,1875
1841,1751,1792
1825,1803,1850
1852,1852,1870
1845,1844,1849
1840,1690,1735
1808,1833,1859
1872,2029,1933
1778,1776,1799
1750,1746,1769
1781,1847,1793
1826,1791,1909
1849,1832,1937
1838,1795,1728
1781,1808,1680
1758,1797,1811
1811,1808,1854
1841,1875,1988
1826,1827,1936
1819,1806,1855
1878,1785,1771
1808,1753,1749
1729,1819,1721
1773,1858,1895
1890,1875,1971
1881,1746,1882
1745,1770,1701
1763,1776,1705
1835,1791,1833
1827,1828,1936
1812,1853,1943
1803,1781,1856
1813,1877,1783
1779,1854,1750
1780,1790,1754
1840,1845,1833
1810,1751,1920
1734,1743,1808
1776,1695,1850
1795,1761,1795
1807,1891,1852
1842,1904,1952
1791,1836,1908
1805,1836,1885
1797,1786,1747
1840,1778,1790
1811,1863,1955
1805,1829,1792
1808,1882,1783
1827,1715,1809
1793,1808,1904
1760,1917,1837
1798,1879,1743
1842,1831,1814
1879,1795,1929
1803,1712,1835
1779,1718,1728
1730,1809,1830
1760,1828,1862
1830,1838,1910
1846,1847,1978
1799,1845,1924
1785,1815,1820
1851,1867,1794
1829,1855,1830
1807,1782,1735
1831,1842,1839
1872,1879,1951
1825,1867,1849
1823,1827,1821
1815,1802,1712
1838,1847,1819
1750,1809,1877
1763,1795,1983
1779,1841,1810
1811,1728,1741
1869,1812,2014
1789,1837,1949
1777,1779,1773
1811,1792,1713
1830,1920,1901
1857,1861,1975
1808,1715,1781
1793,1813,1758
1808,1927,1874
1823,1908,1925
1834,1809,1884
1889,1872,1954
1841,1943,1925
1777,1741,1694
1744,1674,1710
1834,1812,1959
1829,1822,1875
1856,1845,1950
1829,1856,1943
1826,1805,1759
1840,1690,1766
1863,1695,1787
1795,1939,1867
1776,1931,1907
1824,1957,2109
1841,1875,1963
1790,1770,1652
1780,1745,1680
1814,1789,1860
1855,1899,1903
1851,1899,2010
1858,1904,1936
1830,1823,1776
1789,1758,1825
1806,1821,1933
1835,1827,1834
1843,1648,1693
1847,1774,1818
1830,1920,1984
1831,1924,2047
1831,1808,1856
1808,1839,1902
1814,1857,1808
1837,1850,1823
1868,1823,1867
1870,1786,1856
1799,1818,1872
1829,1872,1975
1842,1865,1869
1845,1840,1810
1856,1723,1728
1799,1725,1811
1797,1854,1918
1803,1791,1872
1845,1855,1942
1904,1854,2000
1850,1894,1910
1802,1817,1782
1819,1859,1852
1833,1835,1931
1837,1808,1887
1824,1776,1861
1851,1791,1904
1890,1875,1963
1859,1852,1898
1845,1858,1855
1808,1885,1873
1802,1840,1901
1824,1744,1723
1857,1742,1745
1860,1843,1863
1824,1942,1919
1826,1896,2019
1805,1758,1808
1819,1781,1872
1813,1759,1861
1834,1815,1853
1843,1867,1913
1852,1809,1891
1828,1831,1892
1841,1855,1897
1872,1839,1843
1843,1840,1900
1859,1818,1888
1855,1807,1837
1787,1723,1750
1856,1765,1818
1872,2005,2075
1826,1939,1921
1778,1831,1837
1827,1815,1894
1872,1867,1802
1831,1799,1840
1794,1649,1809
1814,1711,1882
1840,1842,1938
1910,1882,1916
1859,1869,1929
1790,1795,1774
1803,1840,1876
1833,1870,1971
1868,1782,1955
1882,1680,1773
1837,1798,1712
1808,1951,1840
1803,1926,1882
1871,1910,1911
1857,1834,1970
1844,1815,1808
1840,1825,1831
1830,1804,2014
1805,1758,1777
1825,1806,1766
1881,1872,1895
1838,1793,1885
1823,1799,1885
1827,1821,1860
1837,1755,1756
1856,1663,1755
1877,1913,2010
1865,2009,2099
1781,1856,1808
1825,1835,1831
1840,1825,1826
1888,1878,1843
1895,1840,1875
1843,1793,1947
1826,1857,1884
1808,1843,1736
1840,1843,1873
1871,1814,1881
1901,1775,1766
1833,1815,1830
1826,1871,1942
1852,1887,2096
1808,1743,1739
1808,1738,1634
1835,1820,1823
1847,1883,1990
1850,1891,2019
1879,1843,1843
1900,1849,1843
1876,1882,1914
1810,1787,1828
1785,1791,1742
1840,1851,1814
1876,1840,1927
1894,1789,1856
1856,1791,1891
1805,1751,1850
1831,1904,1888
1840,1923,1904
1824,1829,1814
1835,1793,1809
1857,1856,1902
1834,1846,1859
1861,1820,1893
1867,1844,1846
1848,1875,1861
1855,1904,1968
1864,1856,1839
1862,1919,1755
1867,1833,1813
1837,1783,1839
1829,1766,1853
1824,1803,1889
1882,1857,2033
1877,1823,1852
1830,1821,1729
1808,1863,1823
1828,1807,1865
1863,1831,1919
1878,1738,1898
1828,1788,1817
1840,1872,1778
1853,1865,1819
1812,1911,1895
1822,1866,1872
1843,1811,1813
1873,1830,1783
1917,1851,1954
1884,1910,2000
1825,1867,1790
1839,1718,1715
1840,1804,1829
1848,1950,1918
1855,1869,1844
1859,1815,1850
1824,1804,1872
1807,1739,1814
1871,1765,1981
1840,1805,1809
1840,1812,1728
1851,1853,1808
1854,1842,1904
1866,1850,1882
1922,1958,1877
1897,1871,1999
1777,1777,1834
1781,1809,1697
1837,1852,1821
1952,1839,2009
1888,1856,1875
1782,1829,1707
1826,1873,1779
1893,1851,1888
1843,1749,1782
1789,1749,1780
1802,1805,1871
1815,1857,1920
1815,1857,1932
1838,1856,1863
1871,1843,1849
1859,1825,1831
1872,1771,1840
1906,1891,2014
1863,1913,1928
1839,1786,1774
1856,1833,1791
1825,1885,1795
1906,1834,1841
1914,1856,2002
1826,1871,1857
1807,1799,1795
1876,1842,1827
1807,1776,1791
1808,1777,1805
1856,1854,1870
1856,1835,1868
1823,1840,1834
1835,1840,1921
1878,1797,1951
1853,1794,1818
1819,1776,1825
1869,1867,1936
1877,1879,1935
1832,1744,1678
1878,1829,1810
1886,1929,1952
1831,1887,1798
1795,1790,1840
1820,1776,1854
1850,1808,1840
1911,1856,1873
1866,1925,1893
1843,1904,1821
1794,1769,1821
1808,1798,1936
1876,1839,1882
1881,1819,1795
1823,1786,1795
1826,1849,1932
1874,1849,1953
1835,1813,1840
1821,1804,1825
1840,1878,1872
1859,1837,1741
1863,1833,1758
1853,1772,1822
1882,1863,1930
1835,1851,1899
1861,1792,1904
1911,1851,1865
1919,1770,1731
1776,1793,1880
1741,1802,1855
1759,1766,1766
1821,1801,1825
1871,1840,1910
1856,1808,1922
1856,1808,1847
1859,1877,1876
1829,1893,1873
1843,1845,1777
1873,1801,1792
1857,1827,1853
1853,1840,1873
1845,1847,1869
1879,1942,1904
1921,1710,1797
1856,1797,1767
1757,1807,1835
1766,1823,1906
1799,1814,1787
1843,1827,1819
1930,1769,1902
1872,1884,2080
1791,1706,1822
1811,1744,1647
1821,1828,1794
1840,1856,1952
1846,1873,1909
1840,1851,1806
1862,1824,1790
1892,1841,1884
1881,1850,1903
1861,1874,1898
1872,1767,1771
1934,1772,1841
1888,1826,1939
1777,1943,1926
1769,1873,1712
1833,1840,1749
1863,1762,1817
1852,1746,1894
1836,1840,1979
1851,1835,1840
1874,1855,1811
1843,1787,1791
1853,1811,1900
1855,1797,1874
1894,1767,1802
1858,1749,1793
1846,1850,1903
1857,1840,1891
1840,1907,1840
1843,1905,1904
1828,1765,1787
1843,1755,1741
1858,1856,1840
1879,1856,1898
1893,1831,1899
1855,1849,1918
1851,1914,1840
1808,1869,1765
1858,1805,1843
1872,1835,1950
1856,1870,1917
1840,1801,1889
1825,1787,1842
1795,1707,1683
1841,1834,1759
1893,1845,1899
1878,1687,1833
1859,1838,1862
1875,1860,1849
1936,1845,1903
1847,1853,1879
1759,1813,1809
1791,1875,1822
1851,1866,1808
1861,1854,1831
1878,1807,1932
1893,1889,2009
1850,1863,1808
1813,1791,1728
1839,1872,1907
1861,1853,1913
1885,1957,1834
1824,1728,1766
1819,1689,1846
1862,1750,1883
1847,1823,1842
1865,1700,1705
1857,1809,1855
1825,1924,1937
1830,1958,1853
1808,1813,1834
1878,1818,1989
1871,1813,1802
1831,1821,1749
1847,1831,1810
1853,1834,1930
1847,1904,1922
1843,1721,1743
1819,1776,1787
1822,1849,1814
1872,1856,1855
1885,1953,1886
1858,1835,1846
1888,1821,1994
1845,1769,1847
1822,1837,1808
1833,1767,1771
1838,1781,1847
1851,1873,1899
1871,1855,1869
1924,1871,1959
1827,1771,1842
1840,1765,1762
1858,1851,1847
1840,1833,1875
1843,1749,1779
1886,1759,1774
1861,1903,1887
1826,1891,1862
1831,1819,1824
1869,1792,1868
1836,1888,1914
1845,1871,1871
1872,1856,1845
1900,1883,1887
1883,1812,1821
1840,1791,1763
1808,1869,1742
1837,1798,1872
1881,1879,1959
1853,1772,1862
1847,1817,1793
1854,1781,1822
1851,1827,1917
1842,1790,1856
1853,1783,1853
1863,1850,1872
1830,1840,1834
1821,1830,1874
1827,1785,1776
1868,1757,1743
1872,1861,1857
1868,1829,1845
1825,1865,1875
1867,1937,2005
1904,1970,1976
1866,1783,1680
1807,1723,1699
1782,1744,1834
1834,1831,1874
1888,1882,1941
1838,1788,1838
1847,1819,1849
1897,1849,1872
1898,1648,1777
1866,1789,1788
1819,1820,1779
1802,1854,1847
1822,1889,1915
1886,1867,1936
1913,1840,1895
1827,1840,1866
1827,1840,1831
1827,1891,1839
1855,1887,1814
1907,1859,2007
1861,1721,1814
1791,1776,1722
1837,1798,1726
1869,1886,1897
1874,1926,1935
1859,1766,1827
1843,1745,1792
1826,1773,1825
1847,1869,1950
1893,1817,1914
1877,1797,1822
1826,1801,1733
1776,1865,1767
1829,1871,1829
1844,1815,1938
1841,1873,1887
1826,1802,1776
1879,1812,1859
1883,1883,1984
1872,1834,1887
1850,1791,1781
1850,1792,1789
1872,1875,1843
1818,1843,1819
1810,1803,1845
1825,1780,1808
1866,1827,1795
1913,1778,1826
1876,1785,1854
1813,1781,1811
1819,1821,1795
1867,1862,1833
1872,1797,1898
1838,1857,1902
1818,1857,1837
1873,1931,1906
1819,1751,1798
1835,1744,1760
1845,1811,1850
1867,1840,1851
1872,1808,1873
1873,1790,1876
1840,1859,1872
1870,1872,1838
1883,1827,1787
1897,1798,1815
1872,1864,1912
1821,1840,1797
1813,1797,1786
1835,1805,1811
1873,1859,1925
1902,1867,1990
1855,1809,1791
1814,1738,1683
1844,1808,1835
1855,1885,1968
1827,1814,1792
1839,1825,1787
1872,1879,1869
1906,1856,1986
1808,1785,1843
1798,1755,1733
1866,1923,1809
1858,1802,1810
1846,1797,1847
1875,1808,1823
1834,1885,1904
1840,1905,1942
1841,1886,1969
1813,1782,1763
1811,1745,1635
1859,1815,1757
1859,1839,1886
1911,1844,1952
1919,1882,1901
1813,1809,1823
1753,1776,1767
1814,1741,1776
1889,1814,1871
1814,1850,1850
1776,1845,1823
1837,1899,2000
1859,1869,1941
1822,1825,1749
1847,1803,1762
1831,1807,1793
1830,1869,1825
1831,1808,1853
1862,1870,1988
1878,1799,1921
1891,1807,1669
1885,1866,1712
1840,1840,1952
1870,1813,1891
1790,1783,1731
1759,1808,1738
1801,1813,1840
1857,1953,1929
1872,1832,1986
1845,1805,1958
1818,1811,1757
1798,1773,1749
1866,1851,1952
1845,1840,1851
1840,1812,1791
1823,1792,1751
1830,1809,1761
1890,1933,2041
1872,1899,1867
1809,1754,1674
1838,1836,1744
1889,1771,1855
1825,1682,1843
1835,1874,1903
1874,1943,1975
1829,1851,1840
1786,1850,1793
1826,1861,1887
1835,1799,1801
1808,1781,1808
1837,1751,1825
1855,1756,1868
1887,1922,2002
1861,1877,1848
1831,1825,1711
1872,1843,1845
1821,1842,1900
1840,1763,1814
1824,1807,1814
1843,1851,1859
1898,1839,1825
1847,1808,1799
1803,1856,1805
1833,1872,1840
1827,1719,1863
1846,1863,1840
1871,1831,1826
1871,1837,1845
1850,1867,1872
1840,1869,1903
1827,1840,1873
1866,1814,1929
1878,1855,1947
1840,1842,1882
1839,1744,1696
1859,1743,1772
1826,1841,1786
1863,1967,1897
1841,1861,1891
1808,1808,1890
1842,1794,1792
1936,1871,1851
1911,1853,1872
1786,1805,1819
1761,1759,1819
1846,1804,1791
1889,1824,1856
1856,1818,1919
1817,1853,1858
1853,1886,1876
1849,1837,1870
1831,1633,1734
1838,1771,1769
1838,1903,1933
1857,1910,1979
1863,1782,1901
1872,1919,1763
1831,1837,1770
1808,1757,1805
1840,1775,1854
1898,1825,1867
1914,1862,1889
1809,1856,1856
1806,1810,1840
1823,1822,1815
1839,1774,1870
1858,1867,1941
1841,1887,1872
1862,1812,1763
1861,1808,1851
1866,1815,1850
1827,1742,1791
1872,1845,1933
1844,1890,1945
1790,1843,1760
1818,1902,1782
1878,1911,1918
1856,1865,1860
1839,1813,1839
1825,1787,1883
1838,1823,1863
1852,1831,1831
1818,1835,1839
1789,1730,1786
1838,1744,1840
1885,1870,1911
1857,1808,1830
1850,1829,1870
1856,1860,1835
1871,1774,1776
1888,1809,1794
1814,1868,1892
1873,1985,1951
1834,1826,1818
1799,1813,1843
1853,1841,1920
1842,1859,1851
1850,1808,1751
1854,1808,1762
1792,1820,1840
1831,1840,1889
1855,1842,1916
1868,1840,1872
1863,1792,1797
1885,1806,1838
1865,1835,1872
1840,1827,1907
1841,1785,1808
1856,1791,1787
1856,1761,1819
1822,1765,1802
1819,1839,1862
1872,1862,1851
1851,1838,1888
1838,1899,1922
1838,1902,1888
1869,1867,1820
1856,1875,1794
1811,1777,1798
1813,1738,1811
1863,1835,1913
1910,1949,1939
1861,1808,1845
1831,1749,1811
1845,1789,1838
1855,1843,1879
1840,1804,1825
1839,1812,1795
1851,1875,1802
1846,1794,1810
1866,1777,1937
1837,1839,1963
1792,1807,1786
1845,1815,1749
1870,1835,1807
1879,1877,1998
1835,1877,1867
1852,1809,1787
1840,1798,1776
1861,1811,1837
1882,1775,1959
1841,1807,1874
1815,1797,1774
1877,1799,1718
1808,1827,1862
1824,1873,1973
1811,1854,1851
1841,1691,1741
1814,1833,1853
1865,1983,2077
1879,1904,1954
1809,1758,1779
1821,1763,1693
1866,1817,1741
1923,1780,1809
1890,1887,1985
1872,1934,2000
1819,1845,1802
1795,1799,1750
1827,1734,1847
1865,1774,1847
1842,1877,1762
1855,1764,1794
1794,1762,1876
1776,1864,1882
1841,1867,1856
1829,1872,1828
1839,1859,1872
1858,1866,1939
