1835,1813,1851
1843,1830,1843
1845,1830,1850
1839,1811,1842
1850,1836,1841
1860,1856,1839
1845,1831,1841
1839,1821,1845
1856,1823,1856
1883,1840,1824
1867,1819,1798
1842,1795,1840
1811,1825,1889
1792,1863,1874
1830,1840,1822
1818,1799,1823
1819,1840,1876
1814,1853,1879
1819,1835,1841
1827,1831,1847
1843,1840,1858
1865,1809,1858
1834,1814,1845
1813,1827,1835
1817,1794,1838
1836,1817,1844
1857,1812,1841
1840,1810,1851
1839,1841,1853
1840,1840,1853
1842,1809,1831
1835,1805,1839
1857,1764,1803
1839,1899,1875
1813,1901,1882
1836,1863,1869
1846,1850,1838
1872,1840,1789
1841,1824,1854
1822,1789,1857
1828,1825,1872
1829,1827,1862
1809,1831,1855
1817,1831,1859
1830,1841,1845
1847,1905,1838
1834,1819,1825
1839,1745,1840
1840,1853,1851
1844,1783,1846
1853,1790,1859
1834,1795,1865
1823,1837,1879
1845,1885,1840
1856,1827,1811
1824,1757,1822
1850,1695,1815
1840,1874,1869
1815,1943,1873
1825,1862,1857
1840,1805,1845
1823,1835,1847
1825,1840,1850
1839,1833,1840
1850,1838,1847
1857,1841,1858
1840,1846,1845
1820,1824,1849
1840,1779,1822
1859,1723,1799
1849,1834,1841
1823,1850,1888
1818,1840,1875
1829,1841,1867
1840,1814,1846
1853,1765,1810
1841,1872,1856
1845,1813,1855
1853,1777,1840
1834,1791,1846
1811,1854,1872
1831,1877,1840
1835,1867,1843
1825,1830,1863
1863,1855,1856
1865,1841,1855
1822,1882,1847
1809,1799,1842
1830,1808,1851
1867,1773,1820
1842,1835,1856
1816,1847,1868
1838,1883,1851
1834,1840,1845
1837,1824,1840
1843,1811,1857
1840,1840,1866
1847,1855,1799
1827,1799,1825
1823,1847,1877
1821,1775,1850
1830,1822,1881
1808,1784,1856
1831,1803,1841
1834,1853,1856
1837,1875,1857
1840,1827,1842
1847,1786,1820
1869,1870,1855
1839,1863,1862
1806,1840,1855
1813,1827,1853
1840,1870,1840
1840,1847,1842
1841,1831,1846
1831,1776,1845
1834,1808,1859
1843,1853,1858
1846,1866,1879
1841,1751,1810
1852,1819,1835
1836,1840,1847
1808,1813,1853
1810,1807,1854
1830,1846,1854
1829,1871,1872
1837,1835,1853
1829,1805,1843
1845,1827,1827
1863,1745,1799
1821,1853,1856
1831,1791,1854
1814,1872,1873
1828,1881,1856
1828,1844,1845
1834,1873,1840
1830,1762,1823
1826,1829,1856
1830,1824,1875
1823,1820,1857
1847,1840,1850
1856,1871,1835
1861,1872,1833
1841,1801,1858
1851,1786,1869
1841,1827,1866
1831,1826,1842
1838,1831,1842
1850,1855,1856
1885,1869,1847
1857,1794,1838
1824,1777,1839
1835,1837,1849
1840,1841,1851
1864,1806,1853
1831,1843,1847
1840,1776,1807
1825,1797,1825
1809,1882,1890
1829,1910,1880
1857,1846,1846
1838,1814,1842
1830,1841,1851
1827,1805,1842
1847,1810,1859
1850,1837,1852
1863,1843,1833
1846,1776,1837
1840,1821,1829
1820,1851,1840
1835,1801,1839
1823,1808,1867
1831,1858,1871
1843,1923,1858
1833,1819,1835
1833,1775,1846
1843,1807,1840
1855,1717,1791
1835,1822,1847
1822,1882,1886
1831,1894,1893
1836,1869,1847
1837,1840,1832
1840,1834,1839
1850,1840,1847
1856,1850,1839
1854,1838,1844
1847,1857,1855
1849,1841,1853
1851,1847,1840
1843,1793,1795
1839,1734,1817
1818,1897,1883
1827,1925,1870
1839,1830,1840
1809,1775,1851
1813,1814,1872
1837,1826,1850
1850,1749,1808
1872,1761,1827
1840,1844,1856
1797,1879,1871
1801,1856,1860
1811,1826,1845
1834,1840,1840
1842,1855,1843
1844,1840,1842
1840,1834,1845
1852,1840,1840
1858,1848,1840
1843,1840,1839
1838,1831,1849
1831,1845,1845
1839,1856,1840
1849,1818,1831
1875,1799,1835
1844,1881,1840
1813,1933,1839
1831,1823,1825
1846,1687,1808
1839,1796,1863
1826,1872,1832
1843,1722,1841
1803,1852,1872
1807,1865,1845
1811,1840,1840
1837,1839,1843
1820,1822,1843
1819,1839,1846
1838,1851,1840
1846,1853,1840
1842,1833,1847
1856,1830,1841
1853,1840,1840
1846,1834,1841
1853,1822,1836
1840,1837,1833
1832,1856,1840
1813,1850,1841
1822,1838,1844
1841,1711,1797
1850,1837,1841
1852,1898,1875
1829,1837,1883
1843,1840,1856
1870,1850,1819
1840,1755,1829
1847,1760,1850
1838,1830,1846
1840,1904,1855
1845,1838,1843
1856,1825,1823
1830,1806,1849
1808,1837,1854
1811,1823,1853
1834,1799,1835
1845,1861,1856
1872,1879,1840
1859,1833,1802
1793,1758,1853
1813,1799,1870
1827,1835,1859
1820,1825,1844
1830,1819,1841
1851,1847,1840
1856,1840,1840
1840,1831,1840
1838,1813,1840
1849,1835,1840
1855,1846,1840
1843,1817,1831
1840,1837,1850
1840,1814,1859
1840,1836,1819
1858,1829,1807
1856,1885,1856
1818,1813,1863
1839,1872,1838
1835,1761,1808
1837,1712,1815
1854,1803,1853
1841,1774,1835
1810,1838,1867
1839,1858,1874
1840,1871,1846
1827,1792,1837
1814,1807,1838
1823,1833,1854
1857,1837,1849
1873,1823,1835
1847,1809,1835
1818,1855,1849
1840,1861,1854
1849,1873,1858
1852,1850,1831
1841,1843,1846
1851,1898,1841
1853,1851,1834
1845,1856,1824
1835,1776,1839
1858,1829,1837
1847,1855,1808
1821,1757,1861
1809,1766,1854
1833,1797,1856
1876,1821,1843
1853,1889,1837
1825,1810,1858
1837,1806,1872
1843,1809,1834
1853,1768,1792
1847,1805,1840
1854,1835,1867
1871,1831,1840
1843,1839,1840
1838,1840,1844
1855,1856,1856
1843,1909,1845
1839,1906,1865
1839,1843,1866
1854,1808,1841
1869,1930,1823
1874,1777,1776
1843,1812,1862
1827,1808,1872
1807,1824,1861
1840,1825,1846
1839,1803,1840
1842,1857,1848
1853,1831,1835
1855,1811,1841
1831,1801,1844
1841,1787,1835
1862,1849,1839
1859,1844,1842
1855,1825,1842
1863,1817,1825
1857,1847,1809
1876,1777,1819
1847,1776,1820
1823,1870,1882
1829,1882,1872
1833,1866,1859
1851,1804,1853
1846,1943,1829
1837,1829,1814
1831,1755,1849
1835,1755,1869
1838,1808,1855
1840,1869,1853
1854,1819,1823
1827,1819,1831
1835,1807,1843
1844,1822,1843
1856,1821,1841
1852,1815,1843
1866,1835,1841
1855,1837,1837
1847,1825,1840
1857,1791,1840
1876,1776,1805
1851,1870,1855
1840,1865,1863
1826,1781,1854
1834,1868,1865
1836,1909,1872
1831,1871,1854
1840,1815,1835
1859,1749,1809
1859,1820,1853
1851,1853,1858
1859,1830,1857
1858,1825,1837
1848,1895,1842
1845,1834,1853
1841,1813,1854
1848,1878,1861
1860,1819,1851
1884,1763,1839
1829,1805,1849
1791,1808,1833
1798,1842,1872
1810,1814,1875
1823,1777,1872
1839,1795,1856
1843,1804,1842
1835,1855,1855
1834,1857,1884
1850,1858,1861
1852,1863,1829
1842,1834,1845
1846,1819,1858
1850,1841,1857
1858,1817,1837
1857,1837,1831
1856,1872,1861
1823,1840,1856
1839,1887,1840
1867,1808,1758
1847,1646,1798
1778,1829,1920
1799,1886,1905
1840,1838,1858
1805,1782,1846
1804,1831,1852
1823,1859,1841
1824,1818,1838
1837,1786,1840
1852,1794,1847
1840,1839,1857
1840,1840,1850
1838,1839,1851
1839,1850,1848
1840,1870,1850
1840,1823,1840
1840,1786,1835
1852,1814,1829
1872,1874,1853
1851,1857,1849
1820,1840,1851
1819,1814,1848
1856,1823,1846
1854,1771,1799
1835,1863,1815
1808,1776,1855
1838,1789,1860
1847,1797,1850
1840,1849,1868
1817,1847,1871
1837,1886,1837
1856,1804,1834
1840,1725,1812
1830,1833,1856
1843,1870,1846
1841,1869,1844
1836,1908,1865
1846,1821,1866
1866,1840,1862
1840,1808,1853
1842,1808,1844
1845,1840,1837
1835,1842,1824
1833,1745,1789
1821,1809,1858
1825,1808,1875
1872,1831,1840
1840,1826,1839
1808,1870,1840
1815,1817,1841
1834,1812,1858
1841,1807,1855
1839,1808,1862
1841,1817,1840
1856,1840,1840
1855,1832,1843
1840,1815,1851
1830,1824,1855
1853,1845,1840
1851,1865,1837
1840,1809,1850
1876,1794,1841
1856,1837,1859
1845,1821,1839
1833,1802,1860
1822,1872,1867
1842,1887,1837
1829,1776,1840
1863,1787,1854
1835,1802,1852
1827,1811,1840
1823,1967,1844
1815,1767,1843
1814,1762,1863
1834,1806,1853
1840,1810,1840
1839,1808,1850
1852,1825,1841
1857,1839,1843
1863,1856,1845
1846,1808,1846
1840,1806,1845
1855,1835,1840
1863,1808,1839
1858,1744,1810
1840,1895,1886
1813,1890,1867
1825,1786,1818
1824,1790,1841
1845,1808,1845
1871,1746,1788
1844,1826,1830
1827,1897,1879
1817,1897,1881
1827,1817,1856
1838,1803,1837
1836,1776,1826
1831,1808,1855
1843,1866,1841
1840,1819,1842
1837,1806,1854
1835,1814,1839
1849,1815,1837
1845,1775,1806
1847,1753,1817
1853,1865,1874
1856,1902,1887
1830,1850,1852
1821,1767,1809
1838,1780,1827
1867,1831,1840
1840,1858,1856
1863,1850,1868
1872,1840,1836
1825,1856,1850
1795,1745,1821
1817,1762,1825
1851,1866,1856
1843,1727,1795
1808,1782,1872
1810,1831,1889
1835,1835,1857
1846,1829,1841
1866,1827,1845
1851,1822,1854
1845,1859,1851
1819,1841,1833
1829,1789,1821
1840,1841,1840
1841,1840,1851
1847,1859,1862
1847,1841,1858
1849,1807,1851
1853,1855,1837
1838,1802,1822
1861,1820,1823
1861,1874,1843
1826,1869,1799
1841,1826,1826
1835,1781,1853
1799,1774,1870
1792,1798,1841
1839,1808,1808
1828,1794,1857
1830,1794,1872
1817,1855,1862
1827,1878,1851
1838,1863,1845
1840,1808,1841
1857,1817,1851
1859,1833,1847
1846,1857,1840
1840,1803,1845
1846,1808,1849
1861,1843,1858
1853,1794,1841
1853,1807,1838
1840,1843,1840
1872,1840,1831
1847,1840,1839
1826,1813,1815
1834,1803,1845
1839,1789,1840
1834,1824,1860
1820,1882,1903
1872,1893,1870
1810,1789,1802
1797,1726,1808
1817,1776,1831
1814,1881,1875
1830,1873,1859
1837,1827,1842
1831,1801,1855
1840,1808,1856
1840,1840,1847
1840,1829,1842
1854,1890,1846
1850,1783,1823
1861,1738,1826
1818,1800,1851
1809,1881,1863
1827,1865,1841
1856,1857,1847
1843,1839,1854
1827,1813,1863
1823,1813,1840
1829,1840,1840
1840,1840,1845
1844,1829,1843
1869,1840,1840
1871,1840,1834
1856,1872,1835
1813,1776,1853
1830,1791,1847
1870,1854,1818
1856,1826,1847
1843,1712,1791
1827,1771,1857
1817,1865,1903
1819,1853,1872
1835,1814,1861
1856,1791,1798
1861,1856,1827
1831,1877,1883
1839,1815,1887
1849,1862,1874
1827,1819,1840
1854,1789,1826
1833,1790,1841
1836,1841,1857
1843,1830,1855
1834,1824,1844
1841,1840,1850
1854,1840,1849
1866,1787,1840
1840,1823,1842
1851,1840,1834
1859,1789,1821
1840,1825,1866
1825,1809,1857
1831,1826,1840
1824,1778,1869
1825,1825,1862
1827,1898,1883
1846,1776,1835
1851,1790,1840
1843,1863,1857
1845,1843,1852
1837,1814,1856
1835,1819,1851
1859,1845,1840
1854,1831,1827
1847,1835,1846
1846,1838,1829
1871,1745,1819
1833,1847,1872
1810,1827,1871
1847,1823,1856
1856,1840,1853
1821,1805,1840
1823,1825,1837
1837,1861,1833
1840,1805,1840
1840,1808,1869
1829,1809,1873
1825,1822,1859
1845,1840,1829
1857,1815,1825
1819,1805,1868
1817,1829,1856
1843,1809,1821
1859,1792,1815
1835,1873,1859
1853,1876,1856
1841,1828,1844
1850,1785,1823
1859,1806,1831
1840,1857,1852
1813,1854,1843
1822,1778,1827
1840,1803,1852
1839,1780,1857
1837,1835,1841
1809,1882,1845
1818,1886,1854
1851,1892,1849
1868,1856,1859
1825,1807,1856
1795,1767,1839
1823,1792,1841
1843,1840,1851
1853,1863,1829
1853,1831,1799
1843,1776,1854
1840,1780,1883
1838,1821,1873
1836,1775,1841
1867,1790,1838
1855,1838,1850
1838,1847,1851
1843,1843,1854
1838,1829,1847
1831,1775,1824
1867,1727,1797
1840,1795,1843
1831,1877,1879
1826,1913,1879
1808,1870,1853
1831,1889,1827
1858,1807,1799
1847,1839,1879
1815,1824,1871
1806,1815,1855
1826,1775,1845
1834,1807,1840
1827,1809,1840
1842,1765,1842
1852,1840,1861
1851,1914,1843
1843,1810,1812
1846,1747,1851
1853,1793,1863
1861,1834,1847
1872,1826,1826
1855,1774,1837
1831,1793,1840
1840,1763,1837
1837,1823,1811
1829,1851,1842
1811,1872,1873
1821,1859,1882
1857,1885,1853
1825,1767,1841
1823,1774,1855
1861,1797,1852
1851,1812,1840
1843,1858,1855
1828,1841,1851
1840,1834,1845
1834,1813,1843
1840,1815,1850
1854,1813,1870
1872,1809,1840
1841,1797,1808
1840,1820,1821
1838,1837,1847
1858,1871,1805
1876,1744,1808
1807,1807,1872
1792,1844,1885
1830,1837,1858
1858,1799,1834
1833,1808,1827
1815,1840,1872
1837,1831,1850
1854,1834,1835
1840,1761,1805
1834,1798,1854
1834,1852,1879
1841,1846,1869
1840,1841,1849
1840,1849,1847
1846,1855,1840
1853,1861,1837
1861,1819,1834
1857,1792,1849
1856,1853,1816
1835,1806,1839
1806,1805,1871
1817,1822,1865
1850,1831,1851
1845,1774,1822
1844,1893,1826
1834,1881,1826
1821,1816,1856
1842,1794,1857
1839,1833,1855
1849,1867,1851
1854,1826,1842
1841,1799,1840
1868,1808,1861
1859,1824,1843
1855,1871,1823
1835,1799,1811
1835,1759,1831
1819,1839,1870
1824,1863,1862
1837,1808,1820
1841,1808,1831
1838,1782,1850
1837,1829,1862
1818,1808,1856
1808,1842,1853
1839,1845,1856
1850,1869,1835
1832,1831,1829
1831,1840,1867
1850,1851,1855
1843,1843,1840
1849,1811,1837
1860,1841,1846
1841,1856,1855
1840,1855,1856
1840,1840,1839
1850,1777,1788
1832,1911,1898
1845,1866,1872
1850,1791,1845
1837,1778,1827
1823,1777,1842
1823,1766,1825
1857,1859,1841
1823,1845,1843
1840,1802,1842
1837,1806,1833
1841,1797,1839
1839,1802,1844
1859,1816,1842
1850,1798,1804
1849,1808,1822
1846,1932,1861
1831,1842,1863
1855,1703,1783
1860,1822,1845
1810,1882,1890
1801,1872,1878
1836,1856,1853
1832,1843,1840
1833,1877,1872
1856,1833,1872
1841,1786,1829
1840,1809,1826
1814,1825,1852
1837,1883,1834
1851,1853,1847
1843,1779,1855
1843,1813,1837
1853,1771,1840
1857,1808,1847
1820,1824,1854
1824,1840,1850
1858,1793,1839
1858,1822,1828
1875,1774,1806
1840,1815,1856
1841,1847,1865
1833,1897,1840
1840,1779,1805
1817,1797,1872
1820,1846,1885
1850,1843,1851
1850,1828,1819
1859,1840,1846
1830,1892,1871
1808,1838,1855
1823,1809,1825
1835,1845,1840
1840,1822,1845
1836,1824,1835
1834,1856,1833
1831,1799,1825
1840,1817,1840
1856,1868,1823
1843,1809,1820
1861,1792,1808
1879,1870,1872
1840,1815,1849
1801,1766,1831
1792,1827,1870
1822,1835,1859
1853,1843,1840
1838,1840,1838
1840,1854,1875
1871,1863,1947
1853,1861,1856
1851,1791,1727
1809,1785,1774
1787,1789,1827
1806,1865,1841
1819,1826,1842
1845,1798,1839
1840,1822,1824
1845,1808,1812
1813,1830,1863
1805,1846,1863
1823,1824,1861
1840,1840,1853
1846,1860,1808
1837,1826,1835
1840,1732,1824
1840,1747,1825
1849,1768,1841
1834,1906,1895
1870,1953,2017
1888,1940,2061
1850,1813,1830
1799,1726,1637
1776,1771,1681
1847,1763,1809
1854,1869,1909
1898,1841,1789
1783,1798,1782
1761,1803,1805
1781,1774,1840
1827,1792,1846
1853,1792,1846
1840,1821,1838
1815,1825,1835
1836,1783,1822
1843,1779,1791
1841,1841,1867
1825,1849,1915
1835,1872,1904
1835,1867,1845
1859,1795,1776
1865,1826,1840
1857,1911,2079
1809,1833,1904
1792,1802,1683
1825,1802,1743
1814,1791,1814
1839,1816,1841
1881,1920,1867
1827,1812,1854
1805,1727,1822
1797,1745,1858
1841,1808,1836
1811,1819,1847
1809,1803,1829
1853,1813,1830
1875,1872,1875
1877,1853,1838
1851,1776,1809
1826,1854,1867
1863,1927,1973
1883,1873,1899
1839,1803,1759
1820,1839,1799
1812,1794,1811
1859,1798,1904
1869,1850,1940
1808,1831,1746
1801,1729,1755
1808,1835,1808
1825,1815,1856
1857,1785,1856
1837,1753,1863
1808,1853,1897
1803,1853,1856
1825,1851,1856
1851,1865,1903
1863,1853,1883
1863,1811,1797
1866,1827,1840
1845,1851,1833
1874,1843,1799
1835,1821,1847
1813,1817,1861
1843,1882,1936
1856,1851,1862
1847,1719,1712
1835,1795,1783
1839,1750,1868
1799,1835,1883
1806,1895,1887
1873,1950,1898
1836,1831,1838
1814,1789,1833
1829,1786,1873
1803,1802,1839
1811,1840,1867
1837,1823,1851
1873,1825,1854
1863,1902,1901
1830,1780,1781
1808,1744,1758
1807,1846,1879
1825,1854,1891
1867,1782,1793
1819,1805,1840
1835,1867,1933
1830,1875,1991
1813,1861,1832
1808,1794,1686
1821,1786,1761
1840,1869,1857
1857,1840,1843
1867,1713,1820
1803,1840,1919
1840,1862,1984
1843,1837,1824
1773,1787,1728
1776,1839,1771
1817,1856,1862
1831,1778,1859
1821,1758,1826
1841,1843,1889
1903,1892,1982
1904,1899,1936
1763,1808,1757
1751,1737,1699
1771,1780,1783
1815,1842,1883
1806,1782,1826
1808,1784,1798
1808,1862,1840
1842,1894,1903
1846,1827,1876
1808,1863,1791
1810,1742,1803
1813,1840,1845
1859,1840,1904
1853,1808,1915
1829,1830,1838
1786,1805,1843
1776,1751,1808
1773,1743,1802
1817,1805,1852
1851,1840,1924
1852,1770,1821
1831,1882,1929
1791,1803,1797
1781,1807,1766
1783,1815,1815
1805,1809,1829
1809,1842,1858
1857,1878,1947
1868,1846,1936
1827,1792,1840
1792,1733,1776
1812,1787,1776
1813,1837,1833
1843,1899,1886
1822,1759,1907
1809,1728,1819
1791,1751,1791
1821,1785,1856
1829,1831,1873
1791,1829,1872
1776,1842,1900
1817,1811,1879
1792,1792,1814
1779,1829,1775
1835,1807,1811
1824,1787,1906
1812,1781,1970
1840,1790,1875
1829,1801,1838
1792,1758,1747
1870,1750,1728
1904,1822,1947
1791,1936,2000
1739,1811,1920
1742,1763,1717
1792,1741,1767
1884,1826,1867
1838,1867,1905
1795,1794,1861
1808,1825,1835
1792,1742,1871
1790,1739,1910
1831,1776,1840
1824,1795,1840
1789,1794,1831
1808,1808,1881
1841,1741,1810
1846,1789,1811
1806,1875,1788
1795,1787,1859
1825,1773,1903
1821,1899,1850
1863,1840,1909
1860,1840,1950
1766,1754,1803
1751,1729,1711
1827,1884,1840
1868,1819,1979
1827,1709,1927
1756,1763,1802
1781,1747,1723
1782,1744,1796
1840,1776,1891
1855,1778,1904
1840,1839,1881
1789,1831,1840
1782,1849,1947
1806,1871,1909
1808,1810,1862
1782,1760,1747
1791,1801,1804
1851,1851,1967
1839,1767,1906
1773,1774,1822
1765,1673,1791
1803,1795,1809
1840,1843,1794
1840,1838,1931
1844,1760,1974
1766,1774,1830
1712,1733,1711
1755,1766,1789
1849,1802,1893
1919,1878,1999
1859,1781,1859
1779,1804,1868
1739,1843,1840
1781,1812,1759
1833,1792,1835
1819,1713,1814
1779,1750,1875
1833,1837,1981
1831,1856,1902
1807,1754,1755
1751,1785,1808
1806,1789,1894
1792,1769,1822
1833,1853,2013
1829,1801,1872
1808,1793,1755
1882,1787,1801
1821,1806,1849
1790,1802,1887
1792,1813,1911
1767,1776,1822
1773,1771,1777
1869,1812,1869
1859,1735,1862
1787,1802,1821
1782,1813,1824
1841,1866,1931
1903,1936,1998
1807,1789,1883
1742,1649,1670
1751,1706,1773
1797,1827,1860
1821,1840,1904
1821,1856,1963
1825,1864,1943
1844,1873,1831
1831,1791,1765
1813,1744,1765
1827,1855,1852
1826,1871,1919
1825,1826,1872
1828,1797,1936
1840,1758,1831
1815,1731,1763
1857,1739,1781
1866,1782,1923
1803,1920,1930
1753,1906,1853
1779,1821,1791
1834,1779,1911
1850,1821,2052
1809,1827,1872
1792,1808,1739
1823,1802,1792
1856,1787,1876
1832,1801,1785
1802,1813,1797
1808,1793,1854
1836,1821,1910
1861,1822,1917
1856,1706,1794
1814,1823,1819
1794,1919,1872
1828,1845,1904
1844,1830,1968
1818,1819,1866
1862,1850,1879
1808,1826,1893
1797,1793,1759
1920,1921,1955
1881,1799,1891
1767,1664,1652
1773,1757,1762
1805,1773,1872
1834,1878,1929
1835,1901,1916
1836,1820,1818
1818,1779,1825
1840,1854,1936
1834,1882,1899
1867,1907,1824
1839,1831,1843
1869,1799,1898
1822,1836,1904
1823,1818,1840
1826,1806,1813
1847,1808,1793
1887,1879,1935
1893,1820,1936
1841,1772,1819
1786,1858,1750
1815,1858,1786
1872,1776,1894
1872,1863,1935
1839,1783,1837
1821,1817,1885
1815,1872,1852
1829,1849,1875
1901,1835,1863
1841,1775,1808
1810,1793,1828
1820,1856,1877
1874,1876,1939
1872,1885,1982
1815,1809,1805
1831,1815,1808
1865,1853,1923
1858,1837,1842
1860,1776,1769
1871,1841,1889
1870,1937,2002
1842,1919,1809
1794,1795,1754
1789,1755,1889
1865,1726,1925
1829,1802,1845
1860,1783,1783
1872,1844,1884
1802,1853,1888
1827,1862,1865
1856,1879,1945
1849,1851,1869
1826,1755,1751
1856,1791,1813
1872,1915,2026
1862,1837,1904
1856,1814,1725
1870,1877,1808
1906,1923,1987
1921,1834,1982
1805,1791,1857
1793,1845,1835
1822,1886,1790
1797,1760,1782
1806,1729,1826
1872,1812,1935
1832,1823,1909
1829,1806,1825
1826,1759,1773
1841,1834,1878
1913,1887,1975
1834,1851,1843
1789,1842,1814
1825,1831,1827
1853,1855,1840
1873,1872,1899
1889,1881,1955
1888,1903,1958
1821,1759,1734
1809,1771,1762
1875,1930,1943
1886,1846,1912
1877,1792,1939
1803,1839,1863
1788,1807,1737
1818,1730,1744
1857,1854,1920
1873,1895,1994
1886,1895,1982
1861,1887,1869
1819,1793,1712
1803,1825,1793
1838,1835,1904
1867,1822,1875
1850,1852,1855
1842,1869,1909
1840,1835,1853
1862,1789,1778
1891,1945,1865
1901,1811,1857
1840,1757,1824
1838,1881,1841
1856,1921,1901
1872,1761,1915
1872,1822,1920
1813,1860,1863
1779,1840,1747
1834,1895,1837
1855,1904,1970
1842,1759,1838
1861,1819,1776
1872,1836,1856
1847,1840,1837
1877,1827,1814
1856,1824,1795
1873,1834,1843
1857,1871,1886
1819,1892,1899
1840,1860,1889
1862,1731,1780
1874,1807,1873
1869,1872,1911
1813,1883,1827
1822,1825,1827
1840,1900,1878
1851,1903,1849
1919,1887,1946
1872,1751,1884
1802,1742,1739
1819,1857,1733
1843,1822,1838
1837,1819,1893
1835,1806,1829
1851,1789,1807
1853,1742,1820
1833,1840,1865
1842,1899,1863
1870,1889,1904
1926,1838,1926
1904,1872,1918
1856,1883,1829
1839,1894,1814
1831,1783,1767
1871,1808,1779
1862,1855,1818
1810,1849,1915
1856,1891,2096
1840,1775,1835
1834,1698,1666
1853,1939,1826
1842,1799,1808
1873,1779,1825
1850,1821,1901
1872,1904,1979
1819,1891,1871
1827,1787,1754
1895,1863,1904
1883,1858,1840
1856,1766,1813
1839,1829,1820
1856,1857,1935
1853,1814,1808
1873,1793,1744
1898,1918,1865
1887,1971,1996
1825,1789,1911
1791,1763,1792
1808,1689,1705
1863,1884,1900
1891,1938,1953
1856,1810,1793
1840,1778,1818
1847,1871,1977
1854,1867,1854
1877,1843,1765
1817,1851,1856
1808,1808,1845
1852,1841,1840
1878,1901,1874
1883,1809,1839
1891,1815,1861
1895,1919,1952
1885,1865,1937
1795,1750,1760
1806,1712,1705
1893,1762,1840
1878,1936,1920
1858,1923,1995
1830,1855,1901
1843,1861,1840
1851,1831,1746
1859,1778,1776
1851,1851,1909
1894,1914,1977
1866,1846,1858
1824,1744,1699
1866,1887,1765
1891,1945,1907
1873,1810,1858
1837,1726,1851
1847,1736,1865
1855,1783,1782
1840,1837,1823
1882,1925,2001
1811,1884,1874
1778,1882,1789
1827,1861,1801
1876,1840,1931
1860,1822,1889
1854,1835,1794
1911,1913,1923
1857,1834,1872
1845,1808,1781
1902,1879,1877
1879,1887,1922
1865,1835,1927
1847,1821,1856
1840,1791,1754
1884,1834,1806
1845,1818,1809
1845,1831,1821
1906,1758,1847
1904,1746,1867
1774,1882,1843
1777,1936,1892
1862,1895,1879
1893,1889,1903
1877,1870,1910
1859,1881,1938
1861,1858,1856
1856,1855,1773
1856,1866,1934
1852,1781,1819
1846,1791,1747
1854,1829,1803
1904,1897,1991
1939,1853,1933
1883,1849,1837
1813,1812,1776
1846,1823,1905
1892,1858,1829
1893,1851,1789
1844,1858,1839
1808,1834,1824
1850,1863,1860
1882,1810,1842
1921,1834,1982
1860,1901,1957
1803,1872,1870
1775,1786,1727
1824,1833,1808
1877,1857,1904
1899,1842,1903
1917,1854,1902
1903,1791,1748
1827,1873,1819
1840,1879,1879
1914,1902,1950
1903,1915,1826
1806,1792,1805
1811,1822,1808
1855,1836,1902
1847,1791,1871
1856,1800,1776
1872,1872,1841
1857,1900,1888
1882,1842,1808
1877,1739,1811
1895,1847,1941
1881,1883,1891
1855,1912,1844
1799,1798,1779
1841,1840,1892
1879,1854,1856
1854,1879,1898
1856,1858,1911
1854,1781,1719
1878,1877,1778
1877,1945,1856
1824,1787,1875
1858,1809,1951
1865,1831,1894
1878,1817,1770
1889,1834,1809
1872,1850,1872
1855,1869,1839
1893,1872,1870
1892,1873,1923
1901,1774,1861
1901,1851,1814
1886,1857,1893
1872,1834,1909
1858,1892,1879
1799,1806,1698
1805,1840,1778
1844,1869,1890
1833,1910,1901
1821,1840,1891
1857,1826,1838
1861,1769,1799
1834,1799,1837
1871,1831,1856
1852,1840,1866
1830,1859,1907
1863,1824,1872
1865,1771,1760
1868,1746,1763
1904,1853,1966
1874,1805,1837
1871,1887,1890
1808,1907,1823
1805,1945,1893
1834,1830,1822
1846,1795,1778
1857,1871,1829
1872,1886,1909
1885,1877,1936
1905,1927,1899
1899,1810,1872
1810,1703,1712
1788,1742,1722
1828,1808,1821
1856,1820,1875
1865,1816,1875
1873,1855,1970
1843,1872,1901
1859,1839,1811
1877,1823,1840
1863,1739,1713
1802,1901,1793
1811,1935,1913
1858,1840,1927
1897,1966,1901
1861,1811,1773
1810,1799,1819
1833,1858,1868
1872,1849,1921
1904,1791,1809
1840,1765,1776
1798,1831,1832
1843,1877,1936
1897,1829,1917
1846,1855,1853
1808,1836,1783
1841,1889,1839
1869,1872,1789
1839,1813,1767
1889,1855,1862
1886,1788,1939
1879,1840,1870
1859,1855,1840
1826,1847,1780
1829,1854,1824
1839,1899,1920
1835,1826,1799
1860,1785,1872
1847,1783,1879
1840,1872,1903
1866,1807,1811
1835,1786,1829
1840,1887,1936
1872,1892,1854
1877,1811,1728
1885,1775,1791
1901,1819,1893
1873,1844,1929
1825,1863,1827
1797,1817,1770
1840,1862,1837
1872,1863,1851
1826,1840,1799
1817,1839,1843
1904,1904,1883
1847,1756,1815
1807,1872,1810
1857,1817,1867
1868,1755,1903
1834,1835,1911
1824,1886,1975
1794,1745,1718
1843,1808,1687
1833,1839,1746
1868,1829,1846
1889,1871,1951
1925,1872,1994
1855,1875,1762
1798,1840,1785
1804,1795,1820
1834,1705,1808
1866,1814,1813
1886,1858,1804
1859,1903,1899
1840,1939,1930
1807,1853,1873
1798,1691,1754
1854,1817,1891
1867,1879,1939
1889,1842,1808
1824,1872,1921
1776,1796,1831
1818,1811,1758
1868,1879,1840
1916,1906,1955
1895,1850,1873
1805,1808,1781
1821,1825,1778
1861,1781,1762
1900,1847,1823
1890,1829,1847
1870,1809,1789
1826,1762,1849
1797,1793,1936
1786,1937,1953
1836,1956,1895
1840,1870,1887
1819,1777,1837
1792,1787,1738
1812,1821,1753
1843,1822,1857
1851,1839,1925
1898,1866,1966
1899,1831,1851
1821,1826,1837
1798,1813,1824
1842,1862,1904
1872,1854,1845
1904,1763,1807
1855,1761,1773
1839,1827,1886
1838,1839,1930
1871,1911,1891
1795,1767,1790
1796,1828,1765
1840,1833,1883
1840,1899,1893
1839,1871,1903
1833,1862,1835
1798,1782,1744
1826,1797,1792
1840,1838,1999
1872,1846,1993
1814,1774,1728
1821,1809,1747
1846,1829,1814
1856,1862,1924
1874,1872,1951
1840,1788,1783
1869,1857,1808
