1783,1883,1829
1806,1818,1831
1817,1805,1840
1787,1779,1857
1793,1797,1841
1793,1858,1827
1831,1904,1814
1743,1730,1871
1730,1739,1887
1778,1801,1865
1808,1838,1840
1793,1877,1854
1788,1827,1834
1830,1791,1765
1821,1878,1839
1745,1860,1872
1717,1816,1881
1766,1833,1870
1801,1862,1850
1799,1839,1840
1782,1885,1831
1784,1808,1814
1774,1821,1849
1776,1895,1855
1763,1808,1833
1777,1819,1840
1801,1779,1842
1782,1761,1831
1789,1791,1806
1791,1858,1838
1808,1872,1814
1790,1850,1866
1763,1805,1863
1755,1901,1851
1776,1904,1840
1751,1712,1845
1744,1760,1842
1795,1795,1840
1808,1834,1853
1791,1866,1841
1775,1822,1829
1801,1813,1834
1822,1873,1855
1792,1887,1844
1785,1812,1856
1803,1840,1839
1797,1873,1826
1777,1906,1840
1805,1783,1793
1811,1765,1822
1786,1847,1872
1774,1879,1878
1776,1875,1856
1789,1871,1821
1803,1750,1804
1770,1744,1847
1779,1834,1853
1809,1872,1838
1797,1822,1841
1781,1781,1835
1802,1840,1840
1802,1861,1854
1811,1869,1840
1787,1828,1850
1814,1906,1819
1838,1757,1759
1805,1831,1883
1749,1840,1907
1749,1901,1851
1796,1875,1825
1809,1809,1829
1767,1794,1832
1748,1767,1828
1801,1798,1802
1808,1765,1795
1773,1776,1867
1777,1838,1887
1807,1851,1862
1830,1862,1847
1818,1870,1837
1808,1839,1798
1827,1787,1836
1809,1909,1873
1803,1931,1883
1772,1857,1866
1776,1765,1840
1814,1813,1835
1780,1795,1819
1781,1887,1826
1808,1849,1839
1796,1767,1840
1775,1765,1849
1787,1847,1824
1809,1807,1812
1826,1733,1773
1793,1790,1872
1781,1872,1905
1817,1889,1870
1808,1867,1862
1795,1885,1847
1805,1861,1855
1828,1843,1861
1835,1828,1835
1810,1846,1830
1821,1910,1835
1813,1797,1834
1810,1799,1855
1803,1840,1851
1835,1962,1840
1835,1811,1837
1805,1706,1818
1771,1774,1857
1786,1847,1815
1830,1866,1835
1831,1828,1862
1808,1825,1863
1804,1867,1858
1840,1803,1858
1815,1831,1861
1807,1843,1846
1806,1826,1843
1846,1865,1871
1851,1906,1845
1819,1782,1815
1818,1786,1840
1839,1872,1858
1815,1866,1837
1820,1877,1825
1808,1765,1814
1821,1821,1877
1838,1841,1877
1789,1833,1835
1757,1767,1850
1795,1823,1884
1837,1841,1859
1841,1837,1837
1822,1876,1808
1845,1856,1813
1835,1808,1856
1808,1841,1870
1799,1822,1859
1837,1837,1856
1825,1825,1811
1810,1829,1819
1785,1835,1883
1824,1862,1899
1856,1902,1872
1836,1866,1848
1810,1808,1840
1829,1840,1847
1863,1811,1875
1831,1853,1854
1793,1773,1840
1810,1764,1855
1844,1818,1854
1851,1825,1853
1821,1857,1859
1829,1883,1856
1859,1803,1821
1826,1799,1853
1829,1821,1857
1847,1876,1827
1844,1811,1839
1842,1814,1875
1820,1862,1888
1846,1824,1870
1818,1820,1882
1805,1831,1852
1822,1810,1851
1857,1862,1878
1865,1909,1867
1840,1835,1840
1830,1798,1840
1840,1841,1857
1851,1863,1869
1852,1815,1857
1866,1814,1829
1861,1842,1850
1847,1833,1858
1819,1839,1855
1819,1842,1856
1855,1846,1852
1879,1817,1808
1858,1835,1859
1839,1887,1887
1875,1918,1867
1867,1845,1852
1821,1776,1826
1834,1809,1872
1873,1908,1891
1839,1808,1861
1827,1773,1834
1826,1806,1851
1862,1897,1821
1870,1893,1863
1842,1837,1860
1822,1759,1872
1856,1824,1854
1873,1805,1846
1861,1805,1802
1846,1872,1872
1867,1857,1893
1875,1853,1882
1904,1859,1846
1841,1823,1846
1825,1839,1855
1837,1823,1865
1840,1831,1852
1863,1847,1866
1891,1871,1889
1882,1821,1845
1850,1823,1823
1861,1889,1798
1854,1857,1869
1851,1834,1875
1840,1823,1856
1834,1776,1855
1863,1808,1860
1891,1856,1859
1862,1850,1835
1861,1836,1803
1877,1845,1871
1887,1904,1861
1831,1790,1850
1840,1818,1842
1851,1777,1855
1879,1795,1845
1846,1829,1857
1847,1811,1853
1873,1827,1850
1883,1916,1853
1840,1879,1854
1819,1853,1845
1849,1843,1843
1871,1886,1853
1860,1838,1845
1856,1810,1845
1879,1829,1851
1899,1822,1807
1872,1959,1834
1829,1770,1843
1835,1757,1887
1889,1807,1872
1865,1842,1847
1840,1810,1854
1873,1834,1868
1891,1842,1847
1872,1799,1845
1895,1874,1829
1889,1881,1846
1825,1819,1853
1801,1781,1869
1831,1795,1856
1898,1872,1845
1881,1845,1857
1859,1799,1808
1851,1827,1871
1879,1861,1887
1895,1876,1875
1881,1893,1839
1872,1857,1849
1890,1875,1853
1903,1834,1841
1891,1829,1853
1840,1853,1856
1853,1833,1807
1870,1795,1836
1859,1813,1840
1857,1825,1870
1904,1808,1854
1913,1846,1840
1854,1879,1870
1829,1883,1841
1860,1861,1839
1859,1837,1840
1852,1787,1807
1863,1841,1846
1877,1982,1877
1871,1793,1872
1841,1760,1843
1848,1803,1840
1902,1871,1856
1903,1853,1855
1841,1794,1838
1861,1840,1841
1897,1882,1822
1902,1854,1828
1840,1791,1856
1821,1773,1853
1873,1808,1839
1915,1872,1834
1872,1837,1808
1825,1799,1845
1865,1779,1836
1886,1833,1883
1843,1840,1867
1840,1847,1846
1873,1856,1837
1903,1858,1841
1879,1885,1840
1872,1863,1846
1893,1866,1851
1908,1879,1841
1872,1817,1840
1858,1818,1834
1873,1839,1823
1891,1858,1840
1849,1807,1818
1863,1808,1815
1860,1855,1841
1853,1751,1856
1859,1742,1826
1865,1773,1818
1872,1779,1834
1862,1843,1875
1851,1839,1862
1865,1829,1846
1882,1853,1840
1883,1879,1840
1873,1843,1841
1883,1841,1843
1884,1846,1847
1876,1847,1840
1854,1854,1833
1857,1874,1838
1889,1857,1842
1894,1793,1831
1847,1826,1824
1834,1842,1840
1877,1853,1842
1907,1953,1825
1870,1803,1802
1855,1849,1864
1872,1850,1874
1847,1716,1858
1830,1738,1845
1856,1789,1836
1911,1840,1850
1898,1835,1847
1855,1834,1833
1863,1838,1809
1854,1776,1796
1862,1872,1859
1857,1857,1856
1843,1808,1839
1872,1819,1834
1891,1853,1813
1878,1833,1844
1845,1850,1863
1866,1855,1849
1885,1857,1838
1886,1849,1779
1886,1899,1840
1889,1897,1879
1915,1885,1840
1819,1828,1829
1808,1770,1841
1849,1779,1840
1874,1781,1834
1867,1779,1799
1853,1790,1844
1858,1843,1846
1883,1907,1797
1840,1781,1809
1835,1734,1807
1851,1815,1866
1865,1863,1881
1879,1872,1862
1853,1840,1835
1844,1863,1839
1878,1869,1845
1884,1894,1836
1859,1850,1835
1874,1861,1828
1874,1782,1840
1875,1825,1839
1863,1808,1808
1834,1738,1838
1834,1815,1844
1849,1817,1759
1853,1748,1811
1841,1799,1887
1858,1808,1870
1854,1819,1840
1862,1840,1840
1883,1862,1836
1903,1855,1835
1887,1856,1833
1867,1872,1853
1893,1872,1863
1872,1792,1840
1859,1793,1815
1910,1863,1793
1872,1922,1813
1895,1849,1782
1814,1685,1834
1793,1790,1889
1818,1783,1858
1849,1802,1836
1856,1821,1839
1863,1840,1840
1886,1855,1840
1898,1883,1840
1874,1875,1839
1865,1823,1843
1893,1846,1851
1924,1872,1830
1882,1856,1823
1826,1761,1857
1840,1790,1814
1894,1856,1749
1856,1815,1834
1840,1852,1885
1854,1853,1872
1866,1840,1833
1857,1873,1819
1851,1776,1824
1872,1804,1840
1902,1947,1819
1872,1781,1831
1835,1761,1853
1856,1825,1841
1883,1899,1840
1869,1841,1831
1869,1775,1840
1870,1753,1803
1857,1803,1758
1814,1808,1859
1825,1834,1889
1902,1938,1851
1881,1807,1849
1831,1797,1833
1840,1811,1835
1893,1840,1822
1875,1836,1835
1840,1837,1824
1846,1808,1831
1890,1859,1845
1920,1959,1825
1842,1729,1811
1838,1771,1859
1856,1812,1810
1869,1744,1801
1831,1806,1835
1830,1792,1826
1862,1834,1852
1870,1847,1847
1856,1835,1837
1861,1849,1845
1885,1855,1829
1893,1823,1820
1873,1863,1811
1873,1866,1836
1907,1858,1840
1855,1818,1845
1833,1766,1831
1834,1775,1831
1863,1795,1837
1858,1850,1838
1846,1866,1839
1853,1875,1834
1878,1903,1836
1885,1889,1847
1872,1840,1776
1872,1808,1782
1862,1853,1853
1854,1847,1857
1861,1803,1823
1859,1777,1827
1870,1793,1834
1878,1805,1827
1857,1850,1838
1861,1872,1836
1895,1872,1827
1903,1876,1821
1881,1888,1806
1854,1776,1792
1867,1853,1819
1871,1840,1847
1850,1837,1840
1839,1829,1830
1874,1851,1811
1904,1799,1792
1866,1813,1827
1840,1843,1849
1875,1855,1808
1878,1874,1811
1838,1855,1834
1843,1851,1845
1885,1854,1812
1883,1776,1808
1870,1806,1819
1852,1842,1824
1871,1830,1821
1923,1759,1796
1831,1783,1824
1840,1829,1840
1840,1853,1819
1849,1847,1810
1856,1871,1808
1868,1863,1763
1869,1811,1814
1872,1813,1821
1818,1819,1862
1824,1808,1840
1861,1831,1821
1881,1831,1808
1876,1843,1788
1866,1936,1825
1858,1840,1831
1870,1822,1828
1870,1824,1838
1856,1779,1803
1882,1841,1802
1860,1836,1825
1837,1861,1811
1855,1797,1808
1866,1839,1817
1870,1850,1812
1846,1913,1773
1854,1874,1791
1866,1855,1814
1869,1817,1824
1869,1795,1808
1851,1838,1804
1809,1783,1804
1820,1867,1827
1821,1824,1808
1851,1833,1812
1878,1850,1805
1877,1871,1807
1856,1842,1803
1871,1886,1769
1863,1781,1791
1860,1786,1826
1841,1811,1834
1843,1847,1811
1863,1863,1812
1891,1850,1783
1874,1879,1781
1862,1847,1819
1841,1838,1840
1856,1826,1808
1877,1849,1799
1839,1888,1811
1852,1871,1795
1875,1811,1814
1861,1809,1783
1823,1902,1792
1840,1808,1802
1831,1756,1819
1835,1776,1809
1847,1791,1809
1872,1789,1827
1867,1807,1808
1841,1829,1802
1852,1840,1802
1887,1851,1770
1894,1849,1813
1840,1860,1840
1844,1866,1838
1873,1849,1819
1878,1849,1805
1861,1856,1795
1873,1859,1809
1904,1869,1810
1855,1797,1767
1795,1831,1811
1799,1873,1840
1840,1855,1825
1883,1810,1808
1853,1791,1808
1845,1808,1810
1872,1849,1820
1875,1904,1809
1853,1954,1803
1842,1783,1769
1843,1728,1818
1844,1808,1843
1843,1859,1826
1858,1871,1808
1867,1840,1808
1891,1845,1819
1809,1750,1792
1802,1790,1808
1846,1855,1822
1903,1857,1822
1831,1829,1821
1803,1827,1808
1853,1847,1808
1883,1857,1806
1857,1873,1807
1840,1846,1809
1887,1841,1745
1873,1886,1827
1841,1840,1837
1872,1871,1838
1874,1866,1808
1882,1859,1761
1872,1871,1802
1835,1811,1831
1828,1827,1840
1840,1733,1831
1819,1795,1808
1826,1755,1808
1865,1805,1818
1851,1827,1833
1821,1811,1819
1840,1830,1813
1870,1842,1811
1879,1831,1818
1869,1806,1807
1862,1842,1819
1862,1895,1839
1877,1890,1819
1886,1939,1776
1852,1833,1828
1850,1831,1841
1821,1792,1840
1812,1775,1827
1878,1812,1799
1847,1783,1840
1804,1787,1843
1808,1846,1829
1837,1904,1823
1863,1776,1827
1865,1767,1824
1844,1789,1815
1859,1803,1792
1902,1849,1808
1855,1911,1901
1826,1942,1872
1855,1927,1815
1876,1747,1770
1845,1762,1818
1823,1783,1843
1853,1824,1841
1869,1872,1831
1873,1872,1810
1853,1840,1840
1859,1827,1829
1877,1855,1828
1869,1878,1837
1850,1821,1838
1845,1861,1825
1881,1936,1792
1894,1782,1763
1857,1809,1846
1829,1831,1861
1852,1872,1849
1877,1904,1835
1857,1840,1808
1872,1840,1829
1883,1893,1840
1872,1846,1830
1859,1890,1838
1840,1838,1809
1859,1799,1808
1930,1904,1765
1844,1831,1813
1794,1741,1849
1843,1762,1840
1871,1834,1815
1883,1824,1766
1851,1817,1851
1856,1820,1843
1887,1859,1814
1861,1860,1839
1831,1905,1840
1833,1870,1830
1865,1829,1854
1863,1827,1833
1815,1763,1821
1840,1809,1823
1872,1840,1815
1865,1904,1835
1820,1841,1828
1845,1831,1820
1887,1865,1774
1869,1872,1808
1844,1744,1821
1820,1783,1872
1850,1789,1856
1854,1808,1835
1869,1824,1808
1886,1808,1820
1874,1856,1838
1866,1874,1871
1856,1981,1840
1843,1842,1789
1815,1698,1823
1834,1743,1853
1854,1802,1840
1893,1837,1835
1874,1904,1835
1831,1862,1840
1852,1824,1782
1861,1815,1821
1877,1817,1856
1846,1839,1837
1878,1920,1777
1859,1808,1841
1861,1791,1839
1843,1739,1795
1823,1787,1847
1841,1889,1857
1865,1807,1855
1853,1792,1828
1858,1813,1823
1900,1905,1819
1886,1909,1838
1841,1772,1837
1829,1801,1847
1865,1840,1825
1914,1845,1778
1861,1855,1826
1840,1862,1840
1875,1839,1840
1871,1915,1834
1853,1903,1823
1847,1739,1791
1854,1822,1839
1843,1842,1854
1811,1763,1830
1831,1772,1839
1867,1815,1835
1881,1915,1823
1866,1805,1827
1829,1805,1847
1847,1809,1841
1872,1826,1825
1862,1833,1825
1855,1839,1830
1882,1853,1820
1879,1845,1837
1872,1870,1861
1857,1894,1853
1872,1862,1837
1922,1946,1781
1855,1792,1762
1744,1653,1859
1787,1709,1855
1860,1803,1843
1850,1799,1811
1815,1803,1806
1837,1808,1843
1858,1836,1846
1853,1839,1833
1857,1846,1825
1871,1861,1835
1885,1878,1836
1858,1834,1830
1852,1834,1829
1873,1857,1840
1894,1859,1808
1881,1889,1858
1826,1879,1875
1820,1843,1813
1846,1920,1791
1778,1712,1824
1785,1691,1839
1837,1744,1840
1856,1822,1839
1835,1858,1829
1841,1899,1828
1870,1824,1831
1865,1808,1839
1838,1803,1834
1840,1831,1840
1869,1850,1831
1872,1856,1837
1895,1868,1729
1879,1805,1842
1809,1840,1891
1818,1825,1883
1808,1817,1840
1839,1764,1823
1840,1854,1837
1853,1867,1825
1811,1763,1837
1821,1746,1840
1859,1835,1834
1872,1835,1831
1835,1807,1838
1826,1826,1840
1873,1887,1840
1874,1855,1835
1855,1809,1826
1865,1841,1842
1856,1858,1831
1862,1855,1815
1874,1854,1778
1845,1935,1826
1824,1790,1855
1861,1788,1862
1871,1825,1835
1860,1867,1789
1827,1809,1815
1835,1790,1847
1785,1735,1837
1788,1776,1823
1843,1823,1835
1865,1842,1829
1846,1891,1827
1857,1841,1822
1870,1835,1828
1855,1840,1838
1837,1821,1829
1839,1841,1839
1863,1839,1835
1885,1869,1797
1857,1817,1822
1825,1819,1858
1840,1861,1856
1866,1891,1847
1847,1887,1823
1862,1826,1834
1846,1859,1808
1871,1946,1841
1826,1796,1829
1807,1765,1818
1840,1778,1808
1823,1727,1821
1794,1753,1820
1840,1831,1809
1847,1782,1794
1847,1815,1831
1835,1824,1808
1850,1827,1810
1864,1862,1852
1871,1877,1857
1855,1906,1855
1869,1846,1822
1876,1830,1815
1875,1885,1819
1829,1826,1809
1819,1841,1840
1828,1850,1845
1854,1791,1824
1841,1766,1830
1839,1801,1840
1872,1842,1841
1895,1920,1840
1872,1887,1835
1817,1766,1809
1843,1798,1819
1873,1830,1791
1851,1838,1798
1840,1881,1875
1827,1808,1857
1840,1814,1829
1842,1826,1830
1856,1841,1833
1875,1857,1825
1876,1872,1808
1853,1857,1805
1841,1839,1850
1841,1799,1855
1849,1819,1837
1847,1831,1819
1856,1843,1839
1871,1862,1840
1881,1888,1830
1865,1855,1841
1894,1902,1834
1890,1802,1759
1790,1737,1840
1788,1776,1861
1827,1834,1859
1892,1869,1850
1866,1834,1825
1845,1855,1811
1855,1822,1819
1875,1839,1830
1890,1870,1837
1865,1883,1825
1843,1837,1829
1878,1872,1818
1872,1856,1830
1837,1883,1823
1840,1792,1819
1853,1771,1830
1866,1776,1813
1859,1793,1804
1840,1815,1802
1875,1882,1801
1875,1845,1870
1827,1823,1871
1828,1828,1837
1869,1851,1819
1910,1900,1829
1859,1822,1840
1838,1833,1826
1857,1874,1825
1857,1859,1826
1870,1911,1801
1859,1839,1823
1840,1824,1803
1834,1813,1811
1808,1744,1837
1835,1776,1829
1883,1806,1783
1868,1853,1835
1841,1875,1847
1841,1883,1843
1878,1872,1831
1876,1866,1827
1851,1855,1806
1876,1825,1809
1863,1798,1849
1840,1819,1833
1831,1836,1830
1837,1839,1814
1866,1859,1822
1872,1841,1810
1856,1842,1826
1859,1842,1840
1872,1973,1811
1866,1851,1819
1871,1767,1763
1838,1783,1804
1851,1795,1808
1874,1801,1827
1842,1854,1840
1835,1899,1831
1860,1859,1823
1872,1822,1807
1869,1834,1799
1866,1877,1797
1863,1892,1799
1856,1834,1790
1846,1797,1786
1872,1811,1776
1884,1931,1793
1872,1829,1773
1855,1821,1775
1872,1922,1793
1881,1810,1714
1839,1755,1774
1808,1798,1808
1840,1790,1821
1872,1789,1786
1865,1841,1787
1829,1858,1787
1840,1879,1801
1883,1904,1809
1875,1886,1792
1865,1856,1780
1866,1860,1794
1872,1967,1786
1861,1807,1753
1831,1741,1787
1830,1786,1810
1891,1914,1809
1865,1847,1813
1825,1835,1828
1887,1895,1761
1859,1783,1807
1811,1773,1824
1833,1882,1797
1850,1809,1809
1888,1833,1839
1875,1872,1810
1853,1791,1791
1851,1835,1815
1826,1858,1835
1831,1789,1836
1836,1806,1813
1846,1837,1822
1872,1889,1818
1887,1854,1823
1859,1847,1824
1856,1843,1814
1878,1867,1841
1867,1867,1872
1830,1836,1853
1843,1866,1843
1886,1857,1845
1914,1870,1840
1856,1842,1813
1808,1787,1835
1840,1842,1829
1888,1868,1831
1808,1751,1872
1797,1712,1847
1835,1786,1837
1856,1839,1847
1861,1845,1849
1859,1847,1854
1863,1856,1855
1881,1869,1850
1867,1867,1856
1859,1871,1866
1890,1858,1830
1918,1892,1838
1854,1889,1872
1806,1811,1887
1848,1825,1858
1847,1823,1847
1817,1791,1842
1831,1786,1807
1839,1741,1879
1847,1807,1875
1841,1785,1885
1824,1831,1867
1854,1872,1872
1857,1822,1874
1854,1809,1873
1855,1850,1875
1878,1848,1834
1887,1851,1858
1840,1872,1902
1830,1877,1902
1884,1964,1887
1872,1875,1879
1821,1701,1853
1797,1739,1861
1859,1782,1874
1866,1823,1876
1863,1840,1888
1853,1921,1874
1866,1881,1871
1885,1739,1865
1834,1761,1890
1819,1808,1865
1863,1871,1891
1870,1842,1877
1842,1774,1878
1830,1847,1907
1869,1931,1894
1855,1808,1913
1812,1699,1872
1835,1744,1858
1857,1850,1899
1875,1919,1904
1857,1860,1866
1842,1795,1872
1886,1792,1901
1877,1872,1861
1845,1911,1863
1829,1770,1888
1841,1758,1904
1844,1808,1898
1855,1837,1843
1823,1810,1895
1860,1916,1889
1869,1802,1883
1821,1767,1934
1799,1732,1918
1834,1768,1881
1875,1799,1865
1853,1886,1882
1856,1840,1903
1861,1831,1887
1841,1840,1887
1830,1810,1883
1844,1920,1894
1843,1831,1904
1862,1824,1901
1852,1925,1840
1815,1756,1865
1806,1746,1930
1830,1819,1918
1830,1801,1908
1840,1824,1905
1870,1860,1906
1874,1882,1895
1847,1798,1897
1811,1774,1885
1842,1770,1878
1855,1791,1915
1808,1814,1906
1818,1862,1883
1858,1876,1868
1845,1792,1870
1818,1778,1918
1829,1826,1929
1895,1851,1906
1871,1854,1894
1827,1866,1893
1826,1798,1903
1876,1799,1915
1873,1803,1910
1850,1823,1888
1797,1744,1936
1794,1787,1907
1833,1803,1893
1840,1810,1890
1847,1815,1888
1904,1805,1837
1872,1873,1911
1815,1849,1942
1817,1790,1924
1862,1805,1906
1872,1808,1902
1851,1842,1904
1853,1854,1901
1865,1838,1899
1872,1889,1887
1842,1840,1904
1845,1855,1918
1875,1946,1890
1839,1698,1883
1799,1742,1919
1813,1805,1929
1863,1838,1903
1896,1850,1859
1799,1746,1894
1773,1785,1924
1831,1829,1929
1866,1847,1906
1855,1887,1901
1845,1826,1903
1872,1797,1869
1870,1858,1898
1842,1848,1919
1855,1818,1913
1872,1834,1920
1862,1846,1905
1870,1891,1895
1855,1865,1874
1823,1749,1889
1835,1808,1889
1842,1787,1899
1845,1817,1883
1859,1831,1895
1859,1893,1922
1856,1757,1862
1809,1790,1909
1857,1792,1906
1883,1849,1918
1851,1884,1919
1836,1853,1902
1868,1854,1904
1872,1822,1874
1847,1824,1863
1858,1791,1874
1851,1839,1878
1844,1778,1889
1823,1776,1919
1849,1838,1915
1866,1856,1859
1855,1841,1890
1851,1790,1862
1869,1863,1886
1863,1828,1911
1831,1796,1915
1817,1832,1904
1842,1819,1899
1872,1851,1891
1878,1872,1879
1857,1803,1888
1856,1805,1899
1872,1841,1906
1871,1876,1919
1843,1867,1872
1854,1872,1862
1873,1826,1886
1878,1882,1889
1837,1840,1877
1839,1812,1884
1865,1790,1899
1909,1811,1838
1877,1835,1838
1809,1819,1869
1798,1866,1926
1840,1919,1900
1802,1727,1883
1803,1682,1882
1850,1803,1892
1854,1852,1901
1840,1808,1870
1845,1848,1872
1857,1844,1873
1863,1843,1872
1847,1845,1870
1847,1873,1878
1885,1936,1854
1867,1795,1827
1826,1793,1894
1859,1837,1934
1840,1871,1894
1810,1811,1883
1808,1811,1883
1830,1837,1871
1893,1930,1839
1859,1766,1847
1814,1742,1887
1809,1807,1897
1856,1863,1895
1872,1890,1868
1853,1794,1866
1821,1786,1872
1856,1842,1877
1878,1855,1887
1846,1839,1866
1839,1840,1863
1871,1864,1889
1879,1886,1874
1901,1867,1811
1845,1807,1895
1834,1829,1904
1846,1815,1892
1863,1808,1868
1840,1822,1882
1853,1922,1878
1877,1929,1861
1823,1808,1872
1805,1793,1894
1846,1760,1882
1872,1746,1877
1844,1787,1883
1843,1830,1892
1882,1867,1869
1885,1813,1852
1838,1859,1865
1847,1810,1893
1832,1875,1920
1840,1829,1897
1838,1790,1872
1825,1806,1871
1871,1831,1882
1872,1861,1904
1867,1863,1879
1871,1922,1872
1859,1837,1861
1858,1802,1886
1838,1887,1856
1842,1857,1875
1840,1744,1888
1857,1765,1872
1854,1776,1871
1867,1789,1854
1867,1823,1860
1866,1847,1871
1839,1850,1905
1828,1815,1923
1825,1773,1901
1846,1797,1885
1833,1839,1898
1854,1831,1885
1881,1821,1868
1881,1858,1872
1850,1871,1917
1835,1866,1911
1844,1829,1858
1853,1803,1884
1840,1830,1865
1831,1744,1896
1857,1785,1906
1869,1823,1879
1856,1819,1856
1854,1890,1922
1872,1989,1921
1862,1769,1898
1808,1721,1899
1809,1809,1901
1872,1825,1895
1887,1839,1887
1829,1833,1885
1819,1779,1865
1843,1891,1903
1872,1847,1901
1867,1762,1893
1827,1776,1906
1831,1840,1909
1863,1857,1902
1855,1843,1886
1843,1843,1891
1884,1887,1841
1881,1873,1890
1845,1819,1931
1857,1891,1923
1872,1823,1909
1833,1828,1903
1829,1766,1878
1810,1767,1904
1849,1798,1906
1872,1808,1904
1857,1814,1899
1845,1890,1895
1853,1801,1893
1858,1781,1901
1843,1781,1863
1829,1887,1925
1872,1844,1907
1878,1872,1866
1867,1839,1861
1840,1801,1898
1869,1845,1930
1903,1922,1894
1840,1806,1885
1803,1741,1906
1846,1777,1889
1876,1885,1886
1824,1738,1881
1825,1776,1889
1861,1776,1887
1859,1839,1889
1840,1868,1882
1827,1790,1874
1857,1803,1886
1868,1823,1882
1862,1809,1872
1872,1831,1870
1881,1865,1925
1853,1923,1946
1843,1889,1904
1850,1837,1876
1867,1856,1872
1863,1826,1884
1842,1803,1872
1851,1838,1853
1860,1754,1862
1845,1831,1905
1840,1867,1884
1850,1774,1870
1874,1770,1883
1839,1793,1873
1795,1777,1872
1837,1827,1840
1849,1813,1894
1856,1854,1923
1840,1827,1891
1839,1826,1883
1850,1867,1893
1869,1881,1895
1862,1872,1871
1833,1805,1869
1858,1840,1877
1895,1927,1871
1850,1821,1872
1811,1769,1883
1861,1830,1859
1855,1805,1857
1842,1856,1821
1821,1769,1828
1840,1771,1889
1839,1855,1917
1842,1861,1883
1830,1842,1881
1830,1814,1883
1847,1861,1874
1839,1821,1865
1840,1823,1870
1872,1840,1873
1885,1862,1873
1855,1876,1873
1853,1863,1859
1872,1827,1839
1857,1889,1853
1795,1804,1871
1822,1789,1867
1844,1830,1865
1871,1852,1855
1840,1890,1857
1835,1863,1859
1870,1795,1877
1887,1770,1823
1852,1783,1849
1827,1841,1876
1847,1918,1901
1870,1926,1882
1843,1857,1858
1853,1859,1878
1890,1803,1885
1872,1838,1840
1833,1781,1819
1821,1795,1879
1858,1834,1875
1865,1879,1858
1845,1831,1839
1851,1873,1871
1871,1851,1840
1845,1796,1862
1833,1805,1872
1838,1808,1869
1869,1827,1850
1879,1856,1843
1877,1834,1802
1836,1812,1858
1830,1808,1884
1881,1858,1873
1869,1874,1867
1808,1800,1841
1835,1813,1831
1862,1815,1841
1849,1881,1843
1873,1740,1805
1838,1761,1833
1806,1833,1885
1812,1833,1857
1843,1840,1854
1873,1859,1853
1873,1856,1835
1856,1846,1837
1866,1897,1840
1882,1881,1808
1840,1824,1855
1814,1811,1855
1818,1776,1843
1879,1851,1829
1881,1777,1825
1808,1854,1860
1810,1824,1857
1840,1783,1840
1869,1798,1829
1847,1807,1840
1845,1826,1836
1840,1839,1869
1854,1824,1866
1817,1779,1823
1827,1815,1807
1857,1819,1813
1856,1819,1823
1834,1809,1858
1826,1842,1871
1845,1846,1858
1872,1852,1851
1858,1854,1841
1856,1902,1839
1863,1833,1849
1867,1850,1853
1861,1851,1840
1840,1808,1821
1846,1856,1867
1854,1877,1874
1852,1789,1830
1825,1744,1818
1831,1810,1856
1845,1762,1847
1841,1805,1835
1824,1776,1767
1829,1798,1840
1845,1858,1867
1835,1831,1850
1841,1834,1849
1872,1827,1840
1875,1856,1840
1850,1858,1837
1842,1861,1838
1865,1863,1835
1872,1860,1808
1872,1808,1785
1855,1815,1862
1855,1836,1864
1847,1974,1805
1794,1712,1811
1786,1680,1871
1835,1771,1842
1891,1845,1856
1842,1807,1778
1808,1785,1812
1836,1834,1856
1857,1870,1844
1843,1824,1829
1847,1836,1830
1866,1881,1829
1874,1854,1820
1855,1822,1826
1851,1843,1841
1874,1874,1843
1834,1843,1821
1813,1868,1813
1836,1835,1822
1840,1792,1822
1847,1775,1808
1845,1886,1808
1798,1795,1823
1824,1727,1810
1835,1787,1869
1844,1840,1847
1863,1792,1810
1872,1844,1861
1856,1860,1840
1817,1904,1811
1795,1808,1815
1839,1798,1830
1871,1837,1837
1856,1865,1840
1840,1869,1809
1845,1808,1803
1854,1776,1815
1846,1831,1818
1853,1872,1817
1859,1712,1725
1802,1760,1836
1776,1831,1878
1807,1883,1858
1852,1831,1833
1859,1795,1835
1840,1802,1861
1840,1826,1847
1872,1874,1819
1871,1867,1813
1846,1828,1811
1838,1837,1825
1889,1838,1831
1882,1866,1839
1839,1847,1815
1855,1902,1788
1840,1865,1838
1842,1797,1825
1801,1741,1831
1817,1763,1851
1879,1855,1801
1872,1787,1759
1822,1872,1837
1810,1788,1877
1823,1827,1858
1856,1826,1843
1841,1831,1857
1861,1840,1850
1857,1822,1842
1847,1795,1829
1838,1810,1812
1847,1828,1822
1872,1853,1827
1906,1887,1840
1870,1904,1840
1851,1838,1814
1824,1797,1815
1843,1854,1829
1866,1821,1787
1840,1722,1790
1850,1776,1794
1814,1849,1878
1808,1837,1878
1815,1802,1846
1850,1773,1829
1850,1749,1835
1838,1786,1840
1849,1821,1840
1872,1847,1844
1878,1840,1841
1857,1858,1840
1851,1867,1850
1880,1881,1865
1879,1882,1840
1856,1884,1837
1863,1862,1853
1891,1789,1827
1856,1748,1826
1831,1777,1790
1834,1871,1817
1833,1936,1853
1806,1798,1902
1808,1774,1872
1831,1819,1859
1856,1870,1854
1861,1840,1827
1856,1855,1838
1851,1829,1846
1874,1827,1841
1873,1846,1852
1847,1842,1837
1843,1821,1857
1877,1842,1857
1879,1934,1857
1872,1850,1817
1853,1807,1834
1859,1756,1809
1843,1795,1867
1830,1839,1879
1855,1836,1872
1893,1792,1840
1846,1846,1806
1805,1827,1799
1776,1833,1860
1829,1942,1871
1849,1877,1847
1808,1731,1843
1827,1766,1857
1862,1818,1853
1874,1839,1843
1855,1851,1855
1856,1869,1847
1874,1872,1829
1876,1826,1842
1870,1857,1856
1877,1953,1804
1846,1791,1836
1837,1744,1873
1817,1757,1839
1847,1744,1785
1843,1790,1838
1791,1811,1873
1803,1825,1872
1855,1856,1843
1855,1866,1875
1837,1835,1855
1814,1807,1843
1835,1824,1843
1870,1846,1850
1872,1852,1848
1859,1854,1853
1863,1868,1851
1871,1879,1852
1887,1919,1808
1831,1824,1818
1798,1721,1860
