1872,1847,1856
1873,1847,1855
1868,1847,1865
1860,1840,1856
1866,1841,1843
1898,1873,1854
1871,1833,1850
1868,1819,1868
1874,1861,1863
1881,1854,1851
1843,1817,1840
1840,1840,1841
1861,1858,1776
1831,1661,1843
1808,1728,1872
1842,1754,1849
1883,1776,1836
1851,1774,1837
1815,1776,1877
1821,1795,1875
1863,1837,1862
1879,1849,1863
1869,1831,1850
1845,1825,1853
1862,1849,1856
1885,1859,1861
1867,1861,1863
1856,1853,1840
1873,1866,1846
1889,1863,1861
1917,1872,1781
1835,1918,1842
1808,1819,1853
1817,1679,1868
1823,1752,1872
1829,1785,1842
1821,1802,1859
1853,1797,1855
1833,1835,1839
1822,1824,1840
1840,1805,1847
1894,1775,1826
1856,1819,1854
1837,1840,1871
1858,1856,1863
1894,1858,1857
1875,1847,1854
1838,1818,1803
1849,1808,1827
1869,1911,1883
1858,1855,1875
1857,1839,1858
1935,1901,1811
1776,1664,1867
1771,1690,1857
1815,1775,1849
1856,1888,1843
1874,1795,1857
1872,1776,1853
1839,1852,1834
1854,1840,1851
1872,1837,1863
1869,1830,1853
1858,1837,1842
1875,1841,1845
1889,1823,1793
1879,1794,1805
1837,1841,1909
1851,1904,1891
1875,1824,1859
1843,1873,1856
1866,1778,1835
1890,1834,1855
1819,1840,1862
1817,1792,1843
1837,1784,1849
1837,1824,1827
1850,1760,1847
1840,1779,1841
1862,1802,1811
1850,1840,1858
1856,1840,1866
1856,1824,1856
1855,1841,1847
1881,1835,1849
1872,1818,1840
1859,1832,1831
1844,1871,1857
1859,1865,1871
1889,1874,1845
1904,1794,1806
1834,1774,1842
1821,1757,1862
1879,1812,1867
1917,1938,1855
1808,1793,1847
1786,1765,1840
1840,1801,1840
1868,1726,1804
1841,1776,1858
1842,1823,1881
1858,1852,1857
1872,1869,1856
1846,1839,1843
1863,1821,1833
1877,1854,1845
1874,1854,1851
1872,1865,1847
1843,1785,1835
1857,1815,1839
1871,1793,1841
1853,1839,1876
1906,1863,1810
1931,1821,1790
1831,1789,1854
1801,1758,1839
1809,1815,1869
1856,1845,1860
1856,1904,1840
1841,1837,1809
1856,1779,1808
1855,1783,1841
1862,1759,1827
1845,1815,1846
1867,1841,1851
1883,1857,1850
1890,1935,1843
1851,1824,1845
1872,1762,1819
1869,1750,1819
1814,1802,1862
1856,1885,1856
1857,1879,1840
1877,1833,1827
1859,1756,1809
1795,1765,1872
1818,1794,1852
1876,1898,1825
1857,1823,1834
1820,1773,1863
1840,1797,1862
1873,1824,1856
1875,1835,1841
1856,1844,1831
1872,1866,1843
1887,1872,1836
1906,1947,1831
1863,1777,1834
1817,1758,1859
1830,1788,1855
1843,1798,1829
1865,1799,1830
1867,1936,1867
1884,1842,1842
1866,1792,1845
1835,1821,1837
1856,1783,1824
1861,1840,1831
1859,1759,1824
1836,1850,1858
1841,1863,1843
1859,1792,1861
1861,1795,1859
1858,1819,1854
1869,1846,1867
1878,1871,1856
1887,1853,1834
1860,1812,1840
1857,1813,1815
1870,1780,1836
1855,1856,1879
1830,1737,1856
1840,1790,1853
1856,1918,1847
1828,1805,1835
1830,1760,1849
1845,1803,1872
1870,1834,1858
1850,1855,1841
1840,1842,1840
1854,1855,1856
1877,1863,1853
1867,1894,1840
1854,1855,1833
1871,1831,1833
1892,1818,1811
1860,1855,1791
1830,1844,1852
1841,1702,1872
1818,1732,1846
1808,1729,1873
1822,1804,1856
1867,1839,1839
1871,1808,1842
1847,1794,1837
1839,1803,1851
1865,1830,1840
1891,1842,1843
1875,1840,1849
1863,1845,1843
1877,1840,1850
1885,1855,1860
1845,1861,1847
1851,1834,1828
1869,1837,1803
1872,1939,1822
1845,1731,1804
1798,1633,1867
1808,1777,1910
1846,1817,1878
1855,1809,1850
1853,1813,1827
1875,1904,1838
1872,1843,1841
1834,1745,1854
1830,1765,1861
1854,1813,1860
1876,1842,1850
1854,1840,1853
1867,1861,1844
1863,1838,1853
1887,1795,1793
1848,1794,1821
1834,1903,1872
1826,1837,1885
1840,1825,1840
1856,1739,1825
1826,1813,1842
1851,1771,1826
1873,1802,1872
1843,1873,1872
1839,1856,1840
1869,1862,1836
1878,1845,1836
1840,1789,1841
1834,1794,1846
1856,1821,1835
1898,1878,1858
1873,1799,1792
1837,1783,1843
1827,1847,1894
1857,1857,1866
1850,1815,1845
1840,1795,1840
1867,1765,1840
1867,1829,1839
1857,1887,1808
1824,1794,1842
1859,1833,1852
1898,1777,1840
1840,1802,1851
1821,1878,1858
1865,1883,1857
1872,1773,1840
1860,1755,1775
1857,1737,1822
1824,1840,1891
1828,1866,1890
1829,1755,1847
1856,1771,1850
1867,1825,1849
1882,1847,1858
1873,1840,1851
1873,1813,1840
1874,1862,1856
1887,1836,1842
1873,1875,1840
1842,1841,1851
1873,1865,1856
1887,1858,1882
1881,1840,1846
1873,1845,1822
1860,1801,1792
1892,1833,1803
1872,1761,1851
1823,1830,1882
1823,1799,1870
1872,1858,1853
1872,1871,1840
1843,1735,1829
1847,1731,1843
1855,1786,1836
1874,1808,1830
1866,1831,1831
1873,1857,1819
1863,1856,1840
1865,1844,1843
1859,1815,1843
1879,1840,1846
1902,1853,1846
1889,1847,1847
1878,1834,1808
1872,1858,1821
1895,1821,1856
1895,1839,1872
1872,1957,1856
1897,1883,1840
1913,1911,1806
1809,1664,1837
1798,1648,1857
1872,1721,1837
1858,1831,1847
1845,1888,1831
1840,1826,1826
1882,1805,1829
1894,1836,1834
1879,1856,1840
1879,1873,1849
1882,1926,1843
1900,1810,1804
1879,1767,1840
1846,1842,1858
1850,1867,1869
1886,1861,1856
1904,1933,1849
1889,1950,1840
1856,1789,1828
1807,1664,1810
1826,1679,1841
1867,1737,1808
1867,1822,1846
1885,1841,1843
1903,1855,1846
1842,1861,1857
1847,1866,1856
1879,1867,1850
1874,1852,1843
1863,1851,1841
1878,1878,1835
1914,1821,1808
1873,1866,1854
1857,1827,1845
1863,1893,1860
1868,1851,1867
1882,1920,1847
1840,1808,1823
1823,1715,1840
1863,1756,1842
1898,1861,1826
1857,1825,1839
1829,1750,1872
1857,1766,1849
1858,1808,1830
1857,1837,1837
1872,1843,1837
1904,1845,1831
1873,1854,1814
1853,1857,1857
1863,1866,1870
1914,1856,1813
1872,1834,1836
1841,1849,1863
1851,1919,1881
1866,1919,1859
1866,1861,1839
1843,1824,1851
1850,1746,1854
1870,1770,1834
1842,1746,1831
1817,1779,1860
1851,1851,1849
1887,1840,1835
1879,1827,1838
1859,1810,1838
1875,1867,1837
1872,1855,1872
1863,1841,1855
1849,1840,1838
1872,1859,1808
1875,1843,1840
1851,1843,1865
1838,1835,1853
1857,1870,1855
1909,1872,1808
1872,1860,1831
1831,1841,1851
1857,1904,1875
1884,1801,1859
1865,1791,1823
1821,1761,1808
1843,1763,1835
1873,1809,1867
1872,1808,1827
1837,1827,1787
1831,1835,1866
1866,1833,1867
1861,1797,1827
1859,1840,1844
1859,1889,1851
1887,1885,1840
1872,1837,1853
1862,1842,1844
1884,1871,1842
1905,1927,1842
1889,1919,1814
1859,1760,1817
1811,1739,1823
1818,1733,1839
1845,1803,1840
1835,1805,1808
1862,1800,1840
1884,1861,1843
1882,1856,1813
1839,1856,1863
1857,1812,1842
1870,1828,1842
1882,1834,1831
1856,1843,1842
1874,1862,1845
1894,1899,1823
1872,1830,1826
1851,1827,1843
1875,1858,1847
1877,1930,1819
1881,1817,1806
1813,1774,1825
1827,1750,1805
1846,1759,1827
1856,1825,1845
1879,1790,1789
1891,1808,1809
1841,1812,1841
1827,1846,1866
1833,1870,1856
1872,1871,1851
1888,1815,1844
1870,1821,1857
1855,1825,1825
1856,1863,1815
1885,1876,1839
1875,1859,1834
1871,1879,1835
1897,1873,1833
1887,1873,1840
1872,1863,1846
1837,1739,1834
1855,1795,1810
1862,1829,1824
1859,1807,1791
1904,1779,1713
1863,1800,1902
1867,1859,1905
1840,1802,1853
1843,1815,1840
1857,1834,1846
1883,1845,1841
1878,1851,1846
1871,1849,1843
1889,1871,1846
1904,1891,1840
1884,1830,1841
1840,1808,1831
1870,1883,1831
1881,1920,1845
1881,1781,1829
1855,1738,1833
1859,1773,1823
1907,1826,1781
1875,1915,1835
1841,1825,1856
1853,1825,1874
1874,1856,1872
1887,1858,1847
1874,1878,1835
1904,1883,1841
1878,1773,1813
1866,1845,1837
1875,1870,1843
1862,1817,1857
1887,1814,1855
1881,1831,1840
1849,1840,1824
1873,1882,1840
1868,1834,1857
1863,1777,1793
1856,1767,1825
1857,1851,1858
1867,1859,1871
1867,1854,1842
1865,1840,1811
1894,1818,1811
1880,1879,1835
1871,1882,1861
1869,1861,1842
1869,1831,1829
1875,1830,1840
1882,1889,1839
1871,1813,1831
1877,1856,1841
1906,1857,1835
1917,1794,1776
1840,1734,1781
1795,1741,1872
1840,1794,1894
1857,1813,1851
1873,1822,1837
1878,1873,1861
1879,1841,1835
1870,1811,1814
1872,1834,1823
1863,1843,1849
1891,1867,1855
1875,1872,1840
1866,1888,1824
1861,1866,1843
1891,1917,1840
1850,1831,1843
1822,1730,1842
1872,1791,1791
1894,1796,1824
1830,1781,1871
1829,1798,1857
1881,1831,1808
1880,1792,1841
1842,1810,1857
1845,1831,1846
1895,1837,1881
1891,1851,1829
1841,1850,1819
1849,1888,1823
1872,1837,1840
1872,1844,1855
1873,1843,1851
1859,1813,1830
1865,1819,1835
1904,1904,1795
1884,1920,1821
1839,1748,1823
1855,1754,1868
1872,1741,1863
1865,1857,1853
1839,1791,1840
1852,1776,1839
1897,1808,1841
1884,1840,1849
1861,1846,1839
1870,1835,1859
1876,1833,1849
1894,1806,1793
1904,1798,1795
1830,1878,1878
1850,1894,1884
1868,1811,1823
1859,1771,1808
1863,1830,1777
1869,1846,1862
1874,1847,1877
1850,1951,1827
1857,1777,1856
1877,1771,1859
1855,1789,1814
1809,1746,1820
1840,1801,1846
1874,1852,1853
1869,1811,1839
1866,1824,1838
1892,1878,1834
1890,1783,1831
1859,1805,1840
1866,1807,1807
1871,1783,1815
1855,1866,1872
1852,1873,1861
1870,1935,1852
1869,1850,1860
1850,1759,1829
1874,1792,1821
1840,1803,1837
1866,1858,1848
1872,1847,1831
1815,1767,1824
1808,1809,1818
1840,1779,1833
1884,1808,1847
1882,1808,1829
1863,1878,1843
1847,1845,1857
1874,1807,1817
1890,1758,1773
1841,1815,1858
1835,1875,1891
1872,1936,1871
1870,1859,1835
1854,1770,1787
1863,1779,1833
1872,1909,1837
1838,1785,1855
1840,1755,1841
1846,1812,1840
1870,1840,1825
1840,1797,1847
1831,1810,1847
1855,1827,1842
1911,1886,1841
1877,1844,1840
1819,1793,1833
1855,1815,1837
1873,1825,1823
1881,1856,1798
1868,1847,1830
1850,1893,1872
1856,1783,1828
1831,1762,1830
1805,1753,1856
1841,1831,1855
1871,1813,1856
1871,1813,1849
1851,1815,1820
1871,1835,1825
1887,1851,1835
1875,1851,1839
1871,1857,1844
1861,1869,1837
1865,1792,1837
1865,1790,1840
1854,1797,1831
1893,1819,1833
1913,1909,1781
1819,1853,1872
1744,1730,1870
1794,1707,1858
1868,1757,1851
1853,1842,1833
1844,1807,1819
1857,1793,1815
1870,1835,1862
1869,1835,1855
1856,1836,1841
1865,1843,1841
1887,1851,1840
1878,1840,1839
1853,1849,1847
1878,1879,1838
1870,1777,1840
1854,1794,1845
1875,1847,1813
1913,1837,1786
1847,1775,1887
1759,1706,1878
1767,1744,1840
1797,1738,1837
1850,1767,1839
1854,1808,1836
1840,1808,1845
1858,1799,1856
1882,1821,1853
1872,1826,1828
1857,1818,1828
1849,1851,1862
1892,1853,1868
1867,1841,1841
1827,1840,1830
1856,1796,1823
1901,1858,1809
1877,1854,1840
1845,1840,1846
1786,1904,1877
1813,1750,1838
1815,1669,1828
1831,1728,1829
1859,1802,1821
1872,1823,1823
1858,1827,1819
1847,1836,1815
1870,1841,1822
1873,1840,1830
1870,1837,1834
1869,1883,1812
1863,1828,1826
1845,1826,1823
1853,1803,1778
1833,1828,1808
1858,1792,1792
1879,1779,1783
1813,1776,1849
1802,1825,1904
1808,1810,1850
1840,1817,1808
1840,1840,1808
1840,1814,1823
1855,1824,1826
1876,1870,1833
1876,1890,1818
1837,1749,1815
1851,1750,1825
1873,1797,1826
1872,1837,1825
1891,1876,1777
1879,1767,1778
1834,1797,1843
1815,1791,1873
1843,1761,1842
1851,1770,1843
1800,1786,1852
1814,1815,1852
1834,1821,1831
1857,1829,1834
1898,1840,1835
1855,1840,1835
1840,1830,1835
1858,1839,1836
1888,1850,1839
1871,1840,1842
1846,1840,1841
1865,1883,1841
1877,1894,1833
1854,1776,1849
1850,1707,1803
1872,1838,1815
1851,1787,1837
1860,1699,1826
1830,1747,1855
1831,1911,1875
1866,1886,1872
1845,1813,1841
1824,1751,1846
1840,1786,1841
1874,1821,1840
1872,1831,1840
1850,1837,1842
1858,1845,1844
1878,1853,1843
1891,1854,1843
1873,1873,1837
1842,1787,1779
1823,1789,1858
1836,1822,1878
1859,1878,1869
1859,1879,1833
1854,1760,1843
1845,1809,1834
1847,1746,1824
1885,1892,1827
1853,1797,1840
1839,1822,1872
1839,1794,1867
1847,1815,1849
1876,1849,1872
1889,1869,1845
1847,1823,1815
1827,1780,1828
1860,1819,1840
1865,1853,1863
1873,1872,1817
1858,1896,1861
1851,1814,1876
1851,1770,1856
1866,1778,1838
1839,1860,1839
1842,1783,1859
1846,1765,1855
1824,1793,1839
1854,1825,1843
1886,1872,1853
1904,1843,1843
1849,1791,1855
1849,1805,1846
1879,1813,1814
1851,1831,1856
1840,1827,1866
1873,1885,1846
1920,1931,1819
1809,1762,1877
1789,1727,1870
1840,1763,1870
1877,1812,1866
1874,1841,1850
1860,1798,1854
1863,1846,1845
1872,1822,1845
1881,1837,1855
1858,1802,1863
1840,1827,1854
1875,1872,1857
1885,1879,1862
1868,1795,1827
1843,1810,1821
1871,1792,1856
1889,1809,1823
1873,1783,1803
1822,1846,1895
1825,1817,1900
1843,1814,1872
1841,1810,1846
1870,1831,1854
1888,1955,1857
1857,1814,1840
1840,1767,1847
1855,1808,1856
1877,1859,1871
1870,1872,1860
1856,1792,1826
1854,1824,1851
1856,1831,1872
1872,1818,1872
1837,1779,1851
1846,1787,1837
1869,1833,1843
1861,1865,1863
1874,1931,1840
1883,1831,1839
1840,1785,1882
1811,1759,1867
1839,1792,1851
1845,1839,1862
1869,1883,1840
1883,1834,1808
1850,1802,1845
1867,1941,1859
1847,1769,1847
1839,1746,1854
1815,1811,1869
1844,1882,1870
1870,1827,1857
1872,1792,1858
1841,1803,1853
1847,1874,1853
1855,1831,1855
1867,1815,1834
1867,1799,1831
1845,1861,1886
1852,1902,1879
1855,1854,1871
1838,1838,1846
1847,1826,1857
1867,1822,1862
1864,1815,1845
1831,1808,1877
1855,1875,1885
1860,1780,1830
1838,1697,1821
1823,1766,1859
1853,1803,1830
1904,1914,1840
1837,1843,1890
1811,1762,1859
1845,1771,1825
1854,1840,1878
1849,1860,1890
1831,1837,1872
1840,1858,1855
1858,1839,1854
1857,1792,1842
1828,1841,1856
1843,1886,1857
1859,1817,1846
1856,1802,1850
1838,1894,1860
1871,1827,1843
1872,1776,1857
1883,1838,1817
1837,1785,1849
1836,1855,1883
1873,1869,1871
1840,1759,1841
1835,1790,1781
1842,1807,1841
1805,1787,1904
1805,1818,1893
1819,1825,1853
1853,1855,1842
1868,1820,1845
1859,1821,1841
1847,1821,1845
1872,1824,1847
1874,1853,1859
1863,1871,1856
1842,1806,1840
1858,1785,1837
1873,1866,1869
1875,1872,1849
1863,1911,1834
1854,1759,1817
1851,1744,1851
1851,1809,1885
1834,1839,1846
1826,1761,1856
1826,1791,1859
1824,1814,1840
1825,1840,1833
1861,1838,1803
1870,1825,1853
1854,1818,1869
1845,1808,1851
1857,1858,1847
1886,1856,1850
1869,1810,1846
1847,1789,1818
1854,1840,1847
1877,1859,1861
1873,1846,1844
1863,1862,1809
1861,1884,1859
1872,1805,1872
1820,1760,1867
1808,1794,1841
1830,1837,1829
1885,1931,1822
1830,1823,1845
1799,1740,1851
1834,1761,1847
1871,1795,1839
1875,1824,1840
1854,1867,1841
1894,1809,1808
1870,1813,1819
1845,1865,1852
1836,1839,1866
1840,1808,1852
1877,1854,1840
1875,1840,1797
1853,1829,1840
1835,1861,1895
1857,1781,1856
1857,1846,1837
1826,1824,1831
1819,1786,1847
1839,1792,1856
1843,1815,1863
1841,1846,1847
1845,1841,1842
1861,1814,1853
1854,1883,1828
1859,1881,1804
1843,1821,1840
1854,1775,1845
1854,1819,1833
1866,1812,1824
1870,1781,1793
1878,1834,1823
1839,1854,1887
1840,1807,1856
1872,1835,1875
1856,1795,1854
1859,1829,1831
1852,1871,1808
1854,1792,1808
1818,1776,1843
1812,1798,1854
1828,1822,1850
1867,1837,1862
1891,1904,1852
1856,1844,1819
1834,1835,1836
1838,1774,1840
1865,1805,1841
1871,1823,1842
1851,1834,1840
1857,1843,1841
1891,1858,1830
1898,1843,1792
1831,1875,1859
1835,1850,1866
1887,1765,1849
1834,1708,1829
1807,1763,1835
1840,1886,1854
1850,1815,1850
1831,1824,1845
1821,1776,1834
1840,1821,1856
1850,1821,1855
1845,1818,1841
1840,1842,1840
1849,1840,1865
1870,1838,1849
1863,1837,1834
1851,1840,1831
1860,1826,1855
1878,1845,1856
1883,1839,1815
1840,1840,1862
1819,1887,1859
1856,1793,1801
1846,1776,1841
1803,1819,1866
1827,1884,1852
1856,1799,1842
1872,1833,1793
1842,1783,1839
1844,1743,1859
1857,1786,1859
1813,1803,1838
1797,1802,1831
1815,1831,1859
1855,1843,1846
1856,1840,1840
1842,1838,1840
1870,1819,1795
1865,1856,1856
1840,1855,1871
1831,1866,1872
1840,1823,1847
1863,1856,1835
1867,1769,1808
1809,1791,1823
1808,1866,1848
1837,1894,1850
1859,1869,1859
1776,1726,1828
1797,1701,1791
1836,1765,1836
1819,1771,1858
1804,1793,1851
1842,1829,1846
1858,1856,1854
1861,1832,1792
1837,1831,1829
1835,1856,1863
1851,1874,1855
1841,1846,1839
1833,1808,1825
1845,1821,1840
1869,1843,1854
1861,1870,1853
1840,1824,1839
1903,1909,1808
1846,1760,1810
1751,1747,1856
1784,1791,1861
1831,1799,1858
1863,1756,1829
1805,1803,1819
1809,1775,1782
1825,1749,1814
1833,1801,1883
1831,1826,1872
1825,1818,1843
1847,1839,1842
1870,1855,1840
1855,1840,1834
1842,1845,1842
1835,1845,1847
1845,1830,1840
1844,1823,1840
1850,1856,1842
1856,1892,1831
1849,1802,1835
1831,1803,1854
1807,1802,1846
1849,1955,1827
1849,1834,1831
1854,1829,1823
1835,1699,1836
1805,1759,1874
1814,1808,1866
1821,1810,1841
1822,1853,1839
1832,1830,1854
1866,1835,1847
1858,1839,1837
1839,1839,1838
1856,1855,1840
1873,1866,1842
1870,1903,1826
1847,1843,1836
1872,1801,1801
1876,1886,1839
1844,1826,1865
1787,1807,1831
1808,1776,1819
1815,1791,1866
1833,1794,1865
1845,1803,1858
1835,1836,1846
1859,1913,1837
1857,1840,1839
1821,1790,1855
1823,1815,1854
1858,1850,1847
1859,1859,1833
1841,1830,1851
1851,1845,1871
1873,1855,1862
1871,1843,1850
1856,1867,1851
1867,1944,1834
1822,1733,1808
1808,1761,1850
1841,1873,1807
1851,1777,1807
1824,1776,1893
1813,1766,1880
1808,1791,1854
1827,1838,1839
1867,1872,1840
1857,1821,1843
1840,1808,1840
1857,1837,1847
1879,1867,1849
1855,1861,1838
1835,1833,1842
1866,1845,1845
1875,1935,1840
1819,1787,1858
1813,1796,1840
1819,1809,1832
1872,1775,1818
1805,1763,1860
1777,1776,1884
1822,1808,1861
1870,1838,1855
1866,1845,1845
1846,1848,1840
1850,1891,1853
1856,1827,1847
1843,1813,1840
1841,1822,1843
1859,1839,1841
1903,1857,1811
1862,1813,1830
1798,1833,1879
1813,1834,1817
1795,1871,1879
1785,1810,1852
1760,1655,1815
1808,1753,1846
1839,1793,1837
1825,1795,1836
1814,1815,1845
1838,1845,1847
1862,1872,1855
1859,1861,1855
1841,1828,1835
1866,1801,1761
1856,1888,1875
1834,1867,1889
1831,1923,1853
1859,1940,1822
1829,1620,1840
1815,1614,1838
1777,1679,1815
1791,1818,1859
1822,1843,1872
1823,1839,1861
1822,1838,1855
1843,1840,1851
1863,1854,1859
1857,1850,1857
1858,1837,1856
1859,1860,1858
1879,1867,1842
1867,1905,1806
1833,1822,1852
1839,1745,1825
1860,1875,1846
1842,1849,1867
1808,1808,1839
1845,1707,1840
1856,1786,1845
1836,1823,1845
1825,1782,1848
1857,1865,1830
1888,1821,1831
1840,1808,1855
1812,1821,1859
1846,1860,1857
1876,1855,1850
1895,1822,1827
1836,1786,1809
1831,1822,1854
1863,1987,1852
1835,1793,1851
1824,1792,1864
1862,1826,1811
1873,1799,1845
1841,1808,1857
1803,1763,1849
1829,1810,1866
1866,1819,1843
1872,1833,1824
1835,1825,1843
1827,1862,1847
1867,1849,1857
1879,1895,1815
1853,1789,1818
1797,1751,1856
1810,1811,1863
1826,1798,1840
1856,1869,1838
1846,1854,1863
1855,1822,1856
1849,1815,1854
1847,1878,1846
1872,1894,1840
1899,1840,1818
1856,1719,1843
1827,1756,1862
1849,1834,1857
1889,1868,1854
1909,1793,1853
1827,1751,1800
1805,1776,1865
1856,1793,1869
1847,1821,1843
1853,1844,1839
1824,1879,1847
1843,1835,1855
1863,1799,1856
1840,1814,1869
1850,1840,1856
1884,1891,1843
1872,1839,1842
1859,1875,1835
1873,1840,1878
1856,1766,1863
1849,1749,1840
1844,1783,1839
1877,1840,1797
1913,1772,1786
1847,1776,1898
1824,1759,1874
1834,1789,1871
1859,1841,1857
1857,1826,1851
1839,1823,1831
1838,1827,1848
1868,1840,1861
1867,1829,1853
1853,1823,1840
1871,1835,1841
1886,1847,1849
1882,1854,1842
1847,1883,1852
1857,1808,1835
1868,1801,1832
1871,1849,1839
1883,1875,1829
1921,1873,1797
1835,1819,1829
1788,1665,1863
1777,1711,1900
1834,1842,1872
1870,1821,1857
1866,1805,1845
1868,1822,1840
1856,1831,1856
1865,1807,1854
1856,1805,1841
1845,1820,1840
1882,1843,1845
1904,1872,1852
1846,1838,1845
1832,1825,1834
1857,1835,1838
1891,1839,1854
1878,1839,1824
1859,1811,1783
1837,1829,1868
1835,1882,1891
1848,1801,1846
1843,1729,1811
1833,1808,1847
1848,1792,1854
1862,1795,1836
1873,1831,1798
1871,1775,1837
1872,1823,1856
1839,1807,1853
1834,1813,1842
1859,1837,1847
1900,1865,1839
1886,1840,1843
1870,1869,1849
1863,1791,1793
1863,1780,1819
1841,1838,1874
1849,1825,1872
1850,1834,1870
1903,1885,1860
1877,1843,1815
1836,1771,1814
1824,1845,1853
1856,1821,1855
1849,1726,1845
1840,1731,1835
1872,1785,1831
1890,1824,1838
1873,1828,1842
1871,1811,1811
1874,1815,1855
1897,1857,1873
1897,1845,1856
1872,1827,1801
1842,1830,1829
1871,1837,1869
1846,1803,1879
1859,1855,1845
1872,1850,1843
1845,1807,1874
1840,1786,1857
1857,1754,1819
1858,1780,1839
1872,1872,1844
1856,1840,1840
1856,1870,1839
1857,1802,1857
1860,1806,1844
1869,1787,1847
1850,1799,1857
1873,1860,1852
1888,1833,1777
1862,1781,1815
1840,1760,1851
1855,1828,1887
1879,1825,1872
1895,1830,1855
1840,1833,1838
1826,1795,1840
1857,1805,1843
1867,1815,1831
1863,1830,1841
1879,1833,1849
1917,1822,1834
1889,1901,1823
1830,1827,1832
1850,1822,1841
1863,1863,1847
1855,1794,1842
1855,1743,1825
1870,1840,1831
1907,1834,1799
1861,1791,1872
1831,1776,1872
1857,1810,1860
1882,1851,1863
1879,1869,1857
1866,1835,1817
1902,1757,1831
1857,1811,1871
1858,1811,1867
1850,1793,1866
1849,1835,1855
1895,1814,1842
1841,1818,1840
1819,1838,1839
1871,1840,1839
1902,1850,1822
1853,1825,1815
1813,1808,1872
1846,1840,1874
1869,1840,1854
1866,1815,1851
1856,1867,1852
1857,1835,1846
1875,1732,1856
1865,1779,1847
1872,1798,1834
1869,1755,1834
1855,1797,1847
1859,1792,1818
1823,1805,1847
1865,1803,1843
1863,1828,1872
1840,1837,1845
1859,1841,1805
1858,1830,1829
1863,1840,1881
1868,1850,1877
1855,1840,1853
1872,1833,1843
1884,1845,1848
1870,1846,1840
1855,1869,1856
1871,1935,1841
1887,1765,1824
1872,1773,1851
1853,1833,1853
1831,1872,1827
1835,1781,1817
1851,1728,1840
1845,1766,1856
1857,1812,1856
1894,1834,1841
1895,1798,1797
1845,1794,1824
1825,1840,1887
1858,1855,1883
1872,1853,1858
1868,1869,1843
1875,1846,1839
1893,1840,1840
1867,1807,1851
1847,1839,1847
1872,1882,1840
1886,1867,1847
1851,1792,1849
1811,1671,1813
1871,1760,1842
1862,1892,1874
1840,1841,1822
1838,1807,1840
1866,1799,1838
1910,1786,1817
1867,1815,1865
1840,1840,1868
1861,1844,1856
1901,1861,1872
1887,1840,1851
1867,1827,1838
1890,1877,1808
1920,1905,1847
1840,1782,1872
1811,1751,1841
1846,1833,1842
1895,1966,1855
1830,1712,1845
1811,1711,1851
1841,1781,1862
1872,1827,1861
1889,1867,1840
1877,1790,1810
1845,1808,1866
1854,1867,1899
1871,1857,1857
1866,1838,1851
1886,1821,1843
1903,1885,1853
1891,1895,1851
1840,1818,1855
1868,1906,1873
1872,1776,1811
1862,1739,1803
1869,1778,1869
1853,1808,1871
1856,1847,1867
1879,1840,1813
1840,1789,1815
1818,1786,1882
1847,1792,1893
1850,1791,1866
1851,1808,1843
1870,1834,1851
1887,1851,1869
1876,1835,1845
1856,1825,1838
1855,1853,1847
1879,1853,1854
1918,1893,1829
1840,1813,1856
1837,1797,1881
1867,1919,1847
1867,1808,1850
1865,1774,1770
1839,1697,1813
1831,1763,1891
1850,1803,1887
1858,1828,1863
1869,1847,1869
1859,1827,1850
1840,1829,1847
1840,1838,1843
1856,1872,1853
1873,1876,1838
1870,1771,1844
1853,1783,1851
1872,1819,1856
1872,1869,1853
1873,1901,1835
1861,1802,1809
1835,1810,1862
1841,1850,1863
1889,1833,1785
1803,1735,1855
1808,1756,1877
1859,1799,1847
1891,1796,1826
1860,1819,1853
1843,1849,1859
1869,1856,1865
1872,1861,1854
1863,1861,1846
1871,1853,1854
1882,1861,1851
1879,1840,1846
1856,1861,1840
1873,1922,1840
1887,1823,1840
1854,1744,1856
1824,1753,1795
1854,1827,1845
1889,1885,1908
1851,1826,1863
1821,1763,1830
1856,1815,1843
1875,1886,1831
1893,1888,1823
1842,1795,1832
1793,1746,1887
1834,1780,1878
1854,1810,1850
1851,1834,1843
1875,1838,1853
1883,1855,1850
1872,1856,1851
1850,1855,1850
1885,1875,1833
1885,1846,1846
1855,1850,1867
1853,1831,1802
1891,1869,1830
1877,1823,1873
1846,1825,1869
1851,1842,1850
1856,1835,1842
1859,1820,1847
1861,1808,1842
1858,1819,1842
1863,1840,1847
1881,1863,1846
1876,1857,1845
1838,1861,1847
1855,1865,1840
1877,1839,1840
1845,1838,1856
1837,1857,1841
1847,1843,1861
1878,1835,1847
1907,1834,1826
1840,1813,1813
1826,1862,1803
1827,1785,1837
1825,1733,1883
1856,1781,1875
1861,1840,1863
1859,1826,1841
1854,1826,1840
1843,1828,1840
1856,1865,1842
1872,1863,1843
1854,1830,1831
1846,1848,1835
1879,1836,1831
1873,1850,1862
1841,1818,1858
1843,1819,1822
1889,1885,1852
1885,1840,1840
1804,1807,1867
1814,1834,1837
1840,1810,1802
1838,1798,1846
1835,1793,1856
1838,1841,1855
1859,1844,1847
1875,1814,1842
1856,1829,1850
1856,1840,1842
1859,1902,1838
1883,1840,1841
1874,1789,1830
1851,1854,1847
1847,1867,1846
1845,1833,1847
1840,1808,1830
1842,1834,1806
1851,1850,1856
1861,1831,1859
1878,1808,1810
1864,1856,1840
1851,1875,1854
1855,1873,1838
1811,1751,1829
1814,1754,1840
1840,1810,1842
1867,1841,1839
1869,1843,1834
1854,1840,1831
1872,1854,1829
1892,1859,1836
1883,1856,1791
1855,1843,1835
1863,1854,1847
1874,1840,1823
1849,1759,1817
1813,1783,1833
1807,1831,1850
1840,1871,1843
1854,1837,1841
1845,1844,1819
1871,1829,1792
1859,1808,1846
1851,1823,1856
1856,1852,1850
1867,1837,1838
1859,1844,1839
1858,1845,1839
1856,1856,1851
1850,1813,1821
1866,1874,1834
1892,1899,1825
1813,1694,1774
1773,1776,1840
1818,1799,1869
1856,1846,1842
1862,1791,1783
1840,1855,1870
1826,1765,1863
1826,1776,1859
1831,1829,1851
1862,1850,1840
