1847,2025,1942
1865,1911,1929
1840,1861,1933
1826,1782,1981
1793,1828,1975
1798,1893,1968
1855,1933,1968
1872,1947,1959
1877,2009,1957
1872,1932,1943
1848,1890,1959
1822,1948,1995
1835,1931,1983
1840,1930,1936
1836,1895,1929
1821,1863,1989
1825,2022,1966
1808,1813,1973
1838,1835,1962
1840,1829,1925
1866,1875,1921
1858,1878,1929
1787,1878,1987
1776,1904,1993
1803,1904,1982
1830,1927,1959
1853,1886,1955
1864,1961,1963
1825,1822,1921
1793,1855,1959
1815,1893,1966
1825,1868,1955
1808,1886,1953
1819,1903,1936
1845,2000,1936
1835,1794,1937
1808,1798,1951
1824,1831,1931
1842,1798,1917
1823,1851,1957
1781,1933,1945
1769,1758,1922
1785,1808,1951
1807,1860,1954
1834,1883,1947
1840,1926,1941
1839,1912,1917
1821,1806,1916
1809,1847,1954
1872,2003,1925
1824,1833,1929
1779,1743,1925
1799,1777,1906
1845,1810,1857
1802,1775,1917
1808,1855,1942
1797,1820,1936
1815,1833,1930
1841,1856,1920
1865,1895,1911
1805,1813,1908
1814,1837,1897
1844,1905,1911
1835,1863,1904
1795,1747,1869
1830,1779,1871
1850,1811,1934
1835,1946,1910
1807,1851,1904
1808,1761,1907
1838,1776,1903
1838,1883,1882
1814,1811,1878
1835,1776,1873
1835,1781,1887
1854,1891,1905
1855,1878,1899
1776,1717,1862
1769,1769,1910
1805,1824,1892
1815,1820,1871
1837,1843,1905
1858,1824,1909
1852,1876,1907
1810,1851,1878
1822,1835,1857
1843,1858,1883
1841,1803,1886
1840,1831,1869
1826,1812,1856
1831,1797,1869
1840,1798,1882
1846,1809,1867
1847,1871,1877
1877,1856,1825
1856,1744,1840
1759,1733,1903
1763,1767,1894
1804,1786,1882
1827,1813,1885
1824,1856,1887
1846,1881,1856
1843,1825,1858
1808,1726,1872
1801,1744,1867
1830,1792,1855
1863,1844,1866
1878,1853,1863
1825,1807,1866
1825,1781,1851
1847,1803,1857
1862,1789,1853
1835,1833,1872
1855,1856,1865
1861,1854,1826
1825,1758,1836
1813,1772,1877
1840,1787,1881
1861,1843,1885
1869,1843,1840
1835,1810,1787
1823,1874,1842
1798,1799,1874
1785,1683,1869
1798,1718,1856
1830,1782,1850
1861,1826,1877
1851,1822,1879
1833,1856,1843
1840,1840,1850
1853,1771,1856
1859,1773,1842
1834,1793,1826
1872,1868,1841
1870,1773,1799
1819,1791,1839
1793,1776,1865
1808,1762,1855
1834,1790,1850
1856,1803,1859
1885,1773,1810
1850,1903,1850
1824,1869,1856
1808,1807,1824
1774,1663,1849
1798,1733,1873
1856,1776,1863
1857,1797,1831
1839,1834,1809
1847,1791,1839
1874,1801,1856
1872,1826,1840
1885,1818,1760
1791,1719,1872
1808,1775,1896
1827,1792,1863
1827,1792,1837
1842,1835,1853
1862,1829,1840
1847,1836,1830
1840,1860,1822
1871,1884,1808
1863,1760,1839
1808,1757,1838
1805,1766,1857
1840,1808,1870
1869,1877,1843
1878,1867,1821
1824,1747,1783
1835,1791,1807
1854,1808,1855
1853,1837,1830
1840,1870,1835
1815,1841,1865
1824,1839,1842
1849,1874,1830
1845,1847,1822
1888,1874,1835
1858,1859,1853
1821,1899,1837
1806,1875,1831
1831,1936,1808
1853,1868,1840
1802,1837,1858
1806,1867,1821
1827,1876,1826
1847,1968,1850
1860,1942,1838
1849,1922,1802
1845,1821,1823
1831,1845,1861
1809,1904,1848
1824,1933,1828
1834,1931,1827
1863,1969,1827
1867,1916,1826
1828,1910,1838
1845,1931,1827
1853,1936,1843
1872,1951,1838
1843,1946,1831
1857,1982,1793
1873,2069,1872
1849,1965,1888
1833,1906,1840
1856,1946,1809
1874,1974,1823
1863,1983,1835
1866,2091,1774
1825,1962,1818
1822,1857,1840
1834,1856,1851
1837,1929,1849
1846,1942,1836
1872,1996,1835
1865,1973,1837
1846,1966,1833
1846,1974,1831
1898,1977,1806
1889,2067,1809
1797,1968,1872
1809,1985,1859
1877,2038,1840
1877,1987,1824
1840,1978,1819
1840,2031,1843
1879,1991,1852
1877,2035,1799
1850,1990,1789
1808,1964,1862
1830,1977,1856
1858,2006,1829
1840,1919,1840
1832,1936,1831
1871,1962,1810
1874,2018,1833
1867,2035,1840
1887,2030,1823
1910,1999,1808
1840,2019,1857
1818,2047,1850
1845,2047,1847
1872,1969,1845
1884,1999,1852
1877,1985,1818
1877,2000,1822
1887,1970,1831
1834,1917,1815
1807,1977,1839
1842,1913,1851
1875,2000,1829
1843,1979,1850
1820,1985,1854
1856,1991,1825
1895,1989,1853
1862,2010,1862
1829,1968,1852
1839,2007,1834
1877,1989,1843
1879,1979,1853
1849,2026,1849
1847,1995,1841
1886,1924,1823
1852,1855,1820
1793,1893,1853
1808,1931,1876
1859,1984,1877
1872,1995,1879
1867,1931,1840
1840,1923,1840
1917,1939,1835
1849,1950,1822
1811,1924,1844
1821,1984,1894
1858,1973,1890
1889,1938,1872
1847,1920,1851
1847,1968,1872
1898,2044,1847
1869,1855,1835
1840,1876,1850
1878,1974,1830
1868,1872,1861
1863,1845,1872
1821,1899,1870
1843,1936,1872
1902,1995,1860
1918,1921,1812
1809,1847,1859
1812,1884,1870
1867,1908,1834
1862,1919,1845
1844,1954,1869
1857,1965,1872
1867,1918,1842
1863,1872,1850
1849,1875,1859
1870,1870,1846
1911,1955,1829
1875,1966,1868
1818,1810,1851
1833,1798,1856
1875,1867,1867
1933,1920,1858
1852,1846,1838
1838,1902,1809
1887,1927,1856
1825,1878,1887
1794,1821,1862
1822,1851,1840
1869,1883,1847
1899,1941,1818
1879,1808,1782
1824,1839,1891
1849,1881,1899
1871,1887,1861
1857,1874,1860
1872,1883,1871
1904,2001,1852
1885,1877,1840
1820,1714,1846
1841,1783,1813
1881,1785,1829
1897,1865,1890
1846,1793,1861
1794,1810,1843
1840,1819,1815
1881,1919,1814
1831,1822,1861
1821,1776,1895
1863,1824,1868
1873,1844,1860
1855,1858,1862
1847,1863,1846
1876,1841,1840
1878,1829,1843
1863,1843,1840
1861,1829,1856
1902,1809,1831
1898,1945,1865
1843,1789,1838
1833,1808,1863
1898,1744,1850
1838,1732,1872
1786,1769,1865
1815,1818,1855
1845,1809,1863
1869,1840,1841
1853,1835,1857
1840,1835,1872
1861,1779,1856
1870,1794,1866
1866,1805,1840
1872,1827,1840
1888,1842,1847
1878,1835,1851
1872,1834,1845
1870,1856,1815
1877,1901,1821
1866,1785,1823
1811,1744,1866
1823,1797,1873
1883,1744,1851
1872,1792,1825
1837,1779,1837
1841,1789,1875
1872,1865,1851
1847,1762,1843
1830,1744,1859
1840,1783,1867
1859,1807,1841
1879,1846,1823
1827,1803,1843
1826,1771,1844
1861,1808,1855
1874,1824,1851
1865,1807,1850
1857,1817,1842
1897,1751,1799
1872,1808,1840
1872,1917,1818
1797,1689,1855
1798,1712,1869
1840,1775,1854
1857,1730,1795
1849,1803,1831
1859,1777,1883
1844,1775,1879
1839,1788,1842
1853,1806,1845
1891,1823,1856
1886,1868,1859
1846,1820,1863
1835,1786,1846
1852,1776,1842
1856,1826,1824
1862,1712,1808
1867,1718,1825
1865,1777,1878
1849,1859,1884
1820,1744,1840
1825,1777,1847
1840,1754,1840
1853,1779,1866
1840,1781,1841
1846,1783,1833
1870,1802,1841
1861,1800,1839
1879,1798,1847
1879,1941,1834
1834,1723,1849
1839,1738,1840
1827,1727,1840
1875,1807,1812
1894,1695,1792
1827,1709,1881
1819,1823,1887
1835,1789,1856
1873,1737,1861
1856,1729,1846
1846,1747,1846
1870,1826,1839
1867,1812,1845
1851,1746,1840
1831,1750,1850
1839,1801,1862
1887,1817,1840
1872,1808,1835
1861,1790,1831
1841,1803,1846
1841,1716,1819
1847,1683,1807
1823,1762,1817
1841,1762,1807
1873,1742,1847
1872,1711,1862
1833,1771,1872
1824,1776,1861
1862,1827,1843
1887,1805,1850
1850,1751,1854
1845,1761,1850
1872,1791,1862
1883,1790,1851
1885,1882,1841
1843,1791,1867
1840,1711,1837
1813,1703,1808
1835,1815,1858
1831,1775,1840
1854,1839,1791
1843,1757,1849
1814,1789,1861
1831,1727,1851
1872,1712,1850
1876,1792,1841
1841,1781,1840
1835,1775,1840
1874,1819,1808
1861,1777,1833
1809,1713,1858
1829,1788,1872
1881,1802,1871
1863,1747,1851
1806,1745,1814
1826,1743,1808
1875,1819,1856
1856,1898,1887
1839,1821,1837
1853,1761,1799
1840,1741,1872
1842,1722,1857
1840,1751,1840
1865,1846,1840
1898,1837,1822
1883,1730,1831
1808,1712,1845
1808,1804,1870
1846,1777,1855
1846,1775,1840
1847,1808,1825
1862,1807,1844
1867,1806,1839
1875,1744,1833
1847,1729,1825
1801,1762,1875
1840,1815,1863
1862,1815,1826
1856,1805,1837
1835,1799,1890
1840,1793,1877
1872,1792,1855
1837,1825,1856
1840,1810,1820
1831,1749,1827
1826,1726,1835
1867,1794,1799
1839,1687,1831
1812,1751,1887
1839,1788,1874
1840,1808,1866
1853,1811,1851
1867,1823,1846
1875,1850,1842
1857,1827,1849
1854,1935,1839
1869,1851,1790
1810,1702,1889
1821,1710,1866
1808,1728,1872
1822,1804,1872
1827,1826,1867
1825,1778,1868
1840,1778,1835
1888,1791,1841
1895,1924,1818
1837,1776,1849
1810,1733,1873
1809,1781,1855
1853,1808,1855
1857,1826,1859
1839,1859,1850
1859,1798,1847
1856,1826,1851
1810,1782,1843
1874,1814,1850
1891,1941,1794
1831,1761,1851
1788,1731,1888
1806,1750,1853
1837,1765,1854
1879,1831,1840
1833,1750,1831
1808,1795,1875
1839,1803,1872
1885,1776,1808
1868,1808,1847
1825,1931,1875
1829,1898,1872
1847,1786,1859
1838,1785,1855
1837,1802,1845
1866,1836,1867
1861,1828,1870
1819,1825,1856
1825,1825,1859
1856,1898,1828
1857,1796,1817
1811,1762,1872
1799,1782,1872
1853,1803,1853
1825,1781,1830
1808,1772,1827
1801,1744,1856
1821,1807,1879
1858,1828,1878
1812,1830,1815
1819,1870,1814
1818,1830,1856
1857,1847,1879
1807,1808,1840
1801,1745,1840
1840,1801,1847
1837,1815,1826
1813,1826,1818
1803,1811,1890
1806,1802,1886
1838,1840,1838
1813,1858,1819
1776,1823,1851
1796,1804,1886
1802,1789,1870
1824,1837,1845
1798,1823,1829
1840,1783,1808
1830,1809,1855
1797,1837,1854
1806,1872,1855
1849,1872,1869
1821,1790,1842
1776,1798,1837
1790,1836,1840
1824,1808,1821
1819,1805,1794
1807,1913,1847
1774,1772,1867
1788,1735,1840
1803,1834,1868
1787,1796,1853
1793,1799,1855
1840,1844,1839
1771,1824,1838
1746,1807,1859
1777,1871,1865
1808,1871,1849
1809,1784,1840
1777,1793,1843
1799,1872,1851
1843,1829,1854
1806,1806,1856
1777,1833,1850
1802,1843,1843
1845,1921,1807
1808,1785,1869
1786,1765,1845
1782,1754,1857
1775,1838,1865
1830,1856,1867
1799,1810,1824
1817,1833,1811
1783,1751,1851
1791,1818,1872
1788,1837,1840
1758,1837,1855
1763,1838,1844
1791,1808,1853
1782,1840,1857
1787,1817,1857
1805,1841,1851
1826,1857,1840
1787,1819,1823
1797,1813,1795
1802,1834,1865
1813,1827,1866
1793,1830,1861
1822,1980,1868
1829,1882,1861
1783,1698,1833
1753,1712,1817
1776,1793,1853
1794,1856,1846
1841,1867,1835
1815,1809,1797
1781,1819,1849
1808,1841,1873
1795,1871,1859
1751,1823,1845
1749,1831,1830
1840,1847,1839
1835,1854,1775
1767,1807,1834
1774,1810,1917
1808,1867,1877
1815,1835,1872
1796,1799,1843
1806,1834,1843
1843,1870,1831
1835,1865,1842
1818,1759,1840
1809,1871,1847
1846,1957,1846
1795,1754,1845
1719,1683,1823
1734,1791,1842
1791,1840,1859
1840,1855,1857
1797,1822,1798
1827,1809,1802
1824,1853,1837
1785,1830,1888
1765,1801,1884
1806,1826,1857
1841,1822,1845
1849,1840,1855
1817,1850,1853
1814,1887,1867
1842,1914,1837
1825,1782,1840
1825,1760,1844
1834,1850,1871
1825,1847,1854
1816,1837,1856
1765,1783,1872
1776,1808,1855
1840,1776,1821
1819,1867,1881
1783,1779,1870
1774,1792,1871
1840,1890,1845
1825,1814,1861
1798,1787,1869
1793,1838,1857
1839,1849,1856
1861,1882,1863
1825,1847,1860
1825,1834,1857
1861,1856,1850
1831,1808,1879
1790,1819,1871
1807,1872,1847
1851,1779,1809
1837,1827,1869
1819,1858,1878
1791,1860,1840
1819,1878,1855
1789,1841,1887
1783,1764,1899
1798,1831,1872
1835,1847,1872
1845,1861,1872
1821,1798,1833
1834,1791,1849
1846,1941,1857
1827,1863,1871
1799,1744,1858
1824,1776,1859
1860,1840,1881
1867,1887,1889
1829,1810,1841
1851,1845,1882
1872,1840,1872
1858,1825,1845
1839,1857,1851
1855,1865,1854
1847,1829,1897
1845,1868,1858
1787,1770,1878
1793,1811,1879
1862,1843,1872
1847,1904,1855
1808,1791,1867
1813,1809,1877
1858,1834,1882
1887,1903,1901
1838,1856,1872
1808,1795,1849
1858,1844,1855
1855,1795,1851
1856,1782,1846
1845,1843,1878
1861,1854,1883
1853,1839,1853
1840,1818,1878
1834,1899,1919
1872,1850,1873
1884,1767,1852
1846,1814,1833
1812,1787,1868
1830,1855,1866
1856,1895,1871
1819,1796,1870
1823,1773,1872
1853,1777,1886
1856,1849,1887
1862,1825,1874
1855,1789,1867
1870,1809,1845
1889,1855,1895
1845,1821,1875
1842,1824,1859
1859,1875,1872
1890,1862,1871
1893,1930,1825
1845,1760,1901
1840,1683,1872
1823,1783,1885
1791,1839,1883
1848,1874,1829
1841,1798,1867
1831,1801,1872
1851,1765,1894
1840,1789,1874
1883,1840,1867
1883,1862,1873
1847,1860,1866
1856,1836,1867
1872,1872,1857
1878,1819,1810
1867,1837,1872
1850,1847,1868
1887,1823,1860
1856,1840,1857
1820,1892,1877
1806,1775,1877
1829,1760,1877
1854,1771,1873
1866,1811,1861
1837,1861,1858
1825,1855,1872
1849,1833,1875
1846,1810,1861
1875,1839,1855
1891,1851,1882
1891,1853,1867
1887,1872,1869
1875,1840,1813
1883,1819,1841
1879,1870,1875
1845,1749,1827
1823,1784,1855
1855,1822,1878
1825,1845,1888
1862,1868,1865
1840,1803,1856
1856,1785,1843
1868,1775,1857
1872,1808,1867
1864,1842,1854
1873,1856,1884
1872,1826,1885
1872,1790,1837
1870,1852,1842
1890,1883,1843
1937,1866,1829
1841,1830,1840
1773,1779,1869
1832,1815,1865
1869,1839,1849
1859,1845,1801
1868,1840,1840
1859,1811,1887
1863,1833,1863
1866,1808,1831
1872,1773,1794
1906,1856,1857
1883,1920,1879
1834,1840,1829
1837,1715,1847
1859,1742,1861
1877,1803,1850
1869,1861,1847
1872,1817,1845
1872,1776,1821
1873,1828,1839
1839,1866,1850
1864,1809,1804
1862,1810,1863
1879,1919,1873
1839,1792,1840
1837,1744,1843
1895,1792,1855
1890,1827,1851
1867,1839,1838
1903,1840,1841
1881,1904,1841
1887,1885,1831
1866,1791,1827
1906,1753,1855
1897,1867,1834
1878,1859,1792
1795,1776,1813
1798,1814,1855
1856,1744,1803
1885,1785,1878
1862,1807,1871
1874,1870,1837
1845,1827,1865
1837,1785,1857
1853,1804,1842
1858,1794,1828
1879,1822,1837
1897,1843,1840
1882,1844,1851
1888,1857,1841
1902,1872,1850
1902,1893,1847
1861,1837,1815
1849,1807,1829
1859,1808,1826
1868,1778,1821
1909,1759,1786
1863,1881,1801
1859,1788,1826
1833,1808,1904
1851,1823,1887
1878,1894,1843
1882,1748,1830
1856,1750,1844
1846,1799,1846
1840,1797,1834
1895,1818,1837
1904,1840,1842
1868,1838,1846
1889,1910,1855
1898,1845,1841
1883,1840,1850
1853,1793,1837
1867,1786,1830
1873,1821,1823
1892,1852,1797
1857,1792,1812
1851,1796,1841
1882,1901,1855
1865,1835,1857
1850,1855,1836
1841,1795,1865
1898,1815,1872
1884,1745,1798
1856,1812,1856
1843,1855,1861
1898,1866,1856
1904,1873,1847
1887,1892,1810
1882,1856,1845
1852,1804,1846
1857,1817,1813
1873,1751,1776
1859,1689,1825
1840,1840,1883
1843,1819,1871
1852,1807,1851
1883,1840,1843
1898,1846,1841
1885,1856,1860
1867,1810,1830
1840,1818,1828
1862,1840,1838
1881,1862,1850
1872,1841,1833
1869,1839,1858
1883,1838,1843
1904,1905,1808
1883,1785,1837
1817,1795,1861
1855,1819,1823
1886,1822,1797
1856,1908,1827
1840,1822,1851
1843,1740,1843
1818,1712,1854
1827,1773,1855
1867,1873,1856
1878,1819,1839
1871,1790,1839
1856,1793,1835
1859,1817,1840
1904,1840,1840
1895,1858,1840
1875,1840,1832
1883,1846,1846
1893,1844,1846
1872,1882,1807
1839,1840,1828
1863,1853,1840
1898,1858,1782
1856,1810,1840
1815,1776,1872
1824,1807,1858
1872,1839,1850
1905,1843,1805
1872,1825,1805
1808,1779,1853
1851,1808,1844
1865,1783,1840
1872,1843,1845
1874,1879,1840
1857,1824,1829
1845,1767,1843
1855,1807,1845
1861,1839,1841
1897,1856,1855
1891,1840,1841
1851,1849,1834
1854,1873,1846
1879,1867,1840
1919,1801,1799
1879,1851,1811
1818,1825,1892
1871,1903,1861
1902,1872,1840
1826,1694,1823
1806,1733,1844
1872,1827,1850
1894,1847,1783
1843,1846,1836
1833,1821,1867
1876,1831,1860
1878,1830,1844
1872,1836,1821
1840,1834,1845
1870,1859,1840
1876,1858,1831
1858,1868,1837
1863,1876,1825
1882,1829,1838
1890,1827,1812
1874,1867,1799
1862,1871,1838
1900,1854,1856
1840,1855,1881
1822,1811,1798
1794,1680,1840
1825,1751,1851
1856,1847,1838
1840,1815,1829
1856,1819,1833
1879,1833,1826
1883,1858,1841
1867,1872,1843
1862,1867,1836
1885,1872,1805
1879,1845,1834
1859,1863,1857
1851,1834,1827
1881,1809,1808
1893,1861,1849
1904,1848,1858
1855,1859,1866
1854,1855,1841
1856,1806,1830
1811,1719,1801
1842,1787,1840
1887,1920,1867
1869,1879,1823
1834,1776,1808
1846,1754,1817
1876,1787,1843
1907,1846,1839
1874,1840,1840
1858,1829,1841
1869,1811,1825
1869,1791,1791
1875,1778,1785
1870,1834,1862
1881,1901,1837
1888,1839,1840
1847,1825,1843
1835,1808,1827
1837,1775,1839
1856,1850,1839
1859,1881,1831
1846,1786,1831
1856,1783,1827
1847,1865,1863
1842,1879,1847
1838,1879,1813
1872,1846,1808
1868,1814,1835
1858,1782,1837
1867,1838,1823
1889,1907,1781
1863,1770,1779
1808,1748,1872
1837,1843,1872
1869,1859,1837
1847,1787,1823
1850,1776,1855
1835,1845,1840
1855,1856,1811
1867,1874,1807
1867,1811,1797
1837,1854,1842
1872,1874,1842
1871,1828,1814
1815,1831,1840
1827,1847,1847
1871,1867,1845
1904,1903,1838
1831,1824,1787
1829,1751,1801
1844,1803,1846
1845,1884,1851
1837,1901,1853
1861,1851,1839
1863,1787,1834
1843,1828,1822
1859,1840,1823
1843,1776,1823
1872,1791,1843
1888,1856,1854
1840,1844,1835
1833,1871,1842
1855,1792,1814
1872,1806,1820
1882,1840,1819
1872,1849,1786
1872,1744,1744
1809,1845,1858
1807,1891,1904
1805,1811,1876
1837,1841,1836
1865,1859,1839
1856,1808,1840
1826,1798,1816
1836,1801,1829
1862,1795,1837
1851,1825,1839
1852,1850,1839
1861,1866,1850
1886,1889,1850
1861,1851,1831
1849,1903,1840
1843,1879,1837
1871,1788,1823
1869,1706,1725
1784,1764,1869
1800,1868,1876
1840,1843,1842
1878,1840,1802
1847,1855,1839
1819,1828,1872
1823,1840,1859
1819,1793,1830
1840,1856,1819
1847,1855,1834
1851,1805,1825
1825,1822,1839
1837,1845,1852
1858,1889,1849
1883,1881,1841
1827,1808,1825
1818,1897,1808
1839,1876,1808
1819,1731,1803
1797,1799,1847
1821,1833,1872
1790,1803,1869
1810,1807,1846
1808,1829,1819
1821,1907,1832
1865,1858,1845
1857,1883,1847
1809,1855,1859
1786,1802,1822
1822,1837,1843
1839,1869,1843
1819,1800,1836
1834,1811,1807
1837,1840,1857
1803,1809,1851
1799,1801,1785
1804,1814,1819
1813,1918,1856
1828,1860,1853
1794,1802,1843
1776,1822,1863
1806,1854,1866
1824,1858,1859
1825,1862,1856
1808,1869,1834
1825,1842,1815
1823,1869,1857
1817,1909,1853
1783,1856,1840
1808,1867,1833
1802,1871,1853
1766,1753,1843
1791,1795,1835
1799,1790,1832
1819,1815,1831
1795,1795,1769
1782,1949,1834
1763,1823,1867
1739,1776,1869
1743,1769,1853
1777,1808,1857
1789,1855,1846
1762,1885,1840
1758,1898,1826
1748,1859,1853
1773,1859,1856
1795,1858,1852
1742,1879,1838
1725,1801,1834
1759,1838,1851
1747,1813,1853
1735,1814,1861
1776,1905,1829
1767,1841,1854
1775,1782,1795
1714,1856,1840
1743,1925,1856
1760,1905,1840
1746,1831,1849
1714,1724,1872
1747,1751,1827
1773,1808,1841
1769,1840,1855
1755,1845,1866
1791,1871,1870
1828,1851,1847
1777,1935,1848
1738,1791,1829
1750,1773,1837
1813,1782,1829
1827,1819,1851
1780,1786,1801
1753,1829,1811
1759,1885,1872
1778,1889,1862
1790,1869,1846
1787,1851,1847
1830,1899,1831
1841,1854,1845
1776,1909,1875
1776,1939,1835
1790,1799,1825
1779,1794,1856
1779,1782,1861
1764,1791,1840
1805,1850,1838
1814,1863,1822
1804,1759,1798
1737,1771,1847
1782,1811,1858
1803,1828,1840
1837,1808,1786
1803,1899,1871
1826,1872,1889
1775,1871,1872
1769,1856,1845
1791,1871,1842
1824,1883,1831
1866,1914,1838
1824,1781,1836
1779,1829,1838
1795,1869,1847
1801,1827,1838
1793,1790,1829
1793,1805,1831
1839,1847,1834
1850,1847,1847
1834,1817,1859
1820,1822,1806
1819,1801,1858
1837,1791,1842
1829,1835,1869
1835,1851,1838
1856,1855,1833
1843,1863,1850
1807,1840,1838
1769,1857,1853
1794,1846,1847
1810,1824,1840
1823,1839,1845
1810,1840,1862
1843,1884,1867
1815,1841,1817
1807,1785,1808
1813,1809,1843
1855,1822,1836
1851,1840,1798
1851,1815,1798
1808,1844,1877
1835,1845,1890
1863,1891,1898
1845,1841,1862
1865,1856,1834
1803,1761,1835
1803,1791,1790
1827,1825,1834
1829,1924,1869
1823,1827,1843
1811,1802,1857
1814,1854,1837
1826,1807,1841
1857,1847,1845
1869,1843,1841
1869,1810,1837
1837,1804,1824
1849,1813,1840
1876,1879,1791
1866,1791,1822
1845,1829,1873
1867,1873,1874
1866,1902,1831
1843,1875,1840
1829,1781,1840
1843,1773,1851
1861,1839,1855
1856,1886,1839
1833,1789,1831
1849,1851,1841
1884,1793,1808
1829,1782,1846
1809,1827,1848
1843,1857,1844
1873,1799,1855
1840,1794,1839
1845,1854,1840
1877,1808,1797
1882,1809,1851
1854,1819,1842
1840,1849,1857
1849,1821,1851
1846,1831,1855
1845,1851,1843
1858,1883,1828
1890,1812,1827
1900,1869,1813
1840,1782,1849
1814,1821,1857
1874,1837,1839
1887,1858,1827
1856,1856,1831
1826,1792,1839
1872,1808,1808
1881,1776,1841
1841,1751,1821
1854,1783,1810
1872,1822,1860
1871,1859,1860
1881,1845,1831
1885,1840,1823
1901,1851,1843
1914,1876,1859
1856,1809,1851
1839,1789,1859
1861,1776,1823
1877,1792,1844
1850,1833,1859
1863,1902,1807
1879,1829,1841
1903,1845,1840
1882,1724,1797
1840,1775,1851
1871,1843,1871
1889,1838,1856
1870,1811,1865
1863,1845,1852
1883,1826,1827
1879,1872,1835
1872,1875,1841
1873,1869,1839
1859,1797,1874
1873,1756,1848
1843,1774,1835
1861,1831,1826
1915,1861,1815
1883,1808,1837
1851,1821,1861
1871,1852,1885
1879,1851,1853
1919,1814,1797
1875,1867,1839
1842,1828,1841
1859,1754,1874
1876,1742,1838
1856,1815,1849
1852,1803,1834
1883,1827,1841
1919,1844,1855
1882,1823,1842
1849,1819,1840
1875,1850,1839
1918,1902,1837
1882,1770,1815
1845,1787,1862
1886,1789,1840
1886,1831,1843
1859,1898,1854
1853,1878,1862
1898,1927,1845
1913,1850,1809
1849,1744,1825
1838,1829,1857
1874,1872,1863
1872,1920,1902
1859,1823,1840
1865,1795,1828
1890,1861,1843
1893,1835,1837
1872,1803,1840
1867,1847,1840
1902,1886,1840
1882,1853,1824
1840,1769,1815
1850,1825,1856
1897,1865,1861
1975,1858,1789
1872,1830,1797
1773,1853,1884
1814,1847,1886
1872,1854,1852
1875,1904,1835
1872,1875,1831
1889,1808,1841
1895,1823,1845
1872,1853,1835
1869,1888,1872
1882,1845,1844
1888,1842,1841
1885,1875,1823
1889,1852,1828
1903,1873,1829
1927,1979,1828
1854,1742,1811
1840,1715,1846
1873,1850,1871
1890,1872,1853
1902,1824,1781
1901,1888,1860
1872,1845,1872
1859,1841,1860
1842,1807,1802
1846,1806,1858
1858,1861,1866
1901,1872,1855
1890,1866,1831
1879,1889,1840
1904,1894,1862
1908,1872,1845
1885,1858,1837
1904,1954,1821
1910,1901,1840
1872,1775,1797
1846,1759,1794
1850,1945,1872
1859,1776,1862
1839,1771,1850
1845,1813,1841
1870,1856,1855
1901,1878,1833
1885,1883,1829
1881,1875,1849
1878,1867,1841
1901,1901,1843
1920,1935,1846
1913,1892,1846
1883,1859,1839
1895,1922,1845
1903,1904,1845
1858,1882,1833
1885,1893,1814
1921,1956,1828
1872,1759,1834
1820,1775,1829
1845,1853,1849
1863,1888,1859
1869,1839,1866
1868,1850,1845
1870,1888,1853
1888,1891,1853
1904,1894,1849
1894,1937,1838
1891,1866,1854
1891,1858,1833
1904,1883,1839
1890,1879,1837
1877,1919,1845
1889,1945,1856
1915,1918,1871
1897,1902,1842
1874,1968,1839
1861,1872,1839
1875,1844,1851
1887,1872,1847
1911,1906,1783
1881,1803,1815
1850,1891,1881
1847,1925,1869
1875,1826,1799
1883,1919,1885
1879,1926,1887
1871,1897,1840
1883,1910,1835
1917,1989,1835
1895,1892,1803
1873,1814,1830
1873,1838,1841
1887,1839,1870
1921,1903,1866
1858,1851,1822
1838,1906,1822
1883,1829,1774
1902,1866,1813
1840,1892,1874
1837,1869,1849
1882,1910,1852
1891,1913,1844
1910,1878,1840
1831,1891,1839
1869,1935,1850
1881,1950,1851
1876,1933,1858
1881,1934,1857
1902,1883,1792
1903,1925,1840
1869,1962,1850
1887,1922,1843
1860,1758,1797
1841,1778,1854
1857,1810,1827
1866,1854,1878
1901,1874,1854
1905,1866,1854
1842,1877,1854
1846,1899,1852
1872,1887,1838
1900,1887,1853
1899,1890,1851
1878,1904,1857
1906,1894,1843
1887,1883,1858
1879,1879,1853
1878,1897,1846
1872,1904,1858
1894,1987,1856
1873,1876,1840
1877,1679,1731
1865,1786,1850
1875,1878,1892
1895,1904,1874
1877,1904,1840
1866,1890,1841
1874,1901,1845
1860,1829,1845
1867,1793,1851
1876,1839,1843
1904,1870,1842
1861,1901,1840
1872,1884,1845
1905,1890,1867
1909,1904,1853
1885,1858,1834
1871,1872,1859
1881,1904,1872
1949,1861,1783
1897,1818,1839
1847,1875,1861
1872,1871,1862
1917,1878,1847
1899,1843,1834
1889,1843,1790
1874,1858,1856
1908,1840,1847
1925,1894,1821
1907,1872,1844
1889,1858,1857
1892,1817,1855
1907,1842,1824
1886,1819,1835
1904,1843,1853
1910,1878,1843
1904,1867,1834
1899,1904,1854
1941,1904,1846
1977,1938,1813
1919,1712,1770
1840,1791,1878
1889,1883,1886
1909,1904,1873
1896,1856,1894
1900,1799,1829
1931,1763,1815
1919,1810,1831
1915,1872,1851
1904,1833,1839
1913,1866,1831
1951,1921,1815
1917,1855,1809
1856,1762,1853
1855,1795,1863
1898,1842,1843
1881,1842,1831
1903,1883,1843
1878,1828,1834
1879,1825,1840
1872,1857,1806
1911,1835,1788
1881,1826,1871
1862,1847,1876
1843,1846,1848
1851,1868,1841
1883,1898,1847
1913,1938,1825
1810,1735,1837
1801,1775,1835
1839,1858,1827
1879,1822,1840
1815,1778,1841
1792,1800,1839
1837,1843,1821
1888,1886,1827
1833,1863,1837
1798,1821,1842
1825,1849,1829
1847,1872,1826
1836,1851,1822
1822,1830,1848
1839,1845,1853
1871,1868,1808
1838,1808,1802
1830,1842,1822
1829,1889,1858
1793,1802,1851
1767,1806,1863
1759,1794,1872
1811,1765,1854
1836,1798,1851
1787,1824,1837
1802,1857,1853
1825,1886,1886
1806,1825,1851
1783,1791,1826
1810,1807,1831
1827,1821,1842
1810,1838,1849
1798,1824,1841
1808,1872,1816
1808,1827,1795
1787,1790,1899
1776,1805,1902
1811,1865,1843
1840,1837,1815
1819,1821,1795
1744,1712,1843
1755,1761,1867
1813,1822,1840
1819,1831,1852
1797,1826,1851
