1816,1830,1843
1833,1809,1840
1879,1738,1808
1857,1926,1890
1781,1931,1883
1782,1798,1835
1808,1806,1799
1817,1799,1837
1790,1819,1887
1803,1843,1878
1840,1863,1865
1823,1805,1840
1814,1767,1831
1840,1834,1856
1820,1870,1865
1820,1870,1859
1812,1827,1855
1808,1811,1852
1818,1815,1840
1827,1830,1840
1840,1814,1808
1829,1809,1851
1827,1893,1874
1843,1872,1863
1837,1831,1850
1812,1803,1849
1821,1835,1840
1862,1816,1833
1829,1850,1858
1789,1818,1855
1808,1826,1841
1819,1807,1815
1811,1771,1819
1808,1821,1856
1847,1835,1864
1825,1856,1857
1818,1854,1840
1799,1840,1840
1812,1834,1840
1835,1840,1841
1862,1863,1836
1849,1792,1795
1817,1789,1831
1802,1845,1881
1793,1826,1860
1808,1840,1838
1834,1818,1840
1834,1851,1810
1799,1779,1855
1795,1773,1845
1811,1851,1849
1813,1854,1851
1817,1842,1847
1830,1755,1839
1821,1882,1861
1830,1872,1849
1803,1830,1833
1812,1840,1840
1826,1831,1824
1834,1819,1840
1806,1809,1853
1818,1818,1854
1831,1837,1846
1834,1840,1842
1836,1819,1841
1837,1829,1837
1802,1876,1873
1820,1872,1856
1827,1838,1842
1831,1866,1849
1808,1867,1836
1805,1813,1851
1817,1781,1844
1799,1737,1833
1822,1795,1830
1834,1872,1857
1819,1842,1847
1820,1878,1846
1817,1838,1837
1813,1796,1854
1811,1782,1862
1824,1781,1851
1837,1841,1851
1840,1870,1842
1842,1776,1813
1831,1828,1872
1840,1873,1879
1855,1876,1863
1817,1835,1851
1820,1837,1856
1830,1839,1843
1840,1841,1839
1829,1824,1840
1831,1833,1853
1838,1850,1856
1831,1840,1862
1831,1775,1827
1819,1805,1840
1840,1853,1841
1853,1820,1842
1809,1833,1856
1840,1844,1855
1819,1888,1856
1792,1854,1855
1798,1828,1859
1814,1808,1840
1859,1808,1813
1853,1883,1858
1800,1881,1846
1807,1744,1814
1829,1831,1837
1827,1827,1859
1818,1810,1871
1823,1797,1847
1821,1871,1837
1831,1830,1833
1840,1805,1840
1814,1851,1856
1826,1855,1857
1853,1867,1856
1834,1872,1853
1820,1808,1841
1832,1818,1838
1836,1823,1835
1840,1803,1821
1818,1855,1838
1823,1847,1853
1837,1802,1823
1838,1808,1844
1846,1885,1886
1796,1863,1852
1791,1840,1811
1805,1799,1840
1835,1808,1857
1819,1821,1843
1812,1825,1840
1821,1829,1834
1842,1790,1808
1855,1793,1852
1827,1889,1860
1827,1859,1866
1815,1822,1857
1808,1799,1842
1808,1803,1838
1823,1807,1847
1835,1829,1853
1829,1841,1841
1834,1808,1822
1838,1807,1803
1821,1815,1855
1838,1882,1879
1814,1871,1863
1817,1904,1872
1840,1887,1846
1829,1823,1843
1822,1802,1840
1817,1808,1840
1845,1840,1851
1834,1842,1847
1829,1827,1840
1828,1793,1831
1840,1839,1860
1821,1851,1858
1831,1859,1856
1827,1847,1843
1837,1843,1833
1837,1882,1834
1841,1854,1819
1825,1771,1825
1827,1731,1831
1815,1843,1862
1817,1808,1834
1827,1821,1830
1805,1808,1863
1828,1858,1871
1856,1910,1856
1841,1881,1853
1804,1858,1853
1797,1762,1827
1825,1790,1820
1815,1822,1842
1808,1839,1855
1840,1847,1850
1856,1840,1844
1830,1840,1847
1847,1844,1857
1836,1853,1851
1830,1870,1854
1827,1852,1857
1840,1840,1846
1840,1741,1792
1825,1852,1845
1834,1903,1867
1830,1867,1855
1843,1835,1840
1838,1772,1839
1814,1823,1843
1810,1819,1850
1859,1840,1843
1849,1846,1846
1820,1842,1833
1828,1712,1807
1840,1809,1868
1842,1867,1871
1834,1847,1857
1809,1851,1855
1825,1859,1851
1833,1870,1856
1827,1829,1835
1812,1830,1842
1850,1785,1799
1871,1835,1853
1835,1795,1865
1791,1834,1865
1798,1862,1851
1824,1860,1840
1845,1841,1845
1861,1909,1852
1835,1872,1839
1807,1776,1823
1829,1767,1808
1821,1836,1865
1817,1850,1865
1823,1847,1853
1829,1865,1856
1834,1818,1860
1837,1824,1850
1833,1852,1854
1810,1802,1823
1825,1809,1839
1851,1783,1807
1837,1844,1832
1830,1882,1862
1846,1894,1856
1829,1779,1804
1808,1811,1850
1814,1847,1877
1814,1845,1871
1844,1842,1851
1847,1827,1847
1838,1834,1857
1827,1842,1819
1809,1838,1821
1808,1847,1840
1815,1841,1851
1813,1823,1851
1838,1845,1847
1849,1835,1845
1826,1795,1827
1827,1840,1836
1823,1842,1853
1837,1840,1847
1819,1836,1867
1823,1786,1823
1837,1857,1858
1824,1886,1872
1804,1853,1859
1815,1824,1845
1833,1843,1840
1830,1840,1841
1813,1809,1845
1840,1872,1855
1838,1815,1819
1822,1824,1851
1800,1826,1861
1818,1825,1867
1838,1854,1836
1840,1795,1809
1834,1793,1842
1808,1845,1872
1799,1851,1859
1810,1853,1846
1808,1827,1838
1820,1808,1835
1827,1786,1820
1825,1838,1843
1829,1844,1855
1835,1841,1840
1841,1840,1803
1823,1819,1866
1815,1827,1890
1808,1845,1866
1823,1856,1846
1838,1803,1834
1841,1831,1851
1811,1851,1858
1815,1858,1850
1840,1852,1842
1849,1866,1861
1839,1873,1858
1805,1840,1841
1820,1847,1840
1827,1853,1847
1831,1840,1858
1827,1843,1838
1824,1830,1833
1814,1813,1855
1815,1839,1851
1840,1887,1851
1827,1834,1837
1828,1727,1776
1830,1794,1824
1815,1874,1881
1829,1896,1902
1830,1856,1866
1831,1741,1813
1845,1726,1806
1800,1872,1859
1803,1898,1872
1834,1854,1869
1838,1856,1852
1815,1895,1833
1820,1825,1848
1809,1791,1857
1839,1834,1858
1850,1865,1850
1828,1808,1853
1839,1840,1870
1840,1843,1859
1834,1840,1845
1802,1819,1850
1805,1836,1842
1816,1823,1842
1846,1837,1853
1825,1763,1806
1799,1794,1843
1810,1827,1865
1825,1843,1851
1826,1895,1857
1811,1870,1865
1823,1854,1850
1836,1837,1843
1825,1863,1840
1817,1842,1850
1831,1824,1840
1834,1863,1851
1831,1814,1843
1840,1837,1853
1835,1814,1847
1835,1778,1834
1809,1808,1841
1819,1863,1853
1808,1837,1846
1806,1791,1808
1792,1830,1837
1804,1877,1869
1821,1872,1868
1815,1735,1810
1811,1818,1852
1802,1846,1870
1827,1821,1842
1839,1858,1862
1813,1863,1867
1815,1842,1853
1845,1846,1845
1842,1835,1843
1837,1807,1844
1828,1860,1856
1823,1859,1841
1807,1830,1838
1798,1851,1839
1822,1854,1845
1840,1790,1840
1826,1803,1850
1831,1779,1814
1827,1850,1863
1829,1886,1872
1824,1818,1846
1824,1764,1858
1807,1867,1870
1808,1849,1867
1813,1843,1857
1827,1847,1831
1826,1798,1840
1824,1807,1840
1830,1808,1831
1821,1826,1865
1815,1842,1866
1845,1883,1861
1854,1870,1868
1831,1851,1855
1807,1819,1846
1814,1824,1855
1838,1833,1863
1843,1776,1817
1823,1855,1866
1835,1881,1874
1854,1863,1861
1840,1835,1856
1814,1819,1858
1827,1844,1856
1836,1873,1859
1823,1815,1839
1826,1815,1850
1849,1816,1839
1854,1831,1873
1809,1826,1870
1805,1843,1869
1811,1830,1859
1823,1828,1856
1824,1805,1840
1813,1806,1851
1835,1827,1853
1844,1831,1851
1847,1820,1855
1844,1831,1843
1851,1804,1831
1821,1872,1859
1808,1787,1835
1801,1843,1867
1813,1871,1888
1823,1840,1854
1842,1846,1842
1823,1859,1859
1837,1881,1851
1843,1808,1840
1817,1771,1842
1815,1765,1853
1821,1840,1859
1838,1866,1854
1840,1879,1838
1839,1839,1835
1822,1813,1859
1815,1817,1859
1814,1840,1866
1839,1831,1845
1840,1821,1835
1835,1837,1834
1811,1799,1834
1831,1769,1793
1837,1844,1841
1808,1863,1883
1804,1791,1863
1819,1813,1853
1824,1860,1847
1834,1861,1853
1826,1840,1856
1815,1845,1878
1838,1822,1830
1841,1850,1822
1820,1837,1856
1811,1782,1853
1819,1831,1870
1830,1851,1867
1808,1827,1865
1808,1813,1856
1838,1856,1853
1839,1793,1827
1819,1827,1867
1811,1872,1877
1811,1840,1840
1825,1865,1862
1808,1817,1863
1841,1836,1862
1835,1838,1858
1819,1870,1847
1820,1840,1857
1814,1808,1856
1826,1840,1855
1817,1841,1851
1815,1829,1846
1811,1805,1852
1831,1839,1855
1826,1863,1850
1818,1837,1860
1819,1805,1857
1837,1822,1846
1859,1868,1819
1818,1742,1802
1817,1779,1843
1827,1787,1858
1836,1823,1861
1814,1895,1882
1799,1873,1881
1807,1872,1863
1813,1871,1858
1823,1840,1858
1833,1831,1868
1841,1847,1851
1828,1847,1856
1819,1834,1847
1813,1834,1842
1821,1845,1839
1843,1850,1853
1829,1828,1855
1827,1824,1847
1839,1839,1847
1826,1878,1836
1829,1760,1790
1819,1757,1845
1821,1834,1882
1824,1918,1874
1817,1809,1835
1833,1833,1843
1835,1869,1855
1854,1918,1843
1819,1778,1847
1798,1776,1856
1815,1819,1853
1865,1856,1867
1850,1845,1859
1821,1798,1837
1828,1832,1833
1839,1806,1835
1837,1747,1814
1819,1822,1861
1809,1857,1870
1840,1869,1857
1826,1839,1846
1841,1797,1808
1846,1840,1840
1840,1878,1870
1808,1835,1857
1806,1769,1837
1846,1808,1837
1859,1854,1843
1815,1951,1856
1797,1887,1867
1808,1813,1861
1808,1785,1845
1825,1783,1867
1843,1815,1855
1851,1835,1840
1838,1835,1839
1819,1875,1842
1839,1817,1842
1851,1808,1849
1831,1830,1851
1808,1813,1847
1827,1831,1855
1840,1835,1840
1839,1847,1849
1820,1776,1811
1835,1825,1842
1812,1883,1866
1810,1839,1856
1821,1818,1842
1834,1776,1829
1839,1840,1847
1845,1872,1857
1849,1791,1807
1834,1814,1850
1808,1895,1891
1810,1854,1830
1810,1795,1840
1812,1807,1872
1847,1833,1874
1823,1837,1839
1819,1828,1831
1830,1827,1841
1835,1834,1841
1827,1835,1842
1828,1818,1843
1835,1835,1849
1877,1809,1821
1845,1839,1835
1804,1859,1868
1837,1897,1862
1840,1840,1813
1834,1840,1839
1812,1793,1855
1794,1792,1857
1835,1836,1851
1829,1824,1837
1813,1774,1841
1830,1839,1863
1837,1855,1842
1827,1841,1842
1818,1879,1856
1834,1810,1827
1856,1776,1815
1843,1852,1840
1807,1822,1868
1812,1823,1865
1847,1794,1815
1826,1853,1846
1815,1853,1871
1821,1822,1856
1827,1837,1853
1849,1885,1847
1850,1794,1832
1829,1801,1839
1808,1871,1856
1835,1851,1856
1842,1798,1859
1845,1812,1847
1830,1823,1838
1823,1807,1845
1809,1854,1861
1813,1872,1871
1831,1818,1842
1854,1776,1845
1843,1767,1821
1807,1853,1858
1788,1887,1869
1810,1794,1815
1815,1811,1853
1817,1840,1858
1835,1866,1856
1824,1809,1826
1810,1835,1837
1808,1883,1845
1813,1842,1835
1837,1838,1855
1830,1830,1850
1829,1809,1850
1825,1840,1850
1854,1862,1840
1827,1815,1845
1828,1792,1856
1840,1808,1849
1811,1835,1838
1821,1840,1840
1828,1850,1821
1841,1741,1822
1829,1873,1885
1805,1872,1876
1818,1904,1876
1818,1874,1861
1821,1841,1844
1815,1790,1830
1823,1814,1841
1829,1879,1854
1835,1856,1851
1840,1830,1853
1834,1833,1853
1811,1835,1829
1822,1855,1840
1830,1808,1853
1827,1798,1846
1837,1828,1844
1833,1846,1846
1847,1846,1845
1818,1802,1841
1815,1788,1846
1867,1710,1781
1824,1793,1858
1789,1862,1887
1786,1888,1872
1833,1890,1853
1840,1865,1856
1831,1793,1839
1815,1814,1845
1803,1869,1872
1822,1843,1851
1838,1802,1839
1851,1815,1840
1842,1833,1850
1840,1846,1855
1836,1837,1862
1824,1814,1847
1845,1850,1856
1829,1855,1828
1829,1806,1838
1829,1805,1839
1830,1759,1817
1839,1766,1830
1839,1839,1871
1823,1857,1857
1851,1871,1862
1840,1840,1850
1827,1808,1842
1835,1773,1816
1843,1878,1838
1839,1850,1867
1819,1799,1850
1808,1826,1847
1823,1843,1847
1836,1808,1842
1851,1805,1831
1842,1775,1803
1834,1861,1847
1824,1834,1894
1830,1840,1872
1819,1809,1840
1840,1783,1823
1835,1791,1822
1813,1840,1857
1823,1840,1859
1850,1856,1857
1857,1866,1847
1807,1781,1833
1808,1774,1840
1840,1794,1833
1845,1854,1859
1861,1907,1863
1839,1865,1850
1841,1823,1851
1846,1799,1843
1872,1809,1854
1846,1839,1838
1804,1868,1835
1793,1793,1849
1813,1790,1859
1833,1807,1851
1872,1814,1848
1853,1811,1831
1837,1815,1815
1842,1851,1829
1817,1858,1872
1815,1860,1891
1834,1830,1861
1839,1811,1823
1854,1723,1792
1836,1791,1843
1835,1878,1872
1827,1882,1855
1839,1867,1857
1840,1872,1838
1840,1821,1844
1845,1840,1849
1845,1850,1852
1826,1808,1846
1819,1762,1825
1825,1818,1834
1856,1857,1850
1867,1827,1851
1811,1808,1854
1824,1840,1814
1859,1785,1818
1838,1856,1873
1834,1895,1893
1831,1830,1838
1810,1793,1840
1823,1822,1856
1837,1838,1858
1870,1825,1851
1861,1852,1853
1840,1849,1857
1823,1806,1840
1801,1823,1840
1829,1841,1850
1870,1798,1833
1847,1830,1854
1847,1894,1852
1857,1903,1843
1828,1834,1840
1823,1766,1840
1853,1827,1842
1849,1803,1819
1839,1775,1833
1807,1834,1865
1807,1851,1858
1818,1821,1844
1833,1856,1857
1823,1856,1837
1813,1793,1830
1829,1847,1855
1845,1904,1888
1869,1894,1868
1846,1823,1855
1839,1826,1819
1810,1792,1833
1823,1814,1829
1853,1776,1817
1875,1755,1834
1854,1830,1875
1843,1831,1844
1776,1835,1862
1820,1843,1879
1833,1889,1875
1834,1867,1834
1862,1905,1819
1883,1851,1856
1824,1834,1892
1813,1806,1854
1872,1803,1822
1837,1873,1815
1847,1895,1847
1841,1833,1809
1897,1821,1872
1826,1806,1859
1787,1828,1830
1823,1808,1849
1891,1901,1874
1846,1871,1850
1812,1777,1861
1856,1804,1854
1841,1847,1853
1825,1886,1829
1840,1846,1840
1808,1871,1841
1847,1869,1855
1874,1867,1851
1862,1887,1845
1827,1840,1797
1815,1695,1744
1781,1899,1833
1793,1878,1850
1872,1916,1872
1838,1901,1802
1831,1837,1801
1790,1734,1807
1786,1793,1838
1882,1874,1825
1811,1792,1803
1748,1759,1803
1808,1802,1804
1844,1885,1792
1783,1809,1773
1777,1797,1770
1839,1778,1787
1873,1808,1791
1833,1872,1818
1818,1872,1833
1824,1834,1810
1798,1795,1776
1744,1791,1727
1745,1824,1765
1821,1847,1809
1863,1808,1818
1804,1795,1830
1792,1872,1862
1807,1833,1815
1777,1808,1769
1812,1843,1788
1796,1798,1787
1790,1731,1774
1867,1828,1760
1808,1834,1778
1776,1776,1804
1827,1867,1789
1786,1841,1775
1794,1811,1791
1831,1817,1810
1763,1776,1813
1777,1809,1808
1810,1831,1810
1775,1763,1776
1734,1731,1793
1877,1904,1843
1873,1851,1817
1774,1818,1777
1787,1776,1809
1810,1731,1798
1798,1814,1837
1769,1872,1825
1808,1894,1807
1822,1856,1791
1776,1797,1791
1855,1854,1808
1840,1827,1824
1741,1776,1795
1738,1766,1811
1785,1786,1817
1856,1805,1813
1805,1787,1798
1795,1822,1804
1867,1905,1831
1846,1920,1815
1835,1802,1831
1807,1701,1794
1837,1750,1798
1841,1841,1887
1768,1840,1834
1904,1806,1781
1904,1840,1823
1767,1924,1863
1796,1898,1838
1846,1841,1827
1886,1745,1808
1776,1799,1799
1669,1837,1810
1680,1806,1814
1791,1809,1853
1777,1791,1818
1807,1771,1790
1921,1730,1776
1984,1920,1893
1979,1891,1907
1727,1823,1808
1678,1785,1792
1710,1769,1815
2123,1963,1857
2170,1909,1875
1855,1845,1889
1579,1769,1841
1712,1820,1831
1855,1797,1745
1896,1833,1824
1795,1942,1869
1735,1728,1907
1829,1765,1824
1879,1850,1789
1708,1831,1822
1748,1849,1862
1870,1842,1891
1933,1902,1872
1913,1825,1808
1648,1776,1778
1620,1807,1783
1759,1793,1817
1857,1829,1860
1904,1840,1847
1839,1874,1856
1825,1855,1889
1805,1841,1828
1690,1712,1762
1679,1744,1781
1739,1764,1838
1808,1908,1866
1794,1840,1847
1823,1859,1862
1969,1914,1902
1739,1792,1770
1713,1821,1776
1729,1762,1816
1769,1755,1828
1856,1817,1835
1838,1824,1837
1835,1871,1878
1753,1983,1872
1778,1846,1853
1775,1773,1851
1805,1821,1818
1830,1699,1762
1680,1759,1798
1685,1889,1867
1776,1856,1870
1824,1783,1823
1808,1843,1839
1813,1877,1863
1772,1830,1853
1684,1778,1854
1751,1808,1861
1735,1804,1807
1769,1855,1869
1843,1970,1915
1904,1823,1888
1904,1779,1879
1744,1673,1702
1683,1839,1813
1795,1903,1929
1839,1885,1911
1757,1819,1845
1823,1865,1879
1807,1869,1856
1808,1842,1839
1779,1861,1839
1827,1891,1890
1782,1809,1911
1818,1832,1882
1872,1856,1859
1813,1882,1845
1760,1853,1831
1702,1745,1856
1769,1803,1858
1977,1906,1887
1757,1844,1866
1719,1791,1864
1858,1887,1911
1959,1907,1921
1786,1838,1872
1701,1723,1835
1761,1772,1839
1787,1871,1870
1791,1889,1899
1903,2043,1936
1865,1888,1893
1826,1808,1821
1854,1826,1875
1817,1814,1920
1680,1811,1866
1712,1824,1843
1845,1739,1841
1901,1914,1914
1722,1870,1822
1684,1811,1873
1854,1937,2000
1966,1949,1936
1770,1834,1824
1801,1872,1863
1792,1841,1906
1794,1838,1903
1760,1843,1881
1776,1833,1827
1875,1827,1857
1890,1831,1859
1796,1900,1865
1843,1850,1907
1829,1747,1893
1781,1813,1907
1795,1943,1936
1737,1840,1872
1749,1865,1887
1961,1851,1916
1871,1847,1898
1679,1801,1836
1705,1814,1863
1862,1808,1910
1872,1840,1899
1801,1817,1885
1841,1858,1904
1844,1811,1899
1795,1904,1933
1903,1917,1927
1835,1843,1808
1839,1891,1897
1803,1761,1867
1812,1808,1874
1835,1798,1858
1806,1893,1872
1805,1893,1901
1891,1831,1909
1936,1805,1866
1776,1840,1856
1728,1818,1902
1814,1940,1918
1855,1883,1881
1936,1776,1904
1935,1893,1892
1718,1795,1876
1713,1745,1868
1827,1832,1856
1954,1871,1887
1877,1839,1888
1941,1968,1907
1971,1871,1904
1809,1745,1863
1887,1871,1923
1798,1911,1911
1815,1907,1920
2007,1980,1913
1856,1881,1857
1790,1861,1872
1808,1825,1898
1863,1951,1895
1797,1773,1803
1834,1783,1849
1999,1961,1973
1888,1983,1916
1707,1760,1846
1863,1689,1819
1917,1761,1855
1840,1955,1921
1779,1936,1925
1936,1931,1904
1914,1856,1850
1759,1825,1831
1763,1893,1847
1809,1799,1855
1946,1873,1904
1834,1869,1840
1744,1854,1845
1910,1785,1872
1911,1798,1920
1936,1890,1915
1835,1839,1863
1773,1828,1783
1874,1881,1854
1935,1874,1914
1819,1787,1872
1803,1799,1874
1895,1916,1909
2000,1933,1863
1763,1751,1839
1732,1708,1847
1838,1870,1900
1847,1824,1876
1797,1857,1901
1869,1885,1919
1893,1872,1904
1830,1811,1840
1840,1799,1830
1909,1898,1889
2000,1868,1858
1798,1749,1779
1678,1719,1851
1747,1741,1857
1878,1861,1872
1909,1779,1856
1857,1899,1891
1923,1966,1915
1933,1913,1918
2000,1867,1905
1725,1793,1840
1727,1755,1820
1859,1831,1882
1921,1858,1873
1852,1883,1858
1808,1907,1837
1824,1782,1852
1854,1782,1905
1927,1904,1880
1946,1847,1870
1885,1807,1856
1855,1832,1868
1801,1794,1847
1847,1838,1874
1810,1715,1816
1840,1789,1847
1837,1902,1849
1824,1856,1899
1863,1927,1920
1901,1851,1862
1933,1775,1850
1835,1831,1874
1808,1843,1881
1805,1889,1865
1851,1839,1856
1904,1808,1882
1931,1855,1877
1830,1840,1855
1785,1901,1844
1801,1781,1808
1972,1821,1883
1929,1827,1835
1844,1889,1856
1748,1805,1856
1862,1861,1917
1873,1829,1903
1818,1835,1883
1959,1830,1835
1869,1841,1894
1846,1861,1909
1839,1853,1865
1883,1904,1840
1831,1831,1865
1806,1793,1879
1813,1807,1889
1853,1793,1867
1916,1851,1862
1944,1883,1858
1930,1872,1878
1833,1787,1879
1767,1804,1842
1838,1844,1825
1888,1902,1893
1915,1900,1905
1904,1877,1889
1894,1855,1864
1808,1723,1828
1895,1776,1859
1933,1840,1904
1899,1859,1876
1948,1925,1904
1819,1797,1882
1731,1797,1846
1853,1883,1843
1886,1872,1866
1921,1827,1872
1891,1840,1882
1875,1834,1879
1876,1803,1888
1958,1857,1909
1947,1922,1905
1813,1856,1832
1787,1774,1803
1869,1843,1892
1952,1869,1865
1920,1808,1847
1930,1995,1886
1841,1811,1881
1779,1762,1853
1840,1831,1884
1858,1872,1873
1881,1808,1857
1865,1813,1886
1861,1820,1872
1927,1813,1842
1927,1840,1870
1884,1904,1915
1882,1922,1893
1935,1902,1870
1904,1776,1835
1811,1882,1902
1871,1890,1889
1853,1877,1857
1851,1853,1872
1878,1839,1843
1919,1853,1859
2032,1877,1885
2000,1854,1890
1851,1914,1864
1761,1889,1845
1838,1825,1892
1807,1726,1859
1885,1824,1872
1897,1891,1892
1922,1929,1894
1946,1870,1846
1856,1738,1793
1872,1841,1875
1941,1934,1939
1828,1891,1893
1774,1867,1867
1856,1843,1859
1919,1889,1861
1950,1867,1872
1951,1830,1873
1842,1871,1858
1824,1917,1849
1905,1823,1858
2056,1787,1840
1881,1783,1840
1781,1898,1878
1808,1940,1872
1901,1891,1854
1936,1811,1827
1840,1845,1893
1824,1818,1915
1815,1791,1864
1907,1885,1840
1952,1919,1879
1936,1868,1858
1898,1914,1890
1853,1879,1852
1827,1766,1798
1867,1799,1847
1941,1821,1870
1810,1840,1863
1786,1800,1856
1866,1766,1840
1949,1957,1889
1919,1954,1869
1931,1911,1824
1911,1765,1821
1793,1829,1910
1808,1914,1911
1918,1936,1882
1936,1859,1869
1856,1818,1851
1872,1902,1831
1981,1877,1867
1917,1821,1888
1804,1801,1875
1898,1866,1904
1922,1821,1858
1791,1875,1865
1821,1842,1859
1881,1872,1854
1934,1793,1820
1889,1804,1823
1854,1791,1848
1834,1838,1868
1916,1840,1867
1921,1961,1858
1824,1923,1867
1803,1821,1838
1805,1829,1859
1911,1889,1871
1906,1875,1872
1855,1919,1875
1875,1814,1845
1918,1871,1889
1936,1904,1855
1851,1822,1838
1814,1787,1861
1862,1907,1904
1903,1902,1855
1841,1807,1815
1823,1715,1813
1869,1824,1822
1824,1821,1820
1855,1856,1855
1881,1850,1872
1879,1878,1834
1862,1866,1871
1845,1841,1907
1846,1870,1888
1862,1874,1856
1891,1850,1847
1892,1840,1856
1894,1841,1863
1875,1863,1883
1879,1840,1847
1930,1857,1831
1838,1848,1849
1858,1857,1863
1872,1855,1871
1962,1973,1893
1911,1885,1867
1822,1650,1805
1827,1609,1778
1877,1857,1892
1868,1936,1901
1875,1922,1856
1835,1856,1831
1800,1791,1821
1823,1831,1842
1808,1847,1884
1857,1841,1843
1858,1828,1824
1872,1813,1872
1965,1872,1879
1973,1902,1869
1826,1895,1840
1773,1807,1809
1825,1751,1819
1872,1791,1855
1879,1891,1869
1845,1862,1850
1835,1776,1808
1897,1773,1792
1879,1838,1846
1904,1936,1874
1839,1879,1862
1827,1872,1885
1872,1865,1859
1927,1884,1841
1824,1780,1837
1761,1760,1841
1777,1793,1813
1910,1909,1857
1961,1936,1884
1941,1847,1850
1765,1722,1781
1717,1793,1802
1866,1811,1825
1910,1800,1840
1874,1760,1826
1875,1875,1855
1872,1936,1875
1822,1882,1858
1827,1883,1872
1859,1875,1856
1861,1808,1845
1891,1835,1808
1851,1846,1843
1827,1841,1850
1778,1753,1840
1779,1760,1827
1851,1792,1837
1907,1857,1854
1936,1856,1865
1854,1882,1866
1810,1846,1815
1808,1713,1757
1839,1821,1862
1872,1872,1888
1850,1770,1827
1833,1827,1824
1771,1887,1835
1811,1837,1846
1875,1798,1851
1968,1887,1824
1855,1927,1842
1795,1814,1856
1725,1746,1849
1776,1806,1840
1872,1841,1838
1985,1904,1857
1872,1789,1847
1831,1821,1829
1840,1803,1815
1915,1847,1850
1897,1808,1785
1803,1776,1837
1786,1776,1851
1834,1884,1882
1823,1902,1872
1840,1773,1818
1830,1809,1819
1871,1867,1853
1872,1862,1855
1846,1810,1812
1808,1812,1849
1795,1834,1861
1860,1861,1840
1939,1924,1845
1858,1872,1859
1819,1842,1867
1799,1776,1831
1831,1824,1851
1835,1808,1844
1851,1782,1830
1873,1839,1853
1870,1838,1808
1877,1794,1847
1815,1844,1868
1841,1881,1855
1844,1776,1862
1867,1817,1841
1806,1839,1827
1781,1833,1838
1856,1861,1858
1877,1833,1886
1851,1887,1850
1828,1838,1837
1803,1802,1797
1786,1793,1833
1799,1797,1879
1830,1840,1869
1911,1904,1870
1912,1823,1843
1833,1795,1856
1783,1821,1837
1842,1789,1787
1904,1892,1856
1914,1893,1877
1828,1802,1835
1778,1744,1810
1819,1845,1832
1856,1873,1879
1803,1829,1852
1843,1843,1849
1881,1856,1850
1901,1883,1843
1843,1825,1827
1799,1809,1825
1818,1831,1792
1867,1840,1840
1890,1847,1860
1797,1858,1840
1805,1856,1843
1831,1693,1823
1871,1817,1891
1823,1859,1857
1841,1851,1843
1934,1908,1867
1869,1867,1847
1758,1803,1856
1821,1733,1807
1833,1785,1824
1821,1827,1826
1846,1811,1830
1850,1856,1859
1839,1860,1879
1853,1887,1885
1874,1825,1855
1874,1775,1839
1813,1803,1854
1838,1884,1855
1809,1872,1829
1847,1828,1840
1809,1824,1844
1872,1854,1820
1963,1857,1794
1809,1824,1911
1757,1759,1897
1857,1810,1840
1889,1847,1831
1839,1807,1841
1801,1758,1830
1799,1874,1841
1900,1920,1873
1840,1767,1839
1808,1792,1845
1822,1873,1856
1825,1856,1840
1850,1796,1839
1937,1813,1847
1890,1871,1873
1745,1861,1851
1725,1839,1833
1830,1819,1847
1865,1809,1822
1942,1825,1838
1997,1872,1886
1830,1889,1885
1723,1821,1826
1787,1884,1826
1855,1856,1843
1879,1764,1845
1863,1759,1827
1851,1811,1840
1843,1825,1870
1851,1841,1892
1857,1856,1844
1858,1862,1839
1823,1836,1851
1808,1833,1856
1837,1833,1877
1876,1858,1863
1875,1799,1769
1822,1795,1867
1808,1798,1851
1842,1834,1818
1882,1935,1910
1889,1902,1863
1765,1827,1826
1814,1802,1858
1794,1785,1854
1839,1856,1853
1904,1825,1870
1872,1755,1836
1809,1776,1819
1829,1839,1893
1872,1871,1879
1872,1855,1830
1840,1904,1831
1869,1840,1860
1840,1798,1862
1835,1791,1842
1845,1804,1847
1867,1840,1845
1840,1875,1855
1903,1840,1842
1833,1786,1842
1861,1782,1862
1915,1818,1822
1806,1859,1840
1842,1962,1878
1813,1680,1818
1776,1767,1827
1907,1878,1900
1859,1840,1861
1728,1735,1819
1776,1818,1837
1897,1861,1881
1854,1841,1874
1851,1842,1851
1817,1829,1850
1843,1894,1875
1847,1879,1866
1808,1815,1851
1808,1819,1843
1882,1851,1852
1875,1817,1859
1891,1885,1879
1855,1817,1838
1769,1728,1778
1862,1847,1874
1857,1843,1901
1840,1858,1879
1790,1814,1840
1795,1814,1830
1812,1820,1853
1907,1902,1872
1826,1910,1872
1780,1780,1842
1840,1771,1840
1871,1872,1859
1882,1863,1847
1856,1870,1863
1840,1807,1851
1851,1840,1863
1894,1893,1874
1818,1734,1849
1808,1824,1856
1807,1776,1818
1822,1798,1858
1872,1811,1867
1858,1945,1876
1792,1831,1821
1791,1794,1821
1842,1839,1888
1872,1855,1893
1828,1744,1823
1796,1799,1822
1817,1859,1853
1833,1872,1898
1798,1831,1887
1834,1803,1826
1895,1869,1847
1821,1838,1827
1818,1806,1839
1919,1909,1862
1877,1851,1883
1839,1842,1851
1867,1771,1793
1811,1847,1824
1782,1827,1861
1835,1826,1887
1795,1818,1859
1790,1798,1838
1823,1834,1875
1841,1843,1863
1885,1878,1848
1810,1831,1808
1755,1819,1802
1791,1831,1841
1853,1863,1863
1837,1856,1866
1809,1844,1847
1809,1843,1832
1851,1839,1831
1844,1828,1840
1846,1829,1865
1847,1808,1845
1785,1904,1827
1869,1903,1842
1945,1771,1802
1863,1735,1833
1762,1943,1951
1850,1943,1920
1809,1840,1854
1758,1697,1790
1744,1778,1830
1873,1873,1860
1903,1839,1872
1818,1785,1843
1823,1847,1840
1818,1791,1823
1798,1813,1846
1807,1871,1878
1825,1886,1879
1856,1865,1861
1795,1861,1839
1802,1840,1831
1808,1837,1846
1875,1875,1826
1840,1760,1805
1844,1751,1830
1809,1842,1859
1824,1839,1884
1859,1942,1895
1860,1873,1858
1811,1850,1856
1822,1798,1835
