1898,1994,2175
1875,2000,2253
1883,1997,2257
1851,1970,2255
1852,1983,2299
1866,1984,2347
1889,1995,2342
1872,1990,2320
1845,1979,2342
1863,1979,2373
1854,1955,2330
1869,1968,2323
1896,2017,2369
1889,2010,2384
1862,1987,2331
1861,2000,2305
1871,2022,2336
1872,2032,2353
1875,2027,2314
1877,2043,2288
1872,2064,2303
1870,2064,2314
1878,2065,2279
1865,2087,2253
1871,2115,2275
1877,2127,2288
1890,2140,2242
1874,2149,2206
1865,2166,2229
1872,2179,2246
1877,2173,2198
1886,2193,2174
1885,2213,2195
1865,2197,2190
1872,2195,2153
1869,2211,2128
1872,2229,2150
1885,2233,2162
1888,2226,2126
1884,2236,2094
1877,2257,2112
1891,2258,2127
1886,2231,2074
1872,2230,2036
1878,2256,2069
1886,2242,2074
1875,2224,2019
1872,2225,1993
1887,2251,2031
1898,2246,2047
1891,2239,2003
1874,2230,1963
1887,2256,2007
1892,2250,2032
1883,2237,1981
1882,2239,1956
1881,2245,1970
1889,2243,1986
1895,2237,1968
1885,2224,1923
1878,2223,1938
1888,2223,1951
1889,2213,1923
1898,2211,1906
1892,2233,1936
1906,2239,1963
1929,2246,1927
1873,2192,1862
1867,2185,1887
1886,2193,1920
1904,2192,1902
1901,2190,1875
1907,2209,1904
1882,2175,1879
1874,2149,1847
1887,2166,1839
1899,2182,1873
1906,2176,1900
1913,2167,1874
1890,2154,1825
1888,2164,1854
1897,2157,1879
1904,2131,1851
1904,2143,1821
1907,2162,1861
1923,2161,1876
1906,2127,1834
1898,2128,1807
1913,2143,1850
1904,2129,1853
1902,2114,1808
1898,2117,1789
1919,2151,1835
1907,2127,1844
1901,2096,1795
1900,2101,1786
1903,2121,1815
1909,2119,1840
1911,2103,1807
1899,2096,1781
1899,2101,1804
1899,2091,1810
1903,2077,1789
1905,2082,1772
1914,2096,1805
1918,2082,1825
1902,2063,1776
1891,2021,1735
1904,2095,1770
1920,2069,1807
1916,2033,1767
1895,2067,1744
1898,2022,1766
1918,2053,1796
1925,2064,1772
1918,2061,1748
1917,2019,1767
1921,2056,1785
1916,2035,1760
1913,2018,1744
1915,2084,1771
1922,2070,1793
1903,1984,1735
1899,2004,1714
1909,2020,1755
1925,2030,1785
1921,2001,1755
1926,2011,1729
1925,1983,1755
1929,2015,1777
1920,1995,1743
1920,1995,1728
1929,1964,1765
1917,2015,1772
1919,2045,1744
1909,1941,1719
1910,1995,1745
1907,1957,1771
1936,1948,1762
1921,1973,1727
1914,1951,1737
1921,2000,1774
1918,1941,1733
1905,1910,1695
1917,1965,1746
1929,1955,1774
1930,1959,1746
1933,1959,1717
1936,1970,1749
1945,1972,1782
1936,1937,1743
1921,1984,1706
1926,1936,1746
1926,1946,1776
1936,1940,1751
1920,1982,1713
1925,1950,1749
1931,1937,1770
1936,1919,1734
1931,1915,1715
1938,1967,1764
1936,1955,1787
1905,1851,1724
1904,1879,1706
1910,1951,1751
1933,1957,1776
1920,1873,1729
1929,1963,1715
1922,1974,1742
1921,1913,1766
1908,1898,1734
1911,1910,1722
1930,1904,1753
1936,1920,1776
1921,1883,1744
1913,1873,1718
1916,1909,1747
1933,1909,1792
1936,1856,1753
1936,1931,1732
1957,1936,1786
1935,1915,1794
1904,1847,1727
1902,1849,1699
1920,1888,1749
1917,1878,1776
1923,1872,1744
1927,1878,1734
1933,1904,1773
1936,1895,1806
1920,1870,1748
1927,1887,1734
1942,1881,1772
1936,1915,1792
1925,1871,1758
1922,1903,1741
1936,1903,1786
1951,1829,1808
1926,1857,1753
1927,1863,1735
1940,1895,1779
1942,1878,1808
1939,1866,1763
1939,1865,1744
1941,1890,1792
1918,1860,1791
1922,1851,1760
1935,1851,1742
1937,1875,1777
1947,1879,1821
1934,1842,1776
1943,1861,1761
1941,1872,1787
1937,1877,1808
1947,1825,1786
1939,1822,1762
1933,1840,1786
1941,1870,1814
1937,1823,1779
1922,1891,1743
1923,1858,1776
1963,1837,1817
1945,1927,1790
1920,1852,1743
1935,1828,1776
1947,1790,1813
1952,1919,1795
1942,1872,1776
1949,1906,1807
1935,1907,1808
1946,1873,1791
1947,1869,1781
1935,1862,1798
1937,1865,1827
1951,1911,1805
1946,1873,1786
1943,1844,1807
1949,1852,1835
1963,1902,1813
1918,1811,1761
1922,1883,1789
1936,1857,1817
1936,1832,1788
1952,1851,1777
1965,1872,1815
1950,1870,1840
1949,1856,1808
1951,1871,1794
1949,1939,1819
1949,1872,1841
1957,1846,1815
1961,1870,1797
1952,1873,1826
1946,1870,1845
1945,1920,1833
1937,1857,1789
1947,1866,1831
1953,1927,1861
1953,1816,1829
1951,1862,1806
1959,1922,1849
1965,1892,1883
1937,1840,1827
1934,1870,1792
1951,1935,1840
1945,1870,1861
1943,1856,1841
1947,1857,1814
1943,1859,1840
1952,1876,1872
1953,1872,1852
1953,1873,1831
1943,1887,1847
1951,1882,1871
1955,1869,1837
1964,1873,1818
1964,1904,1856
1960,1903,1879
1952,1866,1830
1937,1868,1808
1939,1875,1841
1968,1904,1895
1969,1878,1859
1925,1847,1786
1921,1870,1831
1941,1884,1877
1954,1872,1851
1955,1872,1830
1943,1893,1863
1940,1889,1882
1955,1888,1845
1958,1886,1821
1959,1897,1861
1954,1890,1878
1955,1882,1856
1959,1889,1835
1959,1902,1867
1961,1901,1894
1950,1886,1854
1951,1889,1839
1947,1902,1868
1965,1902,1892
1968,1887,1865
1959,1897,1850
1937,1897,1858
1950,1904,1893
1973,1915,1885
1949,1897,1837
1920,1885,1851
1923,1889,1877
1946,1879,1865
1949,1887,1839
1953,1905,1871
1957,1902,1897
1959,1903,1874
1953,1904,1850
1959,1913,1877
1953,1907,1904
1956,1903,1887
1967,1906,1860
1978,1939,1895
1963,1918,1909
1953,1886,1875
1955,1902,1856
1960,1927,1889
1978,1930,1918
1967,1904,1885
1957,1920,1871
1958,1923,1904
1943,1904,1911
1947,1897,1873
1945,1901,1856
1959,1926,1894
1980,1930,1932
1974,1918,1893
1943,1907,1857
1947,1917,1878
1957,1922,1913
1967,1921,1897
1968,1936,1873
1952,1928,1891
1956,1924,1910
1955,1916,1888
1951,1916,1852
1952,1935,1879
1943,1905,1890
1937,1903,1877
1951,1917,1874
1958,1930,1901
1962,1935,1916
1981,1945,1902
1959,1931,1872
1923,1914,1870
1935,1909,1891
1953,1910,1884
1950,1918,1859
1952,1935,1895
1955,1925,1927
1962,1922,1894
1951,1915,1858
1933,1923,1871
1936,1927,1910
1945,1922,1886
1950,1935,1872
1955,1947,1895
1968,1943,1923
1975,1942,1905
1939,1920,1854
1942,1931,1878
1953,1932,1915
1959,1924,1904
1957,1939,1872
1950,1943,1902
1942,1934,1918
1949,1923,1885
1951,1934,1868
1965,1961,1905
1968,1966,1939
1939,1924,1883
1947,1936,1866
1941,1946,1891
1937,1952,1910
1949,1947,1891
1947,1946,1870
1945,1958,1905
1955,1956,1933
1958,1941,1902
1949,1931,1852
1946,1950,1891
1936,1943,1919
1937,1922,1882
1938,1931,1852
1941,1947,1883
1962,1955,1925
1959,1942,1903
1937,1933,1856
1939,1947,1883
1956,1961,1920
1959,1941,1897
1968,1958,1878
1941,1947,1885
1931,1917,1894
1938,1906,1863
1942,1925,1856
1954,1947,1897
1969,1957,1930
1974,1947,1904
1963,1941,1861
1958,1958,1883
1966,1962,1918
1971,1954,1904
1962,1951,1879
1955,1950,1902
1968,1963,1922
1947,1927,1889
1954,1939,1861
1953,1960,1889
1963,1958,1927
1967,1943,1929
1975,1950,1909
1969,1969,1875
1974,1975,1920
1968,1957,1891
1963,1955,1896
1973,1984,1917
1951,1949,1897
1937,1934,1865
1957,1954,1872
1969,1974,1862
1969,1969,1895
1979,1957,1867
1961,1965,1837
1964,1975,1882
1982,1991,1941
1953,1941,1861
1936,1936,1852
1942,1961,1906
1959,1968,1889
1968,1954,1904
1957,1949,1878
1963,1968,1892
1959,1967,1909
1962,1955,1875
1963,1965,1851
1939,1968,1891
1947,1973,1927
1966,1968,1869
1966,1968,1889
1961,1985,1932
1937,1954,1882
1951,1936,1872
1959,1957,1904
1968,1984,1920
1955,1967,1929
1942,1947,1886
1943,1949,1858
1947,1960,1891
1967,1964,1936
1984,1968,1921
1957,1961,1886
1935,1957,1914
1951,1957,1930
1959,1955,1921
1948,1961,1887
1954,1971,1913
1963,1968,1936
1957,1959,1915
1958,1970,1898
1953,1970,1919
1953,1968,1942
1953,1954,1899
1965,1973,1899
1962,1986,1898
1951,1959,1929
1962,1952,1921
1941,1936,1883
1935,1948,1899
1963,1982,1985
1951,1955,1951
1948,1936,1907
1946,1956,1904
1965,1962,1923
1957,1943,1904
1951,1947,1858
1963,1970,1911
1967,1975,1905
1963,1953,1936
1947,1946,1887
1943,1961,1935
1955,1961,1905
1963,1952,1889
1958,1951,1882
1955,1968,1890
1954,1968,1931
1986,1995,1946
1951,1939,1871
1927,1936,1879
1938,1943,1911
1952,1952,1897
1963,1963,1883
1955,1969,1909
1951,1962,1923
1961,1965,1900
1955,1959,1883
1955,1965,1911
1963,1968,1938
1962,1958,1911
1953,1955,1840
1958,1971,1920
1952,1968,1936
1968,1958,1872
1974,1970,1899
1952,1955,1891
1942,1950,1919
1957,1949,1903
1968,1966,1875
1919,1930,1856
1933,1935,1901
1951,1936,1936
1952,1939,1867
1965,1969,1903
1968,1965,1921
1957,1934,1890
1953,1943,1929
1969,1965,1926
1983,1966,1993
1968,1945,1914
1965,1949,1872
1959,1968,1817
1954,1954,1957
1955,1951,1856
1958,1954,1857
1962,1966,1901
1970,1968,1938
1968,1952,1885
1967,1954,1878
1954,1938,1931
1955,1936,1899
1959,1931,1902
1963,1950,1871
1962,1957,1894
1954,1949,1904
1947,1936,1875
1947,1930,1840
1949,1953,1886
1957,1961,1915
1962,1948,1906
1959,1948,1870
1952,1958,1895
1958,1964,1891
1954,1939,1887
1954,1939,1860
1967,1971,1888
1950,1945,1902
1938,1923,1867
1941,1933,1845
1954,1942,1883
1963,1946,1931
1968,1946,1822
1968,1953,1872
1945,1940,1907
1942,1936,1901
1949,1927,1890
1953,1942,1849
1954,1953,1910
1943,1936,1895
1957,1935,1879
1946,1936,1848
1947,1938,1871
1955,1953,1906
1957,1939,1891
1955,1937,1907
1967,1965,1932
1971,1968,1927
1959,1937,1898
1923,1914,1831
1931,1936,1789
1950,1953,1834
1958,1951,1888
1958,1951,1858
1939,1936,1863
1946,1938,1895
1963,1953,1881
1939,1942,1830
1959,1970,1885
1947,1943,1902
1936,1919,1859
1941,1932,1837
1953,1955,1893
1954,1965,1920
1966,1953,1897
1968,1965,1873
1947,1956,1877
1933,1939,1894
1943,1939,1887
1949,1930,1856
1955,1952,1885
1952,1957,1920
1966,1953,1905
1962,1951,1873
1936,1947,1885
1942,1945,1917
1967,1957,1899
1942,1935,1855
1939,1951,1885
2094,2051,1997
2002,1961,1887
1856,1872,1791
1943,1954,1893
2097,2032,1993
1945,1936,1883
1840,1886,1791
1909,1923,1841
1969,1951,1909
1969,1955,1905
2003,1968,1878
1971,1983,1897
1968,1971,1927
1920,1937,1882
1877,1936,1847
1967,1965,1872
1971,1979,1907
1988,1978,1919
1977,1990,1877
1914,1968,1864
1904,1969,1888
1932,1974,1890
1978,2000,1901
1927,1973,1877
1906,1968,1901
1936,1978,1901
1955,1998,1888
1957,1986,1895
2118,2059,1979
2096,2055,1951
1777,1878,1739
1722,1872,1755
1869,1930,1872
1941,1976,1885
2071,2064,1937
2032,2057,1943
1887,1997,1907
1890,1979,1859
1876,1983,1815
1890,1978,1811
1986,1987,1821
1984,2018,1942
1897,2042,1977
2015,2112,2023
2087,2061,1907
1946,2037,1875
1808,1990,1845
1857,2047,1929
2019,2007,1903
1841,1946,1783
1871,1995,1849
1949,2001,1950
2043,2043,1970
1949,1991,1869
1936,2005,1798
1952,2021,1936
2000,1997,1975
2084,2043,1947
2068,2058,1856
2001,2021,1770
1791,1925,1783
1782,1930,1823
1989,2009,1882
1985,1979,1758
1943,2032,1904
1943,1987,1882
1961,2026,1905
2000,2018,1793
1996,2064,1926
2174,2157,2112
2112,2062,1867
1824,1936,1647
1785,1981,1725
1770,1935,1658
1953,2079,1857
1982,2071,1829
2112,2149,1990
1990,2073,1697
2000,2149,1853
1913,2089,1777
1869,2003,1650
1645,1946,1741
1888,2091,1858
1744,1879,1643
1836,1984,1777
2108,2043,1655
1858,1919,1578
1921,2025,1747
1987,2067,1791
1874,1965,1626
1967,2109,1594
1586,1963,1503
1907,2191,1903
1699,1888,1605
1706,1891,1569
1904,2026,1742
1903,2042,1829
1761,1978,1705
2002,2011,1453
2007,1963,1453
1811,2016,1660
1934,2026,1792
1827,1865,1631
1771,1891,1683
1951,1921,1552
2262,2232,2000
1647,1888,1647
1697,1905,1455
1987,1895,1558
1568,1762,1679
1598,1893,1769
2013,1981,1807
2519,2006,1842
1779,1841,1728
1425,1842,1584
1796,1902,1682
2086,2007,1989
2234,1936,1783
1715,1852,1606
1776,1818,1765
1821,1808,1697
1569,1830,1647
1911,1904,1631
1968,1927,1747
2157,2000,2016
1950,1808,1648
1686,1744,1650
1674,1765,1775
1805,1776,1647
2069,1838,1785
2064,1839,1787
1942,1879,1877
1784,1761,1789
1839,1763,1734
1798,1792,1698
2036,1885,1907
1899,1830,1792
1654,1744,1712
1814,1782,1719
2014,1851,1840
2097,1935,1977
2304,1925,1856
2067,1626,1602
1311,1678,1586
1504,1850,1802
1941,1879,1823
2008,1743,1733
1883,1764,1802
1911,1759,1785
2403,1898,1838
2273,1712,1472
1333,1664,1641
1396,1771,1867
2030,1887,1944
2547,1869,1904
1749,1786,1742
1433,1680,1797
1617,1728,1781
1837,1809,1770
1840,1769,1759
1984,1770,1790
2459,1855,1767
2107,1859,1857
1984,1899,1985
1751,1678,1814
1452,1637,1783
1678,1728,1747
2246,1831,1904
1979,1803,1947
1756,1758,1886
1820,1790,1790
2108,1840,1793
2224,1866,1797
1840,1797,1926
1623,1744,1776
1759,1777,1858
1842,1765,1973
2070,1815,1936
3361,2079,2087
1900,1676,1706
878,1623,1723
1217,1697,1776
1935,1825,1827
2179,1853,1904
1929,1845,1999
1962,1840,1954
2555,1942,2000
2161,1815,1870
1487,1783,1901
1485,1727,1819
1826,1795,1855
2017,1853,1949
1951,1850,1975
3127,2160,2240
3298,1807,1826
922,1535,1651
560,1675,1781
1415,1804,1899
2007,1857,1936
2113,1903,1979
2273,1930,1946
2275,1957,2037
2162,1835,1919
1651,1729,1795
1655,1837,1929
1887,1902,2038
2458,1950,2063
2480,1749,1727
1423,1677,1789
1294,1799,2010
2357,2033,2151
1997,1792,1811
1535,1808,1895
1668,1855,1949
2118,1915,1985
2112,1890,1985
1838,1883,2035
1837,1882,2031
1927,1888,1950
2103,1918,1900
3034,2095,2102
2496,1875,2086
1143,1712,1785
1183,1801,1875
1847,1909,2032
2135,1899,1960
2125,1941,1990
1875,1893,1959
1774,1851,2019
1851,1857,2017
2229,1907,1861
2403,2001,2073
2417,1978,2115
1587,1799,1975
1625,1865,1936
1837,1827,1926
1747,1845,1917
1818,1899,1981
1913,1921,1974
2029,1941,1999
2011,1925,2016
1948,1893,2019
1936,1921,1968
1982,1942,2034
2019,1938,2099
2046,1942,1999
2045,1939,1969
2044,1890,2037
2072,1954,2006
1966,1907,2007
1911,1921,2020
1922,1938,2032
2094,1950,2031
2105,1887,1920
2018,1899,1991
1909,1943,2035
1962,1953,2107
1991,1931,2064
1968,1911,1970
1947,1900,1983
1987,1923,2030
1968,1914,2003
1977,1911,1987
1978,1914,2000
1989,1916,2000
2000,1926,1995
2000,1906,1966
2011,1917,1979
1984,1904,2009
1985,1892,2000
1963,1872,1963
1982,1893,1945
2058,1931,2034
1990,1875,2001
1959,1817,1952
1966,1806,2000
1963,1891,2007
1984,1899,1985
2054,1887,1951
2083,1904,2011
1923,1843,2027
1900,1831,1983
1942,1807,1897
2582,2083,2135
2652,2011,2127
1666,1722,1867
1835,1866,1873
4095,2595,2317
2891,1967,1975
813,1390,1765
2371,2068,2381
4095,2403,2364
1718,1502,1462
1223,1714,1763
4095,2842,2672
4095,2309,2419
830,1136,1569
561,1390,1383
3440,2074,1463
2559,1461,1314
559,1679,2210
1563,1982,2405
2960,2306,2618
2282,1899,1958
1699,1819,1693
1883,2086,2000
2667,1951,2000
1535,1697,1854
2256,1959,2223
1840,1823,2242
2121,2166,1841
1471,1799,1648
1602,1975,2042
3920,2068,1901
1845,1778,1942
289,1730,1895
1205,1937,1929
3163,2246,2127
2357,1677,1815
2304,1969,2009
1456,1674,1591
1926,1791,1655
1769,1900,2074
1421,1989,2155
1585,2030,2096
2043,1900,1837
2832,2098,2038
1914,1670,1505
996,1803,2041
1318,1811,2025
1777,1999,1857
2222,1963,1777
1471,1900,1837
1867,2083,1989
2608,2206,2093
2322,1785,1795
885,1616,1767
1350,1884,2026
1785,1867,1864
1595,1999,1917
1963,2099,1936
3151,2373,2171
2038,1659,1426
907,1693,1983
1193,1936,2128
1642,2033,2088
1808,1948,1947
1840,2013,1920
2338,2094,2005
2186,1963,1968
1994,1984,1943
1360,1773,1594
1841,1920,1744
1623,1872,2091
1431,1913,2105
1879,1965,1887
2266,2037,1627
2192,1922,2055
1728,1904,2067
1499,1943,1899
1463,1885,1892
1504,1930,2071
1664,1957,2094
1827,1894,1808
1851,1951,1709
1817,1975,1915
1713,1986,2118
2032,1949,1997
2137,1930,1951
1531,1885,2007
1392,1987,1939
1463,1924,1761
1666,1853,1763
2095,1946,1946
2207,1846,1824
1625,1931,1987
1672,1936,2045
2352,1968,1959
3527,2062,1838
1063,1734,1697
401,1861,1954
1338,1964,1974
2320,1911,1931
1923,2022,1979
1535,1973,1985
1776,1975,1907
2235,1988,1767
1957,1830,1682
1498,1923,2066
1535,1935,2013
1647,1941,2070
1782,1943,1930
1841,1842,1790
1829,1937,1967
2158,2039,2083
2059,1898,1734
1664,1911,1962
1472,1874,1875
1806,1968,1933
1828,1953,1913
2131,2061,2075
1903,1923,2003
1493,1833,1819
1472,1855,1869
1997,1978,1947
2214,1983,1882
1785,1915,1872
2192,2096,2096
2762,2125,2025
1407,1750,1925
895,1808,1774
1388,1939,1815
2003,2025,1894
2749,2085,1934
2289,1880,1845
1160,1917,2103
1219,1855,1958
2352,2109,2038
2457,1949,1904
1514,1808,1761
1247,1874,1841
1623,1905,1953
2687,2162,2009
3405,2182,2042
1404,1721,1818
729,1765,1824
1406,1929,1840
1997,1941,1951
2035,1981,1995
2270,2014,1913
2448,2045,1856
1699,1920,1891
1479,1999,2129
2030,1968,2074
1946,1968,1802
1699,1868,1757
1811,1991,1877
2043,2029,1887
2206,1984,1872
1825,1889,1885
1581,1917,2004
2000,2006,2038
2401,1956,1907
1905,1943,1949
1400,1917,1877
1533,1945,1886
1925,1933,1926
2096,1990,1929
2546,2142,2064
2437,1968,1887
1529,1799,1722
1795,1922,1936
1931,1881,2041
1748,1940,2002
1735,1921,1831
1920,2009,1914
2084,1986,1879
1989,1982,1904
1935,1948,1855
2031,1937,1808
1904,1958,1971
1943,1968,2073
2186,2036,1945
1829,1910,1827
1826,1905,1856
1791,1883,1842
1922,1936,1905
1970,1997,1946
1999,2000,2096
2058,1949,1966
2041,1986,1786
1991,1948,1830
1795,1978,1934
2191,1968,2030
2201,1915,1808
1840,1975,1845
1838,2029,1984
1803,1981,1879
2135,1957,1888
2291,1983,1819
1856,1922,1900
1715,1914,1956
2306,2025,1965
1967,1939,1986
1648,1931,1923
1807,1983,1918
2130,1963,1805
2351,1967,1830
2032,1967,1920
1595,1892,1937
1795,1904,1870
2038,1891,1805
2151,1987,1871
2112,2027,2005
2295,2000,1936
2378,1936,1862
1765,1868,1867
1427,1859,1822
1802,1927,1975
2227,2017,2014
2933,2090,1854
2176,1918,1745
1229,1789,1802
1392,1840,1839
2039,1937,1936
2189,1943,2041
2192,1994,1986
2096,1941,1802
2179,1957,1792
1786,1842,1843
1719,1854,1936
1938,1899,1912
2023,1966,1815
2187,2064,1995
2147,1953,2007
2131,1903,1910
1840,1824,1712
1761,1751,1728
2095,1883,1970
2206,1965,1950
1853,1889,1817
2182,2001,2096
2399,1868,1797
1936,1793,1666
1806,1822,1826
1955,1811,1937
1781,1814,1954
1887,1781,1833
1913,1794,1856
2193,1882,1959
2032,1744,1817
1935,1681,1807
2307,1675,1907
2115,1726,1806
1797,1730,1936
1774,1663,1921
2021,1680,2043
2015,1664,1895
2114,1655,1842
2032,1695,1946
2112,1664,1847
2057,1675,1999
1899,1652,1906
1984,1711,1962
2297,1709,1926
2085,1592,1791
1906,1523,1818
1781,1574,1798
2059,1649,1920
2000,1619,1848
1935,1654,1877
2581,1747,2057
2078,1457,1790
1570,1600,1808
1840,1582,1674
2171,1723,1986
2247,1686,2035
1847,1535,1811
1857,1594,1962
1878,1641,1904
1919,1677,1840
2301,1722,1903
2076,1638,1783
1687,1600,1821
1773,1600,1886
2043,1671,1995
2219,1722,1866
2266,1770,1951
2116,1664,1798
1712,1558,1793
1674,1616,1891
1904,1712,1904
2414,1822,1970
2224,1653,1921
1872,1609,1790
2067,1680,1778
1943,1680,1811
1744,1706,1984
1867,1712,1951
1975,1690,1861
2073,1750,1927
2229,1807,2015
2224,1813,1877
2077,1754,1771
1792,1642,1809
1829,1669,1984
1971,1749,2054
2077,1834,1859
2192,1798,1724
2018,1690,1786
1953,1616,1622
1791,1779,1835
2005,1893,2059
2011,1743,1913
1855,1666,1865
1883,1770,1839
2047,1842,1991
2151,1817,1888
1931,1789,1920
1887,1751,1917
1967,1767,1840
2081,1854,1913
2080,1830,1853
1936,1807,1879
1970,1842,1974
2162,1840,2045
2110,1755,1741
2178,1855,1909
1905,1837,2022
1698,1795,1712
1840,1829,1774
2033,1857,1913
2433,1968,2011
2640,1840,1808
1573,1662,1664
1414,1817,1876
1811,1908,1980
2123,1939,2064
2399,1904,1950
2064,1778,1667
1469,1783,1773
1672,1861,1899
2208,1987,1931
2330,1919,1936
1909,1826,1776
1808,1823,1798
1787,1856,1931
1993,1931,2005
2198,1910,1904
1935,1889,1849
1849,1939,1858
2218,2011,1938
2313,1990,1953
1806,1868,1780
1712,1894,1872
1965,1916,1949
2045,1904,1867
1855,1905,1850
1834,1894,1885
1904,1957,1867
2006,1938,1911
2193,1934,1898
2201,1930,1813
1879,1895,1843
1858,1995,2051
2107,2031,2047
2009,1920,1805
1854,1911,1776
1907,1985,1920
1971,1959,1942
2053,1966,1920
2054,1903,1830
2089,2003,1956
2122,1989,1922
2320,2009,1975
1851,1873,1760
1514,1885,1760
1744,1947,1885
2080,1992,1947
2155,1965,1809
2061,1949,1818
2067,1968,1919
2059,2026,1914
1808,1917,1814
1663,1887,1847
1802,1965,1984
2159,2082,1947
2621,2086,1782
2306,2006,1926
1378,1855,1926
1517,1908,1823
2000,1997,1792
2114,2020,1894
1919,2030,1920
1839,1968,1857
2053,1998,1947
2105,1969,1872
2286,2000,1827
2030,2077,1910
1567,1898,1869
1737,1938,1862
2066,1991,1859
2096,2014,1827
2061,2064,1917
1935,1987,1906
2042,2019,1874
2010,2000,1834
1801,2015,1871
1791,1991,1944
1947,2014,1883
2004,2022,1755
2255,2041,1777
2331,2037,1947
1681,1919,1872
1444,1932,1949
1845,2065,1927
2299,2101,1953
1968,1955,1943
1838,1950,1778
2122,2045,1809
2071,1978,1718
1744,2005,1983
1790,2047,2046
2097,2165,2126
2172,2097,1987
1968,2037,1911
1854,1979,1661
2010,2059,1865
1872,1938,1907
1979,1924,1765
1598,1857,1613
1680,2000,1794
1992,2070,1890
2321,2110,1995
2226,2061,1922
1834,1987,1808
1664,1963,1955
1907,2015,2070
1989,2034,1902
2079,2091,1828
2135,2107,1894
1903,2001,1806
1797,2022,1829
2064,2002,1814
2112,2003,1993
1973,2032,2060
2022,2078,1858
2127,2085,1856
2099,2033,1959
1843,1902,1837
1475,1873,1637
1808,2054,1788
2192,2142,2089
2026,2075,1994
2176,2042,1934
2083,1989,1863
1584,1898,1744
1639,2001,1748
2145,2064,1780
1919,2029,1972
1904,2099,1953
1935,2064,1957
1883,2039,1983
2025,2042,1999
2143,2052,1951
1936,1974,1798
2177,2113,1818
1796,1984,1824
1531,1919,1750
1742,1983,1755
2165,2087,1926
2149,2022,1828
1983,2046,1931
2191,2102,1946
2192,2039,1866
1615,2029,1887
1614,2032,1917
1953,2033,1923
2112,2093,1921
1922,1989,1873
1808,1978,1774
1936,2023,1936
2067,2081,1899
2042,2102,1886
1944,2080,1941
2078,2064,1957
1890,1945,1781
1785,1899,1617
1855,1951,1946
1925,2064,1981
1995,2075,1925
1975,2042,1959
2142,2039,1901
2335,2016,1767
1825,1936,1764
1645,2041,1919
1808,2023,1945
1941,2047,2002
2064,2111,1907
1968,2011,1829
1831,1947,1883
1894,1926,1857
2070,2018,1795
1950,2031,1813
2082,2085,1963
2189,2087,2003
1723,1936,1870
1636,1997,1877
1965,2093,1913
2158,2063,1958
1936,1975,1909
1941,2044,1914
2115,2032,1755
1999,1951,1783
1690,1919,1849
1766,2025,1957
2224,2074,1983
2034,2054,2021
1788,1985,1939
1821,2000,1840
1927,1997,1798
2066,2001,1899
2190,2034,1942
1955,1942,1835
1680,1927,1888
1848,2018,2006
2000,2014,1937
2155,2022,1821
2107,1993,1885
1851,1999,2000
1806,2009,1901
1898,1967,1771
1995,1969,1917
2070,1978,1943
2160,1967,1808
2007,2005,1824
1744,1950,1906
1744,1946,1920
1919,1965,2014
2093,2008,1892
2173,2014,1755
1785,1888,1802
1719,1941,1941
2213,2084,2009
2269,2013,1904
1712,1938,1811
1842,1974,1872
1745,1950,1909
1773,1971,1936
1936,1939,1861
2014,1924,1781
2096,2039,1904
1936,1999,1961
1867,1921,1920
1935,1936,1821
1984,1997,1883
2207,1948,1797
1711,1888,1840
1663,2027,1991
1922,2059,2029
2378,2110,2023
2004,1904,1744
1998,1898,1691
2013,2007,1869
1791,1886,1904
1771,1971,2028
1903,2030,2010
1840,1949,1837
1835,1924,1810
1906,1956,1901
2085,2034,1989
2407,2070,1994
2007,1840,1744
1699,1965,1797
1666,1997,1864
1967,1989,1905
2082,1970,1923
1943,1915,1892
1978,2023,2064
2119,1967,1845
1873,1986,1870
1909,1935,1932
1718,1957,1900
1781,1981,1859
2118,2032,1893
2228,1920,1878
1856,1877,1890
1664,1958,1948
2047,2011,1933
2058,1947,1825
1890,1965,1859
2066,2033,1935
2211,2010,1920
1623,1858,1875
1523,1878,1897
1935,2047,1936
2715,2118,2032
2029,1809,1756
1472,1859,1782
1693,1962,1914
2006,1969,1889
2032,2001,1945
2183,2032,1965
2396,2005,1937
1829,1888,1911
1487,1913,1842
1703,1913,1776
1939,1971,1901
2135,2014,2031
2272,1989,1948
2266,2047,1981
1853,1979,1807
1678,1827,1632
1654,1869,1879
1801,1936,1949
2043,1974,1941
2157,1957,1871
1939,1966,1949
1904,1958,1883
1967,1963,1810
2013,1971,1968
1872,1958,2018
2223,2064,1953
2031,1963,1831
1682,1894,1780
1723,1873,1787
1927,1920,1897
1973,1952,1953
1874,1919,1891
2000,1995,1987
2134,1961,1933
1906,1904,1797
1709,1951,1840
1957,2000,1958
2123,1952,1937
2095,1966,1862
2103,2105,2042
2020,1968,1821
1768,1817,1696
1839,1921,1904
1877,1903,1875
1854,1921,1933
1963,1943,1938
2176,2000,1885
1991,1907,1793
1943,1931,1850
1840,1952,1891
1808,1910,1823
1903,1938,1875
2194,1999,1973
2142,1974,1938
1714,1842,1759
1535,1863,1937
1777,1953,1890
2208,2038,1925
2397,1999,1952
1840,1885,1869
1597,1851,1840
1825,1907,1787
2080,2032,1926
2442,2083,1987
1923,1872,1783
1488,1840,1834
1792,1907,1835
2119,2022,1979
2219,2035,1911
1866,1928,1838
1583,1840,1821
1846,1934,1902
2179,2015,1995
2208,1990,1934
1712,1851,1693
1677,1898,1818
2075,1967,1881
2066,1918,1859
1934,1957,1968
1927,1964,1977
1934,2013,1904
2005,1963,1818
2038,2014,1921
1985,1966,1900
1825,1921,1839
1821,1889,1847
2065,2023,1953
2179,1967,1854
1827,1856,1851
1815,1919,1936
1840,1968,1942
2090,2037,1969
2150,2022,1921
2011,1930,1837
1843,1878,1792
1923,1953,2055
1861,1949,1945
1968,1927,1771
2010,1893,1746
1936,1949,1815
1904,2003,2008
2063,2013,2015
1901,1911,1823
1984,1949,1872
1975,1936,1888
1934,1984,1968
2064,2082,1979
2117,2046,1927
1895,1877,1792
1732,1911,1849
1829,1899,1891
2135,1949,1933
2083,1920,1797
1901,1975,1935
1805,1929,1885
1777,1916,1850
1866,1937,1898
2045,1990,1867
2193,1991,1936
