1727,1840,1739
1747,1857,1781
1750,1846,1806
1758,1841,1779
1755,1855,1751
1780,1881,1813
1769,1863,1822
1739,1849,1776
1734,1840,1742
1741,1833,1767
1761,1845,1812
1767,1841,1792
1741,1829,1749
1738,1829,1776
1747,1837,1808
1775,1847,1797
1808,1877,1805
1766,1858,1795
1707,1797,1762
1719,1798,1744
1758,1839,1774
1778,1873,1836
1766,1855,1844
1765,1847,1810
1769,1859,1791
1762,1855,1811
1759,1845,1836
1753,1838,1794
1763,1855,1790
1746,1842,1801
1767,1861,1843
1754,1847,1807
1749,1849,1776
1749,1845,1806
1765,1871,1843
1809,1897,1855
1769,1850,1785
1707,1806,1753
1723,1818,1799
1754,1841,1808
1770,1846,1796
1795,1895,1845
1799,1904,1871
1748,1835,1791
1749,1824,1759
1791,1869,1834
1776,1851,1845
1776,1854,1819
1759,1855,1781
1742,1838,1789
1757,1843,1819
1779,1840,1806
1779,1846,1789
1824,1884,1850
1820,1883,1871
1763,1828,1787
1758,1827,1758
1776,1851,1807
1803,1872,1867
1790,1847,1822
1796,1861,1808
1791,1856,1830
1781,1830,1846
1790,1829,1819
1814,1873,1825
1774,1838,1809
1771,1818,1830
1779,1808,1817
1769,1811,1778
1767,1814,1808
1799,1842,1857
1806,1840,1840
1810,1845,1821
1819,1855,1846
1746,1779,1808
1744,1771,1775
1763,1786,1774
1787,1814,1822
1793,1814,1851
1813,1835,1847
1776,1807,1780
1758,1778,1797
1769,1791,1829
1789,1793,1818
1807,1807,1808
1821,1830,1861
1799,1803,1866
1776,1774,1808
1782,1782,1787
1814,1806,1842
1829,1808,1882
1873,1853,1902
1828,1810,1826
1754,1746,1775
1749,1726,1797
1779,1743,1803
1808,1766,1808
1872,1841,1895
1825,1798,1879
1730,1703,1742
1733,1697,1754
1788,1744,1853
1811,1766,1878
1824,1765,1840
1803,1757,1824
1822,1775,1824
1851,1785,1879
1815,1741,1871
1783,1708,1744
1782,1699,1841
1829,1721,1886
1822,1709,1808
1807,1692,1831
1773,1651,1821
1792,1661,1861
1821,1667,1835
1849,1712,1840
1839,1695,1886
1769,1625,1848
1786,1616,1823
1794,1616,1808
1827,1655,1866
1823,1635,1843
1808,1620,1834
1830,1627,1826
1787,1600,1791
1776,1575,1793
1797,1578,1829
1826,1607,1829
1823,1600,1857
1810,1595,1861
1825,1584,1834
1797,1556,1789
1799,1564,1840
1821,1584,1871
1837,1584,1851
1823,1575,1818
1831,1588,1849
1824,1570,1856
1821,1561,1839
1843,1595,1827
1841,1584,1857
1866,1600,1899
1799,1530,1808
1781,1523,1772
1808,1535,1815
1839,1576,1857
1831,1570,1822
1805,1535,1751
1813,1571,1820
1840,1575,1840
1821,1557,1831
1821,1570,1775
1845,1599,1865
1865,1606,1901
1861,1616,1872
1823,1593,1818
1827,1601,1866
1840,1609,1887
1815,1579,1798
1825,1596,1757
1846,1618,1810
1859,1629,1903
1845,1631,1850
1805,1587,1806
1835,1615,1826
1839,1617,1855
1833,1611,1839
1825,1610,1808
1844,1636,1858
1857,1659,1872
1840,1648,1796
1850,1666,1791
1872,1701,1877
1825,1639,1845
1803,1616,1817
1831,1654,1807
1873,1709,1869
1844,1680,1867
1801,1638,1799
1808,1648,1797
1842,1686,1837
1856,1699,1873
1866,1695,1847
1872,1712,1839
1879,1735,1884
1855,1711,1871
1821,1671,1877
1819,1689,1777
1842,1712,1833
1846,1713,1866
1828,1686,1830
1839,1697,1801
1867,1730,1851
1861,1735,1874
1876,1754,1937
1873,1769,1826
1859,1761,1849
1825,1723,1830
1823,1727,1808
1852,1760,1814
1872,1778,1850
1869,1781,1873
1855,1765,1836
1881,1791,1802
1863,1791,1852
1856,1787,1869
1873,1808,1828
1882,1839,1845
1855,1802,1812
1792,1733,1808
1808,1743,1795
1846,1794,1806
1873,1819,1833
1877,1831,1881
1827,1797,1840
1821,1799,1776
1846,1821,1834
1867,1839,1883
1878,1847,1833
1882,1854,1788
1868,1850,1808
1840,1814,1799
1838,1814,1790
1847,1845,1797
1878,1872,1859
1911,1917,1911
1871,1865,1855
1797,1797,1747
1815,1823,1813
1853,1856,1856
1863,1871,1847
1873,1889,1839
1904,1923,1879
1870,1887,1892
1839,1858,1831
1819,1844,1774
1850,1872,1881
1885,1904,1890
1904,1911,1840
1882,1909,1823
1839,1879,1808
1833,1862,1826
1855,1878,1840
1915,1952,1865
1894,1936,1793
1808,1851,1791
1819,1862,1858
1850,1907,1793
1878,1947,1850
1853,1904,1858
1849,1900,1830
1872,1923,1806
1887,1949,1856
1904,1977,1909
1873,1943,1827
1870,1948,1846
1885,1969,1859
1877,1981,1894
1824,1910,1809
1827,1915,1845
1872,1974,1862
1872,1974,1878
1864,1954,1823
1850,1941,1802
1833,1926,1811
1856,1949,1859
1877,1968,1851
1848,1946,1798
1849,1954,1826
1874,1973,1880
1873,1968,1856
1876,1981,1840
1873,1991,1866
1858,1977,1873
1846,1968,1835
1849,1968,1809
1865,1987,1850
1907,2034,1921
1861,1981,1842
1840,1950,1799
1872,1984,1861
1885,1994,1893
1863,1975,1848
1857,1987,1826
1883,2019,1872
1887,2005,1893
1887,2013,1861
1840,1966,1792
1839,1967,1827
1867,1989,1872
1872,1999,1858
1875,2000,1833
1849,1987,1837
1831,1970,1843
1858,1981,1840
1883,2006,1839
1888,2025,1871
1856,1998,1869
1856,1993,1838
1891,2025,1849
1898,2025,1875
1855,1991,1864
1830,1958,1808
1842,1974,1796
1871,2007,1856
1882,2016,1895
1891,2032,1875
1857,1982,1819
1849,2004,1845
1870,2017,1891
1892,2064,1885
1859,1994,1817
1840,1986,1823
1857,2026,1868
1884,1970,1872
1902,2062,1872
1862,2007,1856
1841,1977,1855
1850,1986,1840
1863,2037,1834
1902,2012,1886
1920,2064,1920
1840,1998,1818
1836,1965,1789
1872,2002,1854
1907,2021,1907
1883,2030,1863
1858,2022,1808
1840,1984,1817
1846,2010,1864
1867,1989,1845
1889,2027,1843
1898,2044,1885
1925,2039,1926
1872,1995,1831
1841,1968,1777
1861,2000,1839
1887,2016,1887
1897,2019,1872
1902,2021,1850
1873,2030,1855
1856,1974,1855
1873,2039,1860
1895,2063,1856
1859,2000,1842
1856,1974,1862
1870,1984,1838
1840,1995,1785
1857,1994,1837
1866,2035,1882
1887,2039,1872
1887,2043,1841
1865,2019,1851
1853,2023,1858
1859,2065,1829
1874,2045,1825
1911,2047,1895
1891,2047,1894
1872,2032,1849
1884,2045,1831
1886,2032,1867
1904,2082,1902
1843,2030,1814
1838,2059,1801
1867,2112,1853
1840,2102,1850
1865,2119,1841
1892,2191,1845
1873,2166,1844
1864,2162,1855
1860,2161,1818
1853,2189,1790
1883,2238,1854
1866,2262,1871
1856,2260,1840
1874,2239,1819
1895,2294,1856
1918,2324,1909
1882,2283,1853
1840,2256,1776
1861,2279,1825
1885,2261,1877
1904,2331,1875
1883,2295,1828
1870,2348,1842
1856,2283,1853
1885,2304,1846
1903,2371,1835
1904,2349,1865
1866,2292,1849
1841,2274,1802
1865,2322,1802
1873,2326,1843
1893,2386,1872
1919,2320,1866
1910,2343,1840
1860,2283,1817
1857,2323,1847
1893,2320,1852
1917,2341,1846
1875,2332,1837
1894,2304,1872
1883,2288,1835
1875,2211,1808
1889,2304,1849
1899,2246,1890
1875,2286,1834
1869,2278,1801
1902,2303,1857
1904,2305,1886
1867,2259,1822
1864,2253,1802
1876,2269,1839
1897,2288,1872
1917,2287,1874
1878,2253,1819
1875,2250,1843
1882,2256,1884
1871,2237,1842
1862,2227,1812
1899,2241,1870
1907,2223,1904
1887,2218,1860
1855,2230,1804
1879,2231,1865
1911,2275,1927
1904,2215,1873
1845,2125,1792
1843,2163,1810
1872,2165,1870
1878,2170,1843
1920,2233,1861
1903,2224,1872
1865,2143,1859
1875,2133,1849
1901,2178,1842
1933,2204,1904
1904,2161,1892
1856,2102,1819
1868,2135,1810
1914,2176,1888
1873,2115,1872
1860,2099,1826
1879,2116,1830
1918,2160,1899
1891,2129,1895
1856,2046,1826
1867,2064,1808
1901,2129,1872
1915,2102,1906
1894,2079,1856
1874,2081,1825
1878,2075,1857
1904,2096,1900
1897,2017,1858
1867,2033,1808
1918,2094,1895
1914,2084,1919
1869,2064,1836
1842,1994,1791
1886,2046,1854
1883,2064,1875
1861,1997,1839
1873,2013,1824
1887,2017,1857
1886,1996,1876
1873,1981,1842
1887,1997,1831
1923,2029,1886
1904,1994,1893
1891,1983,1845
1870,1962,1808
1872,1999,1839
1897,1978,1882
1879,1903,1839
1883,1953,1808
1901,1986,1850
1891,1973,1872
1888,1968,1841
1885,1897,1814
1895,1936,1851
1885,1936,1871
1892,1920,1840
1904,1967,1830
1904,1939,1855
1886,1908,1859
1873,1955,1825
1904,1925,1838
1910,1902,1866
1902,1966,1881
1869,1895,1824
1854,1901,1791
1892,1887,1857
1886,1910,1878
1894,1920,1856
1903,1936,1823
1869,1854,1814
1883,1881,1866
1890,1875,1841
1877,1859,1807
1887,1873,1840
1915,1890,1887
1933,1891,1869
1899,1871,1811
1871,1856,1818
1871,1838,1840
1882,1846,1835
1866,1822,1781
1915,1874,1857
1908,1863,1892
1877,1839,1833
1856,1846,1776
1893,1843,1836
1887,1834,1862
1872,1823,1825
1876,1836,1801
1898,1872,1846
1901,1851,1872
1895,1841,1841
1904,1854,1834
1957,1904,1904
1908,1855,1888
1834,1776,1779
1809,1757,1737
1873,1819,1827
1904,1838,1874
1868,1777,1808
1887,1743,1811
1902,1823,1857
1871,1802,1845
1861,1793,1807
1877,1786,1803
1869,1787,1829
1879,1808,1859
1883,1823,1843
1889,1806,1818
1915,1854,1866
1903,1807,1872
1867,1795,1809
1887,1830,1803
1911,1762,1858
1930,1821,1898
1855,1785,1792
1855,1749,1774
1840,1746,1787
1844,1728,1827
1872,1777,1826
1893,1826,1822
1899,1808,1844
1887,1846,1859
1875,1785,1825
1867,1775,1790
1902,1815,1847
1898,1804,1872
1876,1789,1824
1869,1795,1793
1897,1815,1854
1914,1839,1895
1875,1751,1825
1822,1727,1745
1842,1771,1791
1861,1773,1847
1874,1801,1831
1883,1792,1808
1912,1824,1867
1895,1776,1872
1868,1808,1830
1869,1781,1792
1886,1779,1834
1899,1792,1871
1889,1838,1839
1903,1843,1826
1913,1803,1860
1898,1837,1857
1861,1783,1797
1838,1661,1751
1863,1824,1808
1903,1810,1870
1920,1840,1865
1876,1791,1801
1845,1779,1793
1863,1726,1843
1872,1751,1822
1878,1763,1803
1872,1776,1822
1875,1791,1854
1885,1801,1835
1904,1806,1820
1904,1808,1855
1899,1811,1872
1848,1751,1787
1839,1766,1750
1869,1793,1817
1886,1779,1868
1883,1823,1835
1878,1840,1808
1899,1813,1856
1925,1846,1909
1887,1795,1840
1818,1680,1744
1828,1723,1793
1885,1775,1871
1884,1828,1840
1883,1776,1808
1877,1844,1827
1879,1788,1857
1847,1741,1802
1858,1825,1789
1886,1836,1837
1901,1813,1871
1877,1801,1828
1872,1798,1797
1904,1833,1849
1889,1826,1861
1861,1782,1803
1859,1777,1778
1873,1830,1823
1888,1813,1869
1903,1796,1845
1917,1840,1840
1871,1796,1817
1882,1818,1850
1882,1805,1825
1809,1766,1735
1849,1797,1796
1875,1795,1847
1873,1791,1823
1885,1815,1809
1904,1854,1859
1907,1853,1886
1854,1783,1798
1836,1775,1762
1861,1807,1809
1902,1829,1872
1887,1810,1836
1873,1807,1801
1874,1814,1837
1872,1855,1850
1865,1806,1821
1887,1842,1823
1911,1869,1866
1870,1748,1842
1861,1777,1808
1874,1820,1803
1868,1801,1812
1871,1826,1850
1874,1842,1819
1874,1808,1798
1895,1793,1834
1872,1814,1841
1862,1808,1813
1881,1807,1808
1914,1810,1857
1899,1853,1872
1875,1825,1819
1872,1856,1778
1887,1809,1833
1902,1813,1871
1913,1856,1855
1877,1777,1797
1869,1846,1809
1883,1822,1856
1886,1819,1826
1886,1775,1803
1859,1835,1803
1882,1849,1856
1892,1841,1838
1856,1793,1780
1843,1807,1806
1859,1813,1840
1871,1814,1821
1887,1839,1806
1881,1839,1835
1879,1842,1862
1884,1841,1840
1862,1827,1782
1875,1851,1828
1872,1840,1854
1872,1863,1833
1854,1813,1775
1861,1829,1804
1883,1770,1858
1916,1883,1860
1854,1799,1764
1829,1759,1777
1849,1805,1824
1858,1808,1809
1856,1814,1782
1872,1847,1826
1885,1850,1869
1872,1834,1833
1865,1835,1795
1878,1840,1831
1890,1853,1863
1904,1857,1853
1869,1831,1789
1853,1826,1805
1859,1831,1845
1865,1811,1820
1871,1827,1802
1877,1767,1828
1875,1806,1853
1880,1813,1826
1900,1860,1809
1872,1808,1826
1915,1889,1888
1881,1904,1831
1841,1824,1763
1875,1809,1814
1847,1794,1821
1856,1817,1807
1842,1790,1776
1869,1831,1813
1876,1835,1842
1878,1806,1821
1879,1823,1792
1885,1827,1837
1877,1841,1859
1841,1818,1803
1849,1860,1785
1879,1879,1839
1906,1850,1879
1863,1823,1808
1869,1856,1796
1874,1787,1825
1888,1900,1862
1866,1872,1797
1835,1808,1755
1875,1845,1827
1842,1798,1818
1835,1807,1784
1874,1883,1799
1899,1889,1840
1874,1856,1854
1855,1856,1813
1865,1891,1791
1841,1837,1795
1846,1837,1825
1872,1829,1830
1894,1872,1826
1872,1925,1826
1856,1823,1839
1895,1919,1854
1867,1844,1791
1845,1834,1801
1867,1806,1847
1889,1872,1841
1906,1875,1837
1876,1815,1843
1866,1843,1853
1867,1904,1825
1877,1856,1813
1891,1893,1849
1841,1842,1827
1840,1830,1808
1870,1870,1805
1879,1873,1840
1897,1901,1885
1910,1899,1870
1858,1857,1794
1838,1842,1805
1845,1842,1833
1863,1849,1818
1867,1849,1794
1909,1894,1859
1936,1922,1915
1871,1860,1812
1834,1837,1756
1840,1840,1793
1866,1850,1843
1875,1861,1829
1901,1878,1822
1891,1892,1839
1908,1902,1875
1916,1903,1875
1874,1870,1817
1838,1854,1803
1849,1878,1849
1847,1846,1811
1951,1924,1872
1971,1943,1910
1808,1830,1800
1767,1798,1744
1785,1797,1742
1831,1840,1791
1894,1900,1863
2016,1963,1901
1982,1914,1839
1823,1856,1810
1776,1872,1831
1820,1871,1808
1872,1904,1825
1968,1995,1904
1971,1964,1872
1936,1945,1835
1781,1874,1691
1785,1902,1797
1902,1932,1891
2033,1972,1866
1957,1985,1743
1919,2058,1854
1917,2080,1993
1737,1847,1724
1909,1839,1669
2128,1948,1765
1994,2019,1802
1617,1951,1814
1579,1867,1707
1715,1968,1801
2060,2013,1879
2183,1972,1835
1961,1954,1845
1602,1910,1744
1729,2043,1758
2083,2013,1666
1938,1921,1586
2112,2112,2025
1997,2112,1911
1918,2109,1665
1597,1883,1437
1660,2127,1719
1856,2203,2000
1606,2025,1799
1598,2055,1682
1616,2131,1665
1829,2177,1665
2001,2210,1790
2343,2337,1885
1656,2085,1920
1119,1981,1595
1395,2106,1526
1743,2205,1454
1677,2171,1438
1701,2198,1637
2162,2253,1850
1670,2000,1630
1397,2109,1675
1383,2074,1479
1456,2061,1375
1595,1981,1392
1467,1810,1392
1289,1828,1381
1214,1915,1319
1090,1694,1164
1095,1654,1168
1234,1620,1074
1398,1678,1168
1149,1664,1055
1294,1834,1355
948,1632,1020
816,1523,647
986,1439,653
941,1441,599
1290,1574,795
1572,1565,751
1248,1653,496
999,1492,591
666,1443,533
1050,1618,784
1172,1600,742
1723,1535,340
1403,1451,370
288,1368,704
464,1533,813
1242,1755,1062
1402,1600,543
1456,1535,348
847,1424,500
793,1481,789
1008,1611,1009
1615,1587,1008
1199,1378,571
779,1393,630
962,1590,560
1829,1799,686
1388,1583,816
855,1429,787
1200,1680,868
1426,1495,925
819,1387,720
893,1456,883
1611,1691,976
1296,1472,880
1063,1591,1038
1394,1709,949
1072,1583,823
976,1462,1059
1920,1696,1085
1450,1742,1076
828,1487,1115
1166,1488,1118
1326,1493,1079
1306,1664,1183
1162,1747,1185
1635,1757,1343
1505,1574,1175
1653,1575,976
1136,1435,1068
832,1566,1210
1205,1664,1186
1225,1695,1258
1618,1590,1121
1413,1581,1535
1113,1647,1449
1470,1754,1302
1751,1791,1357
1168,1614,1339
1479,1663,1310
1874,1745,1449
1535,1594,1264
925,1631,1483
1183,1662,1826
1460,1558,1437
1681,1829,1445
1781,1719,1392
1259,1556,1184
1723,1728,1494
1307,1611,1684
1262,1663,1590
1389,1680,1616
1440,1744,1511
1948,1873,1622
1823,1717,1725
1166,1629,1481
1712,1622,1295
1411,1712,1737
1168,1729,1936
1877,1723,1764
1742,1771,1472
1866,1872,1728
1315,1600,1590
1150,1680,1628
2023,1779,1802
2149,1769,1925
1005,1585,1626
1116,1726,1805
1898,1866,2230
1761,1523,1609
1568,1773,1570
1421,1803,1598
1562,1738,1666
1635,1760,1987
2127,1804,1998
2043,1758,1781
1451,1729,1952
1169,1712,1886
1486,1771,1819
1936,1651,1535
1495,1639,1718
1728,1838,2103
2355,1917,2330
1819,1782,1907
1079,1597,1610
1325,1674,1840
2333,1840,2077
1985,1678,1902
1435,1753,1920
1767,1677,1758
1632,1757,2016
1677,1840,2274
1415,1773,2001
1754,1706,1889
2395,1780,1831
1664,1739,1968
1280,1731,1914
1772,1910,2225
1953,1839,2062
1679,1659,1984
1904,1712,2006
1948,1748,2066
1727,1751,2019
2006,1786,1947
2306,1710,2085
1763,1535,2102
1287,1489,1935
1701,1583,2115
2064,1567,2194
1571,1614,2176
1996,1701,2067
2096,1457,1966
1522,1422,1855
1635,1469,2089
1928,1469,2112
1728,1478,2079
1726,1591,2277
1936,1555,2096
1887,1493,2143
2111,1567,2163
1853,1503,2160
1911,1395,1954
2129,1559,2176
2194,1567,2297
1842,1330,2191
1379,1415,2131
2021,1606,2155
2310,1521,2093
1407,1326,1998
1372,1426,2052
2159,1588,2176
2203,1473,2077
1826,1504,2289
1990,1436,2331
1787,1506,2279
1746,1695,2160
2033,1597,2268
2289,1424,2121
1803,1429,1959
1568,1526,2112
2043,1605,2218
2256,1459,2128
1840,1390,2179
1858,1519,2288
1959,1610,2190
1653,1535,2141
2098,1634,2097
2357,1630,2074
1807,1603,2304
1645,1527,2439
2137,1609,2354
2481,1521,1916
1815,1493,1840
1432,1556,2288
1839,1593,2352
2622,1666,2288
1979,1518,2191
1317,1581,2097
1578,1664,2129
2255,1690,2223
2477,1584,2305
2192,1633,2208
1776,1725,2173
1821,1701,2167
2209,1712,2093
2523,1774,2111
1665,1467,2023
1339,1520,2202
2239,1647,2303
2363,1658,2190
1713,1629,2113
1610,1686,2166
2097,1809,2199
2327,1818,2229
2384,1789,2279
1939,1619,2057
1709,1723,2192
1962,1789,2276
1946,1741,2203
1957,1694,1936
2143,1706,2062
1969,1691,2194
2032,1740,2179
2223,1803,2091
2287,1728,2111
2143,1794,2267
1834,1680,1991
1735,1751,2075
1794,1786,2174
2064,1802,2311
2187,1815,2185
2017,1785,1999
1967,1804,2183
2171,1870,2279
2432,1963,2418
1980,1710,1959
1642,1645,1853
1983,1814,2122
2423,1822,2110
1810,1769,2043
1706,1837,2192
2083,1856,2250
2320,1827,2209
2633,1968,2217
2010,1673,1813
1525,1796,2143
1677,1830,2128
2105,1823,1978
2804,1873,1913
1854,1859,2128
1488,1921,2366
2071,2080,2375
2379,1940,2000
2005,1755,1997
1783,1870,2211
1899,1835,2030
2653,1902,1863
2448,1885,2097
1845,1825,2104
1363,1904,2017
1705,1943,2096
2347,1984,2206
2497,1975,2256
2147,1949,2077
1755,1851,1887
2171,1905,2111
2160,1872,1999
2112,1987,2150
2035,2002,2163
1840,1968,2171
1838,1834,2032
2194,1863,1943
2375,1981,2015
1939,1893,2043
1781,1967,2130
2311,2032,2107
2274,1936,2010
1803,1883,2054
1767,1907,1997
2009,1997,2030
2098,1998,2141
2102,1965,2076
2205,1968,2160
2214,1984,2112
2055,1957,1855
2297,2009,2005
1968,1885,2096
1785,1906,1927
2137,2019,1919
2396,2026,2165
2021,1910,2032
1707,1903,1871
2103,2047,1970
2118,1990,2117
2192,2002,2159
1968,1897,1915
1991,1934,1936
2026,1904,2003
2238,2011,2102
2033,1983,2028
1904,2029,2068
2395,2223,2337
2183,1973,1905
1872,1851,1763
1839,1858,1840
1975,1984,2106
2181,1930,1994
1927,2000,1965
2137,1997,1985
2229,2032,2101
2176,2039,2096
1903,1902,1797
1951,1930,1821
2005,1982,1943
2010,2017,2046
2273,2124,2085
2580,2083,2091
1856,1919,1876
1695,1918,1941
1937,1991,1971
2067,1911,1833
2073,1939,1934
1837,1991,1989
2257,2043,1923
2377,2102,1959
2003,2000,2062
1590,1909,1921
1867,1956,1845
2327,2106,2028
2255,2006,1901
1776,1929,1859
1910,2022,1874
2113,1906,1952
2214,2000,1995
2165,2047,1951
2105,2080,1883
1931,1941,1872
1793,1936,1967
1949,1936,1847
1898,1933,1858
2287,2095,2076
2535,2057,1990
1808,1946,1920
1501,1920,1840
2135,2013,2015
2351,1985,1935
2047,1947,1650
2086,2006,1794
1807,1963,1947
1781,1989,2046
2070,2009,1987
2132,2042,2055
1937,1914,1812
2213,1926,1840
2192,1919,1801
1853,1894,1825
1904,1910,1823
2230,2029,2000
2000,2031,2031
1830,1933,1836
1850,1949,1882
1939,1933,1822
2148,1930,1856
1936,2000,1993
2047,1991,1999
2245,1971,1853
1990,2018,1855
1930,1975,1799
1998,1942,1834
2059,1873,1907
2109,1920,1883
1887,1936,1723
1799,1986,1746
2061,1991,1785
2219,1945,1876
2142,1936,1890
2149,1893,1968
1781,1908,1968
1776,1965,1755
1925,1997,1743
2047,2059,1884
2193,2044,1939
1996,1962,1920
1984,1917,1767
2111,1954,1933
2250,1913,1982
1950,1925,1763
1648,1878,1669
1782,1889,1682
2160,1952,1887
2169,1941,1942
1871,1985,1798
1911,1943,1687
2246,1907,1786
1714,1887,1981
1642,1947,1989
1983,2029,1872
2151,1976,1787
2140,1855,1730
2150,2033,1991
2426,2030,1979
2258,1966,1955
1438,1819,1722
1334,1801,1488
1989,1904,1715
2119,1970,1934
1927,1936,1904
2434,2032,1872
2089,1943,1847
1670,1911,1922
1680,1924,1875
2027,2093,1953
2554,2032,1879
2064,1845,1727
1535,1859,1731
1691,2010,1799
2087,1990,1853
2208,1915,1757
1858,1904,1826
2099,1970,1903
2160,1907,1777
1792,1881,1882
1662,1904,1842
2222,1903,1647
2016,1940,1740
1775,1984,1904
1856,2000,1907
1984,1921,1741
2000,1938,1899
1859,1913,1934
2043,1968,1892
2096,1985,1773
1843,1875,1713
1790,1921,1771
1966,1984,1894
2117,2001,1856
2004,1952,1856
1834,1861,1834
1971,1839,1740
2077,1920,1861
2087,2066,2043
2038,2064,1947
1929,1897,1657
1722,1839,1599
1775,1878,1745
1869,1935,1865
1895,1914,1888
2211,1983,2015
2493,1981,1728
1888,1840,1687
1514,1880,1839
1679,1884,1767
2039,1917,1798
1839,1930,1798
1868,2003,1951
2246,2032,1970
2369,1863,1803
1661,1905,1790
1612,1936,1824
1872,1889,1789
2021,1920,1783
1856,1918,1818
1899,1936,1826
2224,1872,1698
2191,1961,1862
1897,1975,2110
1975,1907,1812
1984,1903,1715
1636,1936,1801
1879,1959,1939
1998,1865,1730
1951,1847,1712
1906,1874,1808
1798,1990,2029
1963,2059,2030
2079,1971,1776
2315,1931,1726
1694,1799,1823
1498,1834,1805
1984,1917,1747
2186,1986,1884
1925,1950,1955
1723,1814,1776
1787,1895,1734
2099,1975,1924
1955,1839,1904
1841,1907,1766
1877,1987,1810
2134,1929,1923
2039,1904,1850
1823,1875,1735
1978,1974,1771
2213,1869,1664
1680,1824,1846
1619,1936,2014
2064,2022,2027
2157,1854,1681
1638,1887,1741
1701,1904,1878
2000,1852,1738
2109,1925,1840
2054,2011,1899
1855,1933,1942
1808,1823,1691
1883,1949,1793
1947,2005,1997
1911,1901,1846
1934,1862,1690
2054,1841,1708
1774,1771,1819
2045,1961,2025
1891,1915,1872
1851,1953,1776
2000,1922,1827
1904,1926,1935
1798,1913,1837
1923,1951,1850
1945,1862,1791
1829,1792,1810
1981,1898,1792
1877,1968,1861
1756,1903,1861
1989,1917,1850
2111,1943,1786
1968,1947,1861
1680,1775,1711
1761,1746,1679
1921,1855,1837
1834,1936,1895
2019,2010,1872
2079,1915,1870
2062,1962,1905
1925,1936,1891
1985,1920,1872
1922,1830,1744
1773,1866,1730
1728,1840,1778
1680,1918,1883
1872,1941,1851
2147,1887,1727
1790,1821,1808
1678,1878,1870
2104,1937,1771
1984,1926,1842
1708,1867,1843
1872,1849,1796
2071,1872,1855
1883,1922,1898
1758,1919,1872
1777,1840,1831
1981,1909,1651
2000,1973,1810
2321,2064,2019
1903,1825,1694
1447,1776,1818
1484,1791,1925
1850,1897,1936
1904,1904,1797
1985,1974,1757
1967,1933,1744
2076,1951,1867
2073,1872,1837
1904,1806,1759
2064,1824,1759
1922,1895,1853
1712,1969,1949
1805,1944,1934
1819,1905,1821
1967,1831,1807
1821,1872,1894
1949,1959,1839
1946,1861,1639
1808,1808,1661
2031,1946,1898
2077,1896,1903
1618,1822,1913
1863,1808,1739
1995,1945,1728
1691,1901,1905
1727,1934,1958
1987,1951,1843
1761,1821,1766
1955,1860,1867
2097,1847,1728
1906,1933,1913
1745,1870,1776
1944,1847,1717
1850,1867,1827
1746,1947,1958
1956,1907,1894
2023,1808,1745
1696,1829,1657
1665,1983,1951
2017,2003,2096
2217,2009,1967
1893,1886,1712
1649,1803,1712
1823,1883,1937
1988,1910,1925
2035,1837,1687
1727,1822,1749
1726,1840,1842
2002,1873,1729
1962,1911,1885
1704,1901,1884
1554,1891,1995
2166,1968,1893
2272,1905,1722
1599,1834,1773
1776,1854,1829
1861,1904,1894
1732,1904,1872
1774,2006,1920
1869,1975,1961
1949,1930,1836
2041,1837,1787
2014,1830,1728
2143,1968,1859
1866,1885,1822
1723,1805,1723
1692,1744,1729
1517,1871,2021
1797,1955,1959
2081,2022,1791
1957,1943,1798
1859,1831,1882
1853,1904,1913
1888,1902,1887
1890,1889,1870
1850,1889,1849
1835,1873,1763
1839,1845,1818
1879,1915,1949
2160,1955,1968
1851,1792,1635
1767,1829,1593
1858,1929,1953
1664,1854,2025
1721,1840,1922
1748,1840,1670
1985,1936,1895
2284,1984,1874
1985,1897,1746
1853,1808,1697
1760,1875,1911
1649,1954,1939
1893,1939,1879
1838,1770,1715
1931,1891,1825
1762,1915,1840
2007,1922,1911
2123,1874,1808
1661,1734,1683
1535,1825,1808
1872,1916,1956
2005,1904,1855
2029,1863,1730
1907,1880,1797
1797,1891,1906
1776,1891,1951
2130,1958,1953
2147,1967,1903
1679,1831,1866
1675,1898,1825
2095,1849,1721
1814,1849,1732
1615,1835,1897
1837,1922,1904
2267,1946,1919
2032,1879,1881
1876,1887,1777
1619,1799,1771
1604,1840,1863
1963,1879,1891
2073,1893,1935
1778,1824,1748
1616,1895,1766
1890,1982,1916
2285,1948,1811
1969,1807,1792
1808,1853,1934
1826,1862,1889
1859,1854,1793
1807,1840,1776
1822,1904,1917
2036,1885,1904
2162,1859,1835
1613,1811,1806
1483,1786,1776
2000,1899,1841
1849,1845,1877
1786,1871,1777
2007,1950,1859
2218,1866,1843
1872,1874,1889
1453,1851,1889
1792,1865,1865
2320,1919,1839
1702,1811,1840
1553,1835,1858
1842,1900,1903
2090,1974,1939
1948,1812,1635
1956,1839,1774
2003,1869,1915
1839,1870,1993
1477,1781,1860
1826,1849,1745
1870,1856,1759
1823,1886,1942
1846,1917,1954
1949,1940,1830
2064,1933,1823
2013,1906,1984
1919,1890,2006
1751,1851,1792
1751,1917,1735
1991,1850,1857
1990,1847,1900
1873,1925,1833
1822,1954,1930
1835,1760,1814
2092,1883,1871
1741,1747,1729
1535,1814,1787
1937,2037,2047
1874,1799,1819
1997,1906,1885
1941,1895,1953
1919,1885,1890
1793,1827,1683
1705,1787,1671
1855,1920,1984
1898,1893,1885
2141,2095,1989
1879,1819,1855
1556,1749,1804
1750,1854,1857
2022,1925,1842
2189,1919,1779
1902,1763,1904
1713,1847,1920
1712,1840,1814
1826,1862,1776
2216,1989,2010
2093,1981,1952
1712,1819,1841
1847,1900,1839
2430,2063,1891
2047,1874,1950
1367,1811,1904
1500,1826,1787
1908,1765,1810
1890,1870,1859
1951,1897,1843
1877,1910,1728
1840,1789,1750
1898,1922,1952
2070,1871,1971
2348,1867,1887
1737,1814,1774
1573,1819,1797
1879,1875,1892
1965,1842,1975
1744,1796,1712
1680,1821,1717
1905,1979,1867
2015,2013,1945
1831,1896,1971
1777,1781,1845
1980,1830,1669
1885,1888,1755
