1652,2131,1901
1646,2097,1855
1675,2105,1786
1694,2095,1819
1735,2073,1909
1674,2053,1872
1650,2016,1763
1682,2020,1796
1693,2001,1901
1639,1966,1869
1694,1966,1793
1718,1964,1825
1683,1935,1905
1765,1925,1899
1680,1913,1783
1712,1900,1806
1709,1879,1919
1717,1878,1935
1671,1882,1837
1808,1873,1843
1723,1849,1920
1714,1818,1885
1802,1831,1840
1807,1824,1873
1733,1795,1942
1719,1781,1939
1772,1802,1878
1781,1790,1842
1757,1751,1919
1740,1735,1911
1781,1742,1847
1834,1753,1895
1823,1739,1983
1794,1728,1949
1807,1733,1869
1817,1729,1885
1810,1710,1968
1790,1696,1948
1825,1709,1883
1861,1728,1919
1841,1712,2006
1822,1692,1969
1841,1696,1887
1854,1695,1909
1839,1680,1983
1821,1662,1967
1851,1667,1893
1886,1680,1927
1858,1669,1997
1828,1646,1967
1856,1649,1902
1895,1658,1938
1875,1634,1998
1856,1630,1982
1904,1647,1942
1923,1650,1967
1904,1631,2026
1887,1614,1999
1897,1616,1939
1908,1616,1968
1885,1605,1999
1876,1584,1963
1915,1590,1957
1955,1618,2017
1941,1607,2073
1927,1586,1997
1931,1591,1939
1937,1603,1981
1931,1597,2038
1926,1582,1985
1937,1584,1947
1965,1613,1996
1970,1616,2067
1978,1619,2055
1989,1635,2012
2007,1653,2054
2011,1650,2102
2012,1648,2075
2029,1651,2032
2043,1664,2070
2043,1664,2121
2043,1650,2097
2053,1651,2037
2065,1666,2074
2061,1660,2120
2062,1658,2086
2068,1655,2039
2078,1664,2081
2077,1663,2127
2075,1652,2093
2090,1662,2041
2098,1677,2088
2096,1674,2128
2096,1662,2085
2102,1664,2043
2103,1680,2096
2096,1674,2128
2077,1658,2080
2077,1654,2011
2109,1679,2080
2147,1693,2163
2137,1673,2124
2127,1670,2065
2117,1681,2082
2112,1674,2112
2103,1648,2067
2122,1664,2032
2149,1690,2099
2153,1684,2151
2139,1667,2103
2125,1667,2042
2132,1681,2075
2134,1689,2123
2129,1671,2087
2138,1675,2058
2146,1690,2090
2148,1687,2117
2144,1680,2108
2142,1680,2102
2128,1680,2035
2128,1685,2066
2156,1681,2096
2170,1681,2189
2141,1695,2042
2125,1685,2017
2118,1680,2017
2160,1691,2060
2174,1709,2113
2153,1718,2119
2133,1671,2047
2117,1661,2005
2133,1680,2065
2174,1680,2160
2145,1708,2083
2134,1703,2001
2154,1712,2045
2146,1697,2080
2225,1670,2037
2192,1709,1984
2125,1749,2064
2123,1731,2093
2107,1713,2065
2122,1712,1998
2149,1744,2064
2189,1773,2143
2128,1804,2072
2115,1848,2006
2114,1716,2003
2154,1667,2054
2228,1719,2058
2231,1744,2042
2121,1706,2047
2047,1737,2032
2078,1750,2000
2123,1771,2014
2163,1808,2058
2137,1808,2047
2102,1815,1989
2102,1742,1965
2162,1823,2059
2111,1750,2034
2087,1706,1991
2098,1754,1965
2128,1810,2000
2159,1833,2054
2147,1817,2069
2078,1777,1999
2090,1819,2021
2111,1808,2029
2065,1767,1974
2091,1808,1977
2069,1813,2000
2112,1865,2096
2101,1828,1966
2043,1807,1881
2000,1799,1939
1998,1776,1971
2060,1743,1968
2099,1809,1942
2096,1877,1975
2061,1872,1968
1995,1830,1874
1999,1818,1655
2038,1810,1869
2064,1859,2037
2075,1855,2023
2077,1882,1963
2031,1923,2026
1994,1894,2034
1987,1862,1984
2016,1889,1970
2039,1946,2017
2037,1936,2043
2096,1922,2034
2098,1972,2007
1962,1889,1982
1961,1899,2007
2001,1923,1997
2000,1905,1952
2032,1949,1984
2071,1918,2059
1994,1921,1981
1968,1930,1938
1991,1946,1981
2003,1933,2010
2007,1965,1970
2032,1984,1970
2030,2002,2014
2018,1994,2031
2000,1985,1970
1979,1969,1913
2001,1975,1951
2023,2036,1996
2032,2064,2022
2030,2110,1985
2004,2129,1963
1989,1876,1999
1991,1866,1979
1989,1927,1964
2022,2018,1997
2039,2035,2032
2017,2000,2016
2096,2064,2032
1968,1997,1984
1958,2030,2096
1977,2005,2105
1968,1959,2063
1984,2029,2110
2020,2110,2160
2023,2070,2121
1988,2019,2085
1960,2018,2110
2010,2036,2174
2007,2000,2128
2074,2039,2105
2097,2097,2183
1948,2039,2159
1920,2080,2110
1963,2019,2080
2005,1997,2122
2146,2065,2207
2033,1999,2132
1945,2140,2099
1968,2145,2157
1975,1931,2107
1973,1890,2032
1975,1995,2067
1987,2084,2130
2006,2041,2199
2029,2015,2207
2015,2074,2046
1971,2085,2063
1974,2064,2099
1986,2032,2073
2074,2135,2075
2011,2093,2021
1920,1966,2097
1959,1974,2129
1985,2006,2032
2001,2044,2026
1949,2027,2106
1975,2024,2133
1971,2066,2057
1963,2074,2057
1971,2016,2091
1983,2033,2064
2000,2077,2053
1999,2059,2074
1983,2064,2080
1981,2115,2062
1986,2032,2045
1970,2077,2009
2002,2093,2019
2023,2088,2006
1975,2110,2077
1927,2062,2046
1952,2034,2020
2053,2107,2055
2038,2133,2019
1949,2103,1997
1955,2027,2017
1968,2013,2003
1970,2046,1963
1979,2067,1999
1978,2055,2030
1997,1980,2016
1986,2075,1969
1984,2064,1992
2004,2096,2032
2013,2091,2007
1993,2030,1990
1981,2058,2014
1985,2067,1999
1998,2038,1963
1993,2079,1937
2002,2047,1936
1988,2097,1983
2042,2091,2052
2171,2183,2105
1995,2062,1950
1890,1974,1904
1934,2020,1904
1967,2017,1921
2000,2037,2070
2009,2086,2059
1966,2010,1866
1971,2010,1856
2033,2026,1969
2032,2037,2023
1950,1985,1919
1939,1999,1872
1987,2068,1930
2004,2091,1993
1999,2086,1968
2112,2151,2022
2099,2115,2017
1893,1979,1877
1866,1913,1857
1947,2086,1873
2017,2119,1949
2038,2086,2016
1953,2017,1915
1923,1991,1911
1962,2059,1983
1981,2069,1899
1988,2065,1899
1987,2023,1906
1967,2096,1931
1988,2071,2035
1999,2036,1917
1986,2063,1856
1966,2105,1899
1968,2058,1936
1984,2054,1921
2023,2054,1921
2000,1942,1923
1987,1985,1961
1964,2038,1914
1973,2082,1893
1981,2046,1921
1999,2070,1956
2006,2013,1939
1991,1987,1895
1966,2047,1885
1989,2065,1933
2096,2080,1938
2000,2042,1859
1891,2011,1849
1938,2026,1922
1978,2016,1915
2013,2013,1838
2030,2035,1840
1947,2062,1965
1950,2069,1937
1947,2032,1871
1964,2041,1914
1986,2085,1913
1995,2059,1875
1967,2059,1858
1961,2058,1892
1967,2043,1910
1968,2042,1886
1966,2039,1843
1997,2031,1891
1969,2061,1918
1949,2078,1877
1971,2086,1863
2064,2166,1936
1970,2207,1910
1915,2000,1839
1936,1959,1822
1947,2022,1886
2006,2082,1946
2071,2127,1946
1968,2080,1847
1861,1968,1792
1887,1980,1831
1955,2023,1857
2060,2108,1920
2000,2089,1904
1902,2017,1847
1915,2023,1840
1946,2040,1821
1987,2079,1879
2033,2111,1937
2055,2101,1910
1927,1991,1778
1894,1989,1796
1925,2029,1872
1967,2059,1882
1951,2037,1823
1962,2068,1872
2006,2094,1935
2022,2075,1898
2032,2083,1861
1938,2026,1838
1920,2009,1906
1947,2017,1850
2026,2087,1866
2065,2108,1895
2069,2096,1929
1984,2043,1887
1854,1962,1744
1876,1991,1799
1953,2053,1897
1983,2030,1877
1984,2032,1849
2003,2065,1895
1998,2064,1917
1982,2032,1872
1981,2047,1853
2011,2094,1907
2046,2094,1941
1975,2001,1844
1936,1986,1817
1972,2066,1886
1968,2047,1885
1983,1986,1826
1971,1984,1810
1955,2003,1838
2001,2038,1916
2017,2032,1874
1965,2000,1813
1938,1991,1825
2031,2047,1898
2119,2077,1957
1936,1974,1808
1874,1979,1766
1959,2023,1847
2073,2083,1910
2039,2035,1830
1920,1980,1803
1915,1984,1835
1966,2001,1851
1995,2018,1830
2001,2070,1869
2000,2044,1883
1970,1983,1845
1985,1999,1859
1991,2032,1855
1987,2018,1865
1958,1967,1804
1970,1999,1809
1973,2020,1851
1968,2005,1870
2035,2047,1883
2046,2069,1859
1958,2067,1825
1931,1998,1840
1958,1946,1850
1975,1946,1818
2002,2005,1847
1985,2019,1877
1981,2003,1847
1969,1999,1810
1988,2030,1861
1993,2038,1882
1977,2000,1830
2020,2031,1838
1984,2043,1841
1936,1981,1838
1971,1975,1826
1968,1979,1803
1971,2006,1842
1967,2001,1843
1986,2000,1818
1989,1999,1788
1965,2015,1838
1957,2003,1839
2001,2032,1881
2025,2091,1873
1991,2038,1872
1977,1956,1859
1982,1968,1835
1990,2003,1827
2013,2047,1878
2019,2053,1920
2003,2007,1856
1983,1991,1802
1959,2014,1808
1959,2025,1849
1968,1991,1840
1986,1984,1830
2000,2032,1858
1999,2039,1890
1982,2010,1847
1991,2016,1858
2039,2084,1887
1986,2029,1869
1958,1985,1803
1968,1993,1893
2000,2021,1956
1997,2027,1899
1984,2015,1821
1992,2018,1789
2003,2036,1867
2009,2034,1890
2032,2024,1871
1997,1995,1841
1953,2000,1885
1951,1996,1903
1963,1971,1831
1972,1993,1844
2021,2032,1843
2032,2059,1934
1964,1970,1833
1936,1968,1776
1969,1996,1856
1983,2008,1932
1995,2016,1869
1986,1997,1841
1973,1973,1846
1997,2009,1922
1984,2003,1853
1987,1991,1801
1984,1987,1834
1981,1984,1885
2003,2003,1897
2011,2069,1844
2000,2046,1830
2021,1885,1933
1975,1914,1810
1941,1958,1829
1968,1986,1859
1985,1966,1903
1999,1978,1851
1989,1984,1820
2017,2037,1913
2011,1983,1890
1996,1959,1824
1967,1971,1773
1983,1949,1863
1996,1947,1926
1995,1948,1874
1987,1953,1825
2032,1998,1868
2101,2036,1953
1959,1922,1841
1897,1885,1779
1938,1920,1808
1991,1941,1891
2007,1941,1885
2003,1945,1846
2007,1968,1882
2012,1964,1921
2015,1929,1861
1998,1905,1793
2000,1936,1898
2006,1941,1888
2019,1937,1888
1998,1931,1863
2003,1952,1902
2017,1946,1897
2047,1955,1891
1998,1924,1865
1968,1933,1867
1985,1927,1911
2019,1943,1892
2032,1965,1850
2027,1966,1892
1991,1934,1890
1999,1921,1863
2096,1993,1945
2260,2121,2064
2000,1995,1899
1840,1866,1793
1893,1819,1776
1984,1890,1879
2059,1959,1957
2021,1936,1887
2014,1953,1868
2063,1979,1973
2031,1959,1963
1971,1937,1857
1942,1962,1826
1982,1922,1897
2035,1950,1930
2067,1936,1985
2064,1969,1936
2016,1987,1867
1963,1909,1911
1994,1872,1925
2128,1826,1858
2106,2000,1903
1958,2077,1940
1927,1905,1968
1952,1847,1878
1983,1892,1840
1988,1934,1947
1991,1941,1957
1969,1946,1872
1968,1968,1870
2021,1968,1910
2075,1955,1868
1981,1967,1872
1939,2015,1932
1951,1957,1962
1977,1924,1979
1974,1998,1895
1943,2000,1887
1970,1997,1875
2025,2000,1936
1953,1922,1845
1935,1943,1882
1975,1995,1971
1969,1982,1890
1968,1997,1875
2091,2063,1933
1984,1995,1919
1926,1967,1892
1951,1920,1879
2025,1970,1951
2022,2027,1984
2126,2073,2032
1903,1925,1829
1863,1889,1779
1917,1954,1892
1940,1978,1936
1959,2000,1898
1978,2064,1947
2043,2115,1990
2112,2066,1963
1924,1902,1870
1862,1913,1903
1918,1941,1967
1952,2013,1925
2075,2102,1949
2103,2175,2001
1916,2033,1943
1898,1937,1845
1951,1971,1893
1950,2013,1952
1969,2066,2007
1971,2054,1959
1943,2032,1870
1959,2075,1904
1970,2100,1982
1964,2055,1969
2005,2102,1951
2034,2128,1967
2041,2154,1979
1971,2105,1942
1920,2081,1936
1902,2128,1921
1903,2186,2022
1941,2106,1949
1989,2112,1908
1970,2174,1950
1917,2160,2026
1927,2183,2004
1958,2239,1991
1981,2282,2030
2012,2303,2091
1915,2245,1971
1903,2228,1918
1936,2300,1959
1969,2320,1984
1953,2271,1910
1952,2266,1872
1995,2315,1889
1936,2283,1872
1914,2267,1827
1975,2320,1819
2015,2355,1884
1983,2316,1826
1936,2272,1791
1889,2271,1801
1917,2307,1846
1968,2256,1855
1940,2271,1797
1936,2288,1782
2059,2361,1911
2107,2389,1958
1931,2246,1783
1851,2178,1714
1888,2217,1781
1975,2294,1869
2043,2245,1826
1997,2224,1815
1913,2231,1827
1936,2219,1863
1925,2209,1835
2046,2275,1845
2054,2271,1842
1961,2239,1876
1910,2176,1826
1981,2192,1901
2007,2229,1873
1959,2166,1822
1984,2162,1842
2061,2208,1837
1967,2167,1833
1883,2118,1847
1922,2130,1808
1968,2198,1806
1963,2224,1872
2077,2227,1928
1989,2184,1888
1936,2131,1793
1926,2161,1823
1950,2159,1872
1987,2157,1841
2137,2246,1897
2114,2224,1953
1878,2115,1866
1839,2065,1774
1973,2143,1822
2016,2158,1895
1988,2141,1936
2065,2185,2140
1995,2150,1995
1913,2150,1838
1998,2149,1911
2021,2119,1922
2159,2228,2037
2071,2229,2147
2042,2135,2073
1983,2076,1937
1885,2064,1904
1946,2137,2043
1905,2096,2115
1935,2112,2074
2046,2191,2060
2471,2347,2195
2470,2194,2110
1971,1984,1779
1616,1948,1771
1923,2171,2101
2096,2177,2179
2009,2110,2045
1904,2028,1906
1951,2115,1968
2252,2161,2063
2074,2075,1934
1808,2053,2000
1821,2135,2053
1887,2101,2085
1910,2096,1984
1987,2070,1872
1918,2083,1875
2063,2075,1935
2221,2141,1994
1871,2026,1937
1875,2055,1927
1904,2116,1936
2019,2119,1973
2071,2106,1838
2323,2127,1997
2006,2128,1936
1595,2031,1744
1784,2121,1779
2399,2192,1923
2096,2103,1887
1964,2096,2032
1841,2090,1771
2212,2282,1926
2071,2124,2075
1850,2160,1930
1851,2123,1682
2015,2160,1773
2192,2239,2023
2246,2127,2078
2246,2091,1984
2411,2241,1902
3242,2286,1814
1670,1935,1686
1237,2075,1814
1597,2104,1823
1913,2116,2007
2080,2180,2123
1986,2160,1749
1856,2029,1499
2365,2182,1936
2087,2146,1883
2096,2174,2036
2150,1983,1937
1782,2015,1582
1904,2233,1868
2491,2243,1914
1741,1954,1647
1585,1921,1815
2029,1973,1883
2111,2000,1779
1845,1927,1899
1755,2095,1808
1968,1937,1581
1745,1966,1600
2254,2157,1914
2159,1921,1685
1595,1979,1699
1936,2005,1831
1911,1909,1760
2125,1973,1798
1745,1931,1634
1698,1955,1786
1807,1936,1712
1535,1929,1703
1926,1920,1698
2108,1861,1706
2019,1990,1582
2166,2133,1881
2081,2047,1880
1923,1878,1513
1729,1867,1621
1617,1798,1638
2081,1874,1588
1812,1682,1382
1766,1919,1872
1806,1825,1798
1731,1904,1662
1613,1806,1487
1795,1861,1495
1614,1762,1418
1906,1883,1685
2032,1898,1787
2627,2038,2169
2064,1642,1424
814,1600,1200
1280,1734,1520
1779,1738,1584
2160,1979,1922
2195,1809,1791
1943,1682,1317
2373,1735,1570
1430,1677,1680
1042,1884,1881
2218,2007,2041
1823,1655,1632
1417,1610,1362
1755,1702,1508
1651,1671,1683
2113,1758,1823
1589,1714,1834
1604,1731,1787
2445,1817,1904
1583,1627,1446
1330,1808,1678
2035,1776,1827
2081,1722,1713
1373,1619,1617
1293,1697,1568
1424,1657,1506
1666,1686,1605
1846,1699,1681
1712,1711,1686
2378,1863,1979
2031,1663,1439
1515,1594,1367
1321,1627,1721
1367,1638,1710
1594,1726,1691
1849,1801,1727
2928,2030,2015
2247,1502,1452
816,1566,1392
1488,1713,1535
2541,1815,1711
1399,1605,1776
864,1616,1568
1328,1744,1703
1923,1851,1725
2176,1814,1742
1887,1815,1619
2282,1899,1698
1647,1680,1520
912,1631,1395
1408,1833,1643
2047,1911,1833
2054,1941,1875
2613,1845,1749
1483,1645,1527
917,1708,1519
1054,1776,1559
1583,1747,1645
1673,1750,1610
1584,1833,1607
1749,1864,1719
2082,1903,1829
2073,1840,1502
1998,1872,1702
1236,1659,1445
1125,1744,1648
2266,1926,1793
1650,1786,1565
1049,1731,1600
1904,1953,1809
3197,1893,1803
1219,1636,1382
624,1754,1613
1458,1815,1731
2326,1862,1904
1591,1666,1343
919,1701,1424
1509,1893,1735
2117,1862,1695
1535,1706,1488
1567,1823,1842
1776,1697,1729
1689,1835,1574
1405,1850,1645
1703,1883,1680
1691,1682,1557
1599,1740,1575
1764,1730,1635
1427,1728,1687
1745,1873,1829
2224,1997,1950
2119,1677,1603
1089,1649,1360
1045,1770,1605
1622,1710,1488
1622,1749,1680
2117,1891,2056
1682,1586,1531
1159,1691,1554
1406,1808,1712
1647,1825,1809
1584,1851,1733
1593,1766,1587
1857,1830,1706
1884,1733,1682
1579,1582,1513
1406,1668,1808
1781,1808,1834
1694,1780,1870
1553,1775,1719
1463,1770,1535
1668,1852,1735
2301,1933,2036
1991,1647,1869
1115,1594,1488
1415,1726,1566
2112,1855,1747
1471,1650,1815
1106,1690,1655
2618,2089,1872
2747,1873,1727
764,1535,1407
698,1686,1655
1810,1838,1615
1898,1680,1479
1520,1739,1697
2413,2063,1842
2256,1665,1535
880,1563,1444
864,1695,1679
1562,1738,1483
2033,1924,1904
1953,1956,1809
1833,1822,1531
1972,1781,1151
1796,1783,1491
1365,1766,1680
1677,1902,1828
2068,1835,1664
1683,1728,1382
1361,1776,1604
1535,1742,1600
1755,1835,1503
2629,2107,1923
2183,1804,1788
759,1600,1246
1079,1786,1446
2045,1949,1680
1847,1760,1577
1566,1693,1425
1752,1899,1763
2132,1963,1711
1693,1729,1535
1535,1785,1653
2023,1933,1997
2277,1934,1681
1495,1696,1405
1103,1730,1580
1758,1911,1827
2227,2064,1990
1933,1863,1607
1292,1661,1504
1695,1712,1535
2559,1968,1993
1702,1810,1851
1209,1872,1715
1583,1914,1711
2846,2064,1941
1619,1715,1570
1013,1738,1682
1424,1866,1745
2068,1952,1830
1782,1888,1850
1659,1886,1929
2365,2010,2039
2269,1762,1807
1373,1767,1773
1680,1946,1739
2123,2009,2007
1710,1895,1893
1749,2003,1751
1519,1745,1664
1360,1790,1745
1742,1999,1965
2224,2085,2147
3042,1904,2287
1253,1687,1680
830,1830,1563
1793,1945,1734
2535,1906,1842
2127,1931,1979
1798,1993,2148
1552,1926,2101
1243,1761,1751
1535,1852,1702
2129,2064,1962
2188,1823,1792
2180,1984,2034
2023,1920,1948
1283,1811,1866
1648,1893,1929
2244,2032,1997
1928,1874,1686
1363,1930,2019
2559,2322,2463
2810,1810,1931
1085,1661,1667
778,1808,1696
1845,1942,1906
2721,2148,1939
1698,1916,1968
1225,1808,1927
1695,1925,1960
2316,1865,1815
1898,1829,2076
1632,1979,2057
1713,2022,1890
2257,2059,1715
1808,1939,1821
1562,1845,1875
2030,2007,2039
2368,1914,1776
1571,1842,1779
1399,1940,1987
2864,2341,2227
2062,1867,1776
1173,1781,1745
1456,1941,1806
2317,2014,1814
2187,1889,1744
1445,1941,1961
1514,2035,2173
1905,1911,1936
2069,1964,1622
1869,1922,1700
2006,1936,1866
1781,2000,1886
1883,1951,1841
1818,1981,1906
1987,1999,2031
1833,1918,1826
1898,2031,1835
1880,1951,1859
2320,2000,1997
1821,1904,1865
1420,1887,1680
1523,1933,1843
1759,1986,2005
2403,2102,1979
2147,1890,1589
1569,1870,1765
2381,2079,2139
1779,1856,1858
1408,1863,1856
2025,2166,2053
2063,2021,1923
1760,1920,1849
1737,1915,1775
1821,1923,1775
2333,2018,1878
1790,1827,1867
1703,1975,1813
2097,2026,1809
1906,1911,1755
1505,1841,1895
2003,1927,2112
2743,2208,2018
2301,1968,1749
1116,1840,1781
1489,1920,1994
2026,1872,2064
2080,1954,1896
1611,1939,1777
1857,1987,1839
2363,1969,1658
1885,1966,1993
1854,1920,1962
1828,1904,1984
1616,1991,1870
1823,1974,1923
1969,1989,2078
2161,2054,2112
2062,1968,1771
2069,1997,1783
1749,1854,1941
1506,1861,1843
1736,1865,1924
1856,1966,2000
2191,1985,2003
1995,1938,2022
1606,1936,1765
1651,2030,1877
1959,1950,1946
1950,2005,1968
1936,1936,2032
2034,1984,2078
1968,1937,1895
1730,1963,1783
2074,2117,2027
2438,2096,1904
1834,1916,1918
1677,1982,2093
2427,1929,2082
1776,1841,1872
1366,1971,1899
1664,1968,1811
2254,2031,2064
2362,1942,1872
1835,1935,2031
1600,1858,2211
1650,1968,2006
2046,2039,1968
2209,2063,1994
2042,1884,2017
1899,1887,1905
2110,2112,2037
1859,2047,1983
1817,1962,1966
1967,1931,1979
2224,2041,2160
1975,1883,1963
1850,1991,1941
1969,2091,2173
1996,1968,1926
1771,1973,1895
1823,2032,2097
1781,1904,2031
1763,1907,1957
1983,1968,2035
1915,1885,1927
1883,1939,1943
1863,2000,1995
2077,1964,2158
2003,2026,2039
1845,2037,1939
1792,1998,1919
2112,2017,2021
2166,1984,2000
2098,2038,2095
1767,1951,1929
1773,1950,1972
1954,1936,1993
2251,2009,1914
1871,1978,1982
1823,1994,2182
2257,2070,2126
1991,1923,1797
1854,1973,2032
2695,2171,2210
1919,1841,1817
1306,1863,1957
1637,1997,2125
2313,2043,2153
2001,1904,1968
1719,1901,1926
2031,1985,2115
2434,2163,2212
2387,1995,1833
2234,2034,1935
1901,1999,2151
1505,1960,2101
1745,1913,2036
2295,2112,2123
2288,2034,1996
1840,1861,1845
1770,1911,2000
1742,1963,2107
1990,2069,2160
2337,2086,2003
2221,1968,1955
1987,1903,1926
1707,1958,2218
1999,2000,2129
2171,1987,1758
1819,2032,1995
1920,2021,2090
2107,2078,2285
2069,2032,2203
1673,1912,1918
1907,1983,1938
2613,2087,2165
2169,1815,1668
1387,1883,1840
1603,2075,2263
2320,2125,2371
2143,1990,1897
1837,1930,1817
1760,1940,1949
2223,2085,2191
2507,2031,2128
1907,1939,2098
1486,1863,1851
1834,1933,1890
2122,2127,2113
2309,2077,2109
2114,1933,1863
1938,1984,2165
1930,1971,2038
1941,1984,1981
2442,2183,2192
2653,1951,1847
1499,1872,1933
1310,1941,2019
1779,2047,2141
2410,2115,2158
2731,2150,2224
2047,1849,1701
1343,1809,1801
1645,1951,2193
2167,2016,2258
2131,2094,2055
2121,2037,1883
1705,1991,1909
2128,2062,2096
2377,1971,1952
1779,1918,1879
1884,2011,2160
2361,2018,2183
1888,1936,1802
1692,1960,1937
2330,2130,2202
2333,2000,1874
1789,1949,1970
1648,1953,2107
1840,2005,2064
2253,2010,2125
2448,2028,2031
1951,1939,1741
1598,1953,1860
1695,1975,1970
2130,2043,2070
2259,1997,2201
1851,1936,2019
2166,2054,1953
2256,2092,1947
1996,1911,1810
1808,1919,1979
2187,2032,2000
2111,2000,2066
1869,1938,1983
1905,1990,1856
2208,2027,1936
2329,2090,2074
1827,1886,1874
1839,1966,2070
2310,2095,2198
1922,1937,1872
2000,2037,1783
1856,1904,1682
1759,1900,1909
2059,1988,2029
2512,2039,2018
2145,1955,2080
1680,1917,1769
2319,2081,1840
2067,1900,1837
1712,1962,1937
2070,2098,2130
2295,1968,1984
2061,1926,1943
1563,1836,1730
2112,1985,1966
2117,1899,1869
1974,1956,1872
2454,2139,2281
2137,1808,1859
1691,1845,1698
1869,1975,1745
1792,1920,1952
2310,2032,2183
2442,1983,2053
1855,1931,1775
1829,1872,1811
2327,1931,1807
2235,1957,1939
2231,1990,2161
2394,1994,1991
1503,1791,1769
1359,1865,1899
1883,1969,2038
2195,1940,1926
2047,1833,1840
1962,1839,1807
2448,1933,1808
2152,1948,2149
1747,1901,2015
1822,1808,1811
1873,1842,1805
1941,1922,1981
1987,1890,1954
2096,1861,1825
2635,1854,1749
1755,1792,1874
1577,1879,2089
1975,1936,2023
2226,1906,1807
2338,1904,1929
1726,1680,1728
1561,1714,1788
2021,1887,1920
2416,1904,2018
2381,1886,1937
1856,1792,1914
1836,1820,2066
2189,1891,1980
2451,1809,1791
1710,1680,1699
1535,1735,1979
2446,1922,2144
2559,1795,1922
1909,1685,1827
1375,1711,2000
1813,1813,1916
2192,1721,1712
2087,1676,1969
1925,1649,1915
2099,1744,1872
1934,1619,1921
1673,1495,1856
1770,1479,1802
1915,1567,1949
2443,1678,2007
2295,1584,1871
2015,1535,1887
1989,1488,1847
1782,1519,1871
2159,1587,2010
1971,1454,1877
1867,1535,1905
2097,1533,1927
2289,1497,1919
1777,1361,1809
1761,1477,1946
2064,1424,1959
2272,1509,1815
1890,1505,1737
1856,1498,1866
2094,1491,1910
2192,1527,2004
1938,1502,1936
1749,1424,1886
2084,1454,1863
2096,1424,1893
1724,1459,1858
1826,1477,1807
1911,1535,1906
2282,1586,2096
2330,1483,1876
1701,1399,1664
1594,1504,1883
2099,1535,1933
2185,1617,1963
1719,1487,1874
1823,1407,1712
2507,1535,1919
2130,1454,1902
1611,1535,2031
1951,1645,1911
2187,1513,1583
2127,1595,1879
2093,1599,2151
1793,1453,1904
2033,1621,1947
2121,1642,1923
1710,1507,1719
1597,1490,1683
2159,1665,1939
2938,1717,2019
1813,1414,1808
1200,1529,1850
1829,1680,1865
2044,1561,1791
1941,1573,1767
2195,1748,2025
2289,1727,2043
2181,1610,1831
1633,1495,1755
1902,1626,1849
2047,1659,1785
2055,1631,1851
1925,1587,2054
1731,1683,1968
2169,1862,2059
1950,1653,1856
1599,1591,1714
2029,1719,1822
2387,1692,1835
1904,1647,1861
1748,1722,1915
1775,1635,1712
1805,1712,1776
2113,1811,2045
2134,1727,1928
1855,1621,1765
2055,1808,1959
2198,1735,1941
1910,1715,2020
1535,1683,1767
1851,1791,1646
2118,1831,1901
2439,1790,2005
1888,1712,1831
1331,1648,1723
1796,1835,1881
2800,1939,1923
2330,1730,1904
1213,1630,1874
1267,1709,1758
1770,1814,1809
2515,1947,1885
2673,1843,1712
1715,1687,1817
1296,1695,1946
1650,1804,1867
1904,1857,1913
2363,2044,2006
2480,1798,1727
1667,1691,1712
1494,1735,1753
2175,1969,1902
2175,1864,1966
1745,1819,1938
1835,1857,1769
2315,1945,1918
2610,1847,1741
1563,1677,1629
1237,1783,1830
1681,1904,1813
2179,1983,2139
2288,1946,1991
1819,1827,1700
1817,1873,1758
2143,1841,1846
2111,1860,1840
1622,1861,1744
1645,1851,1772
1818,1875,1823
2480,2005,2067
2192,1898,1852
2080,1997,1725
1459,1775,1754
1563,1846,1831
1936,1882,1951
2082,1937,1913
2014,1926,1717
2288,2032,1910
2235,1919,1731
1696,1796,1747
1616,1954,2000
1793,1906,1858
1827,1888,1717
2093,1969,1799
2357,2010,1840
1712,1814,1835
2063,1969,1819
1901,1881,1782
1886,1930,1965
2037,1999,2018
2093,1984,1733
1807,1803,1566
1857,1911,1863
1760,1979,2061
1819,1997,1925
2033,1882,1625
2016,1852,1787
1945,1968,2010
2469,2116,1926
1930,1891,1676
1746,1830,1733
1650,1901,1894
1747,1915,1820
1957,1968,1691
2029,1969,1927
2192,1938,1872
1917,1899,1710
1713,1956,1872
1767,1984,1991
2036,2022,1977
2057,1955,1712
1876,1942,1707
2011,1970,1837
2035,1869,1763
1875,1904,1852
1829,1997,1967
1920,1921,1936
1743,1904,1753
1844,1897,1630
2110,2012,1881
2515,2105,2032
1936,1922,1687
1781,1927,1794
2053,1939,1925
1655,1875,1806
1822,1927,1791
2241,2038,1808
1808,1889,1742
1770,1939,1950
2029,2039,1991
1915,1908,1605
1935,1947,1858
2505,1995,1923
1914,1899,1808
1857,1969,1669
1712,1965,1787
1567,1981,1979
2398,2057,1995
2067,2025,1889
1968,1994,1776
1571,1872,1856
1903,2060,2064
1982,1968,1804
1728,1872,1600
2115,2035,1902
1983,1953,1966
1774,1872,1733
1945,2025,1797
1691,2000,1840
1733,1990,1936
2325,2122,1953
2067,1947,1727
1747,1847,1671
1822,1958,1846
2288,2160,2160
2129,2018,1995
1594,1937,1769
1679,1936,1783
1922,2013,1741
2215,1986,1633
1895,1967,1966
1600,1854,1816
2074,2155,1967
2171,2106,1867
1616,1887,1830
1621,1899,1790
1769,1936,1794
2267,2012,1878
1796,1968,1914
1535,1968,1756
1779,2000,1683
2019,2107,1846
1821,1988,1873
1935,1939,1827
2032,1961,1779
1840,2061,1840
1491,1994,1959
1495,1903,1823
2010,2037,1770
2089,2055,1847
1535,1870,1743
1827,1916,1744
1988,2064,1931
1878,1986,1709
1667,2070,1847
1602,1993,1943
1808,1963,1840
2212,2027,1863
2234,2047,1673
1535,1936,1767
1706,1936,1929
1887,2014,1904
1872,1963,1725
1462,1961,1844
1776,2074,1981
2128,2001,1698
2128,1974,1744
1511,2003,1980
1776,2000,1994
2034,2000,1751
1789,1998,1741
1562,1987,1821
1888,1994,1843
2113,1949,1744
1790,1944,1913
1467,1975,1888
1876,2073,1968
2190,2036,1814
1869,2006,1819
1953,2000,1845
1652,1966,1853
1753,1968,1744
1745,1980,1910
1649,2000,1887
2138,2063,1817
2145,2007,1793
2131,1994,1825
