2160,2238,1664
2135,2169,2122
2071,2112,2288
1968,2064,1367
2000,2096,947
2147,2160,1714
2224,2140,1845
2209,2146,1858
2182,2169,1819
2151,2183,1813
2196,2178,1822
2271,2238,1827
2219,2237,1831
2271,2251,1830
2351,2293,1825
2311,2283,1828
2288,2279,1829
2298,2257,2028
2321,2271,1751
2320,2288,1744
2332,2302,1808
2384,2334,1840
2374,2311,1838
2319,2284,1827
2342,2281,1835
2351,2279,1899
2307,2305,1883
2304,2307,1818
2325,2249,1741
2320,2208,1662
2278,2239,1655
2220,2263,1702
2283,2260,1688
2275,2254,1650
2330,2239,1577
2231,2241,1561
2298,2285,1613
2352,2281,1590
2225,2202,1445
2238,2188,1468
2315,2223,1490
2306,2215,1482
2247,2225,1459
2277,2238,1456
2299,2213,1475
2299,2181,1388
2280,2192,1354
2230,2162,1319
2197,2165,1421
2192,2145,1375
2202,2175,1358
2241,2182,1362
2256,2166,1408
2205,2153,1360
2159,2128,1311
2128,2139,1324
2134,2082,1329
2237,2114,1333
2233,2133,1306
2219,2135,1343
2239,2133,1377
2219,2132,1343
2197,2128,1302
2181,2126,1328
2158,2097,1349
2162,2087,1307
2150,2098,1296
2138,2094,1330
2147,2066,1328
2160,2043,1295
2160,2047,1280
2166,2121,1362
2165,2096,1391
2065,2004,1249
2005,1951,1178
2081,1978,1254
2138,1994,1325
2111,2019,1303
2116,2037,1294
2122,2032,1322
2047,1991,1315
2096,1997,1286
2071,1981,1271
2087,1975,1280
2090,1984,1306
2054,1968,1297
2063,1984,1301
2062,1994,1338
2085,1968,1315
2078,1981,1327
2090,1982,1314
2054,1975,1335
2042,1984,1374
2026,1929,1295
2024,1965,1316
2027,1979,1360
2046,1955,1341
2023,1952,1333
2000,1926,1313
2039,1961,1392
1979,1914,1360
1984,1900,1318
2032,1920,1314
2006,1923,1381
1952,1903,1414
1969,1920,1408
1973,1894,1347
1961,1882,1343
1945,1872,1379
2000,1903,1390
2011,1930,1380
1945,1887,1358
1977,1872,1419
1940,1863,1414
1843,1874,1409
1894,1840,1396
1923,1849,1421
1946,1878,1424
2007,1856,1391
1926,1854,1420
1845,1855,1462
1839,1865,1457
1902,1830,1391
1890,1811,1402
1891,1811,1466
1936,1847,1476
1938,1831,1427
1926,1808,1440
1840,1808,1488
1844,1829,1486
1921,1839,1449
1981,1787,1411
1889,1787,1495
1872,1834,1535
1910,1827,1513
1878,1783,1488
1822,1764,1488
1859,1791,1483
1840,1825,1497
1819,1763,1497
1852,1776,1555
1853,1785,1535
1927,1843,1582
1872,1808,1566
1823,1717,1499
1743,1760,1511
1872,1826,1571
1928,1842,1616
1822,1759,1535
1815,1734,1504
1806,1769,1526
1888,1776,1557
1840,1764,1594
1822,1744,1527
1808,1735,1506
1774,1764,1580
1845,1780,1647
1820,1747,1583
1807,1749,1527
1791,1764,1581
1797,1763,1629
1792,1766,1602
1789,1770,1582
1808,1756,1598
1817,1727,1648
1781,1725,1646
1712,1689,1535
1646,1682,1527
1776,1702,1610
1786,1734,1642
1833,1744,1619
1785,1732,1616
1809,1771,1697
1730,1742,1655
1671,1682,1563
1706,1680,1591
1791,1706,1649
1772,1770,1683
1754,1759,1680
1766,1725,1657
1759,1711,1664
1753,1775,1713
1835,1728,1678
1775,1680,1638
1770,1691,1666
1747,1713,1686
1741,1731,1689
1741,1711,1646
1737,1713,1692
1712,1735,1698
1728,1743,1690
1750,1728,1728
1728,1685,1717
1744,1701,1709
1725,1725,1695
1775,1733,1732
1771,1728,1766
1691,1718,1738
1711,1756,1749
1774,1775,1778
1710,1682,1737
1641,1664,1654
1670,1687,1680
1760,1728,1729
1744,1707,1756
1727,1719,1757
1715,1733,1763
1727,1723,1743
1703,1707,1771
1726,1712,1749
1776,1731,1749
1775,1762,1798
1722,1726,1799
1671,1696,1730
1712,1725,1741
1687,1687,1745
1714,1713,1789
1718,1737,1794
1700,1726,1769
1714,1717,1763
1718,1712,1775
1744,1747,1787
1744,1789,1808
1708,1763,1831
1684,1714,1804
1685,1722,1763
1737,1771,1797
1774,1783,1825
1696,1723,1791
1679,1746,1806
1737,1769,1807
1685,1712,1771
1675,1719,1785
1669,1741,1781
1707,1773,1795
1789,1801,1823
1744,1761,1813
1696,1754,1823
1633,1737,1765
1661,1758,1812
1717,1759,1869
1713,1792,1865
1751,1809,1824
1759,1819,1864
1744,1786,1864
1669,1776,1815
1694,1804,1819
1756,1833,1872
1715,1793,1877
1738,1809,1846
1749,1803,1801
1727,1803,1822
1703,1818,1877
1728,1839,1868
1796,1886,1872
1712,1808,1821
1679,1806,1844
1706,1808,1820
1727,1825,1808
1762,1845,1869
1774,1860,1930
1717,1837,1863
1651,1810,1787
1649,1791,1783
1700,1803,1841
1780,1847,1881
1792,1866,1840
1677,1843,1839
1651,1829,1856
1678,1806,1829
1728,1835,1822
1776,1858,1855
1759,1851,1861
1691,1840,1843
1691,1870,1857
1717,1883,1867
1774,1856,1884
1746,1839,1833
1723,1871,1833
1734,1869,1873
1713,1857,1913
1710,1867,1874
1744,1887,1885
1791,1921,1904
1738,1851,1841
1685,1806,1789
1696,1822,1789
1711,1823,1831
1728,1830,1843
1727,1859,1841
1729,1857,1819
1746,1857,1844
1728,1854,1869
1728,1847,1856
1712,1873,1833
1712,1887,1868
1723,1887,1904
1735,1892,1878
1757,1907,1873
1777,1910,1899
1760,1905,1899
1776,1931,1903
1755,1909,1842
1694,1844,1812
1721,1876,1883
1759,1915,1925
1721,1872,1847
1744,1865,1855
1786,1897,1904
1775,1930,1894
1713,1915,1861
1744,1923,1877
1750,1946,1910
1750,1937,1901
1773,1939,1893
1738,1931,1910
1767,1927,1926
1783,1942,1918
1786,1956,1903
1776,1962,1899
1797,1984,1937
1773,1936,1911
1746,1925,1869
1738,1866,1850
1722,1870,1849
1720,1903,1856
1743,1923,1862
1766,1953,1916
1763,1929,1920
1791,1913,1879
1761,1917,1859
1771,1920,1877
1729,1903,1906
1710,1891,1855
1697,1895,1819
1703,1897,1837
1761,1925,1912
1800,1961,1898
1662,1839,1759
1618,1746,1757
1680,1890,1826
1742,1862,1849
1763,1889,1800
1744,1856,1855
1709,1904,1894
1744,1920,1890
1744,1930,1841
1754,1896,1860
1803,1936,1910
1808,1982,1866
1712,1850,1840
1695,1907,1841
1747,1902,1913
1744,1867,1882
1749,1905,1830
1796,1930,1878
1772,1901,1904
1721,1871,1846
1721,1895,1815
1754,1898,1865
1751,1855,1873
1730,1889,1867
1726,1906,1855
1761,1921,1882
1760,1917,1906
1759,1918,1878
1781,1934,1852
1757,1879,1826
1691,1840,1816
1655,1803,1807
1714,1867,1837
1753,1872,1856
1743,1877,1853
1744,1871,1840
1776,1883,1846
1805,1902,1859
1770,1861,1858
1739,1878,1854
1784,1904,1865
1808,1894,1870
1791,1867,1875
1741,1845,1830
1725,1869,1807
1770,1876,1840
1799,1875,1886
1778,1872,1870
1781,1850,1828
1739,1847,1787
1742,1856,1824
1776,1885,1856
1774,1874,1831
1830,1904,1859
1792,1875,1875
1764,1858,1838
1744,1841,1802
1757,1855,1830
1735,1851,1854
1712,1801,1801
1744,1811,1776
1771,1858,1807
1761,1846,1856
1755,1867,1830
1730,1777,1778
1717,1854,1802
1750,1813,1830
1729,1808,1787
1723,1818,1771
1743,1829,1810
1718,1823,1840
1750,1861,1818
1739,1792,1782
1737,1776,1808
1744,1827,1841
1748,1847,1823
1731,1856,1808
1712,1862,1857
1710,1837,1855
1710,1824,1823
1728,1836,1805
1805,1877,1847
1799,1885,1902
1761,1869,1861
1748,1823,1835
1775,1872,1850
1781,1876,1879
1762,1883,1859
1780,1865,1839
1795,1870,1853
1816,1922,1930
1795,1944,1918
1823,1904,1872
1828,1873,1872
1833,1982,1939
1813,1965,1935
1807,1936,1902
1843,1954,1920
1889,1963,1949
1897,1950,1931
1855,1946,1883
1858,1953,1904
1812,1925,1925
1833,1938,1941
1888,2000,1968
1859,1957,1930
1811,1873,1883
1840,1905,1885
1866,1968,1941
1879,2013,1974
1866,1968,1971
1846,1967,1936
1857,1989,1919
1877,2047,1935
1897,1992,1975
1874,1984,1917
1930,1967,1904
1873,1909,1945
1899,2011,2012
1937,1978,1995
1883,1961,1924
1887,1990,1946
1922,1984,2014
1884,1933,1938
1909,1937,1936
1920,2033,1953
1884,1940,1954
1936,2007,1994
1922,1947,1940
1881,1911,1905
1889,1968,1936
1921,1958,1965
1968,1989,1969
2027,2020,1975
1936,2023,1939
1903,1935,1950
1942,2018,1966
1987,1990,1997
1919,1976,1994
1911,1971,1979
1934,2002,1964
1927,1973,1937
1936,1966,1984
1978,1968,1993
1993,1904,2000
2013,1995,1986
1962,2001,1997
1891,1941,1936
1936,1893,1922
1947,2039,1936
1951,1946,1968
1919,1935,1933
1925,1949,1929
1986,1997,1984
1995,1994,2007
1966,1966,1962
1906,1920,1885
1936,1968,1923
1939,2000,1971
1939,1966,1967
1938,2010,1934
1970,1970,1959
1984,2035,1990
1973,1963,1983
1955,1949,1926
1952,1958,1931
1955,1963,1981
1985,1979,1957
1989,1933,1901
1932,1888,1856
1904,1905,1918
1885,1915,1927
1915,1946,1915
1950,1953,1931
1962,1954,1953
1921,1923,1915
1916,1921,1886
1947,1941,1923
1935,1930,1935
1936,1948,1922
1942,1957,1898
1951,1970,1920
1963,1975,1950
1961,1980,1942
1941,1975,1891
1947,1968,1911
1958,1968,1936
1954,1978,1921
1933,1965,1874
1939,1968,1904
1943,1977,1936
1910,1933,1879
1929,1941,1862
1936,1968,1905
1943,1970,1938
1893,1901,1859
1883,1913,1820
1905,1919,1891
1934,1925,1915
1934,1936,1893
1919,1931,1856
1935,1932,1888
1953,1937,1928
1956,1949,1905
1920,1917,1856
1931,1922,1874
1940,1934,1916
1985,1965,1936
2011,1982,1907
1887,1894,1834
1874,1897,1857
1897,1899,1861
1919,1903,1842
1971,1933,1885
1975,1968,1952
1969,1979,1943
1924,1918,1869
1930,1916,1874
1941,1930,1909
1941,1920,1898
1958,1966,1890
1966,1942,1904
1947,1925,1917
1951,1934,1909
1962,1954,1903
1951,1939,1904
1947,1939,1920
1926,1904,1887
1936,1916,1873
1968,1943,1920
1983,1964,1958
1993,1971,1945
1952,1936,1880
1943,1932,1901
1966,1954,1946
1981,1960,1954
1984,1967,1920
1998,1984,1942
2006,1981,1969
2025,2011,1978
1979,1968,1915
1963,1940,1898
1975,1942,1936
1982,1966,1936
1987,1974,1909
1978,1961,1917
1981,1959,1949
1992,1969,1938
2015,1991,1925
2010,1995,1941
1945,1915,1918
1964,1925,1901
1968,1947,1871
2000,1975,1926
1986,1950,1951
1968,1937,1926
2006,1974,1917
2074,2005,1968
2106,2032,2006
1942,1958,1904
1905,1936,1853
1946,1941,1887
2002,1959,1949
2016,1967,1947
1986,1963,1890
2043,2019,1951
2054,1999,1977
1985,1969,1942
1982,1953,1877
2013,1980,1904
1963,1941,1911
1895,1895,1866
1920,1911,1854
1986,1951,1920
2045,1998,2001
1983,1945,1906
1957,1946,1858
1989,1970,1905
2045,1997,1979
2055,2001,1962
1949,1935,1840
1927,1936,1846
1978,1966,1923
1980,1968,1895
1953,1927,1808
1983,1945,1850
1971,1965,1908
2005,1990,1925
1990,1974,1867
1978,1975,1888
1945,1911,1875
1901,1888,1830
1923,1923,1834
1959,1956,1878
1971,1965,1907
1985,1974,1902
1936,1931,1829
1918,1904,1840
1957,1927,1871
1962,1936,1863
1930,1917,1822
1952,1936,1851
1957,1907,1873
1945,1913,1841
1927,1935,1827
1940,1945,1858
1975,1957,1914
1985,1961,1886
1931,1920,1808
1867,1872,1782
1897,1883,1838
1909,1895,1820
1908,1904,1806
1935,1922,1863
1959,1941,1898
1963,1936,1888
1921,1911,1799
1894,1905,1794
1907,1910,1842
1919,1920,1850
1926,1921,1803
1934,1910,1853
1938,1910,1901
1918,1894,1831
1906,1898,1780
1952,1936,1827
1955,1936,1872
1904,1890,1830
1863,1867,1771
1919,1911,1840
1931,1904,1872
1917,1895,1842
1935,1905,1813
1935,1923,1824
1885,1885,1823
1886,1877,1803
1886,1882,1776
1905,1894,1808
1937,1915,1866
1921,1904,1841
1927,1911,1822
1979,1952,1888
1878,1862,1831
1824,1821,1716
1851,1866,1731
1869,1867,1791
1887,1872,1815
1911,1904,1862
1919,1885,1814
1856,1855,1781
1844,1856,1808
1862,1855,1858
1966,1925,1829
2025,1931,1827
1826,1824,1770
1803,1831,1783
1865,1867,1791
1951,1910,1860
1938,1884,1872
1917,1884,1767
1858,1850,1706
1782,1808,1718
1846,1863,1793
1984,1984,1870
1838,1824,1731
1755,1774,1712
1814,1823,1810
1862,1875,1766
1899,1911,1786
1927,1928,1857
1891,1907,1806
1858,1878,1765
1866,1882,1723
1861,1884,1838
1875,1905,1795
1967,1966,1857
1892,1927,1855
1789,1855,1766
1751,1824,1725
1776,1843,1712
1852,1895,1765
1874,1905,1779
1847,1895,1854
1813,1884,1786
1843,1899,1774
1853,1902,1782
1872,1922,1856
1856,1905,1801
1835,1902,1755
1831,1897,1780
1840,1886,1836
1847,1889,1789
1893,1926,1808
1901,1947,1808
1851,1895,1802
1805,1856,1743
1756,1799,1668
1791,1825,1729
1851,1869,1805
1847,1866,1768
1819,1861,1741
1834,1859,1769
1829,1856,1797
1850,1855,1790
1844,1862,1767
1852,1862,1875
1872,1878,1791
1839,1858,1791
1808,1839,1749
1852,1872,1744
1855,1867,1798
1856,1870,1861
1856,1870,1793
1851,1843,1776
1837,1835,1794
1810,1805,1744
1838,1853,1759
1834,1844,1776
1827,1830,1798
1822,1831,1779
1793,1798,1748
1856,1851,1755
1975,1920,1879
1841,1829,1779
1713,1767,1725
1758,1789,1708
1808,1815,1767
1879,1852,1806
1876,1871,1797
1904,1900,1808
1849,1827,1770
1790,1779,1713
1827,1785,1712
1794,1789,1693
1790,1808,1766
1777,1803,1723
1850,1851,1797
1861,1810,1760
1835,1773,1679
1850,1776,1725
1867,1803,1741
1883,1866,1798
1767,1803,1790
1703,1762,1758
1704,1765,1705
1823,1846,1773
1878,1871,1840
1877,1840,1795
1829,1807,1788
1793,1798,1802
1805,1827,1838
1843,1829,1781
2161,1919,1776
2147,1897,1807
1659,1767,1783
1520,1739,1765
1734,1773,1725
1931,1853,1761
2305,2000,1905
2022,1761,1656
1492,1673,1570
1520,1801,1815
1774,1825,1954
1962,1839,1791
1961,1823,1631
1811,1815,1803
1762,1782,1842
1738,1793,1877
1707,1751,1755
1753,1810,1769
1984,1920,1938
1889,1819,1757
1924,1792,1754
1775,1713,1782
1799,1782,1767
1779,1728,1708
1763,1783,1669
2002,1902,1835
2027,1821,1959
1789,1665,1731
1535,1695,1634
1727,1751,1630
2007,1788,1807
1852,1728,1722
1664,1739,1900
1680,1827,1874
1814,1851,1955
1698,1707,1782
1808,1803,1651
1921,1777,1659
1855,1831,1906
1733,1792,1789
1637,1707,1687
1881,1753,1866
2018,1741,1969
1945,1778,1807
1762,1826,1637
1668,1756,1694
1515,1690,1807
1744,1770,1814
2135,1904,1879
2095,1856,1989
1827,1651,1751
1587,1637,1661
1586,1778,1795
1745,1771,1840
1743,1793,1903
1905,1874,1941
2183,1907,1937
2267,1879,1903
1503,1734,1749
1349,1690,1658
1757,1810,1734
2031,1907,1970
1951,1867,1957
1847,1797,1830
2064,1911,1947
2047,1814,1927
1558,1706,1707
1409,1729,1705
1902,1893,1968
1980,1863,1895
1847,1851,1857
1915,1794,1824
1869,1822,1911
1776,1826,1893
1659,1761,1717
1856,1751,1863
1885,1885,2105
1788,1863,2028
1841,1838,1936
1921,1829,1917
2029,1885,1881
2201,1894,1819
1631,1709,1718
1706,1811,1950
1931,1917,2221
1868,1759,1829
1686,1766,1643
1746,1776,1934
2223,1749,1885
2149,1892,1889
1534,1883,2009
1378,1758,1826
1935,1808,1817
2179,1798,1966
1776,1735,2065
1910,1934,2047
2256,1870,1947
1837,1741,1805
1407,1706,1872
1573,1713,1866
2224,2007,2194
2220,1859,1981
1616,1725,1840
1569,1861,1920
1807,1748,1765
2210,1777,1899
1934,1721,1859
1651,1837,1968
1828,1919,1995
2147,1927,2109
2141,1845,2031
1587,1619,1738
1744,1699,1578
2166,1829,2030
1711,1771,1990
1555,1771,1922
2000,1811,2128
2217,1765,2111
1809,1857,1782
1820,1874,1990
1839,1824,1999
1646,1757,1807
1723,1773,1888
1951,1791,1970
2334,1854,2047
2009,1820,1937
1696,1747,2034
1968,1904,2155
2000,1763,1798
1794,1758,1855
1839,1776,1669
1627,1730,1925
1751,1856,2191
1895,1767,1954
2129,1863,1969
2203,1840,1942
1925,1712,1878
1531,1584,1767
1833,1738,1935
1886,1857,1786
1679,1874,2014
1833,1813,1917
1785,1728,1901
2304,1872,2002
1890,1750,1830
1462,1745,1959
2059,1776,2062
1991,1787,1936
1695,1831,1919
1584,1743,1744
1868,1730,1965
1949,1873,2241
1922,1803,1900
1914,1813,1848
1837,1776,1915
2023,1761,2066
2241,1840,1859
1762,1782,1738
1808,1891,2112
1754,1770,2113
1707,1730,1846
1947,1745,1862
1936,1835,1859
2122,1798,1836
2001,1860,2027
1989,1750,2087
1805,1776,1904
1694,1655,1737
1535,1733,1813
1738,1853,1926
2395,1966,1999
1904,1753,2081
1574,1757,1937
1603,1741,1935
2001,1771,1827
2061,1717,1674
1972,1776,1856
1841,1801,2041
1703,1856,2238
2061,1901,2087
1707,1735,1758
2009,1837,2026
2320,1823,1952
1747,1770,1730
1685,1763,1973
1722,1731,1936
1615,1774,1850
1744,1776,1807
2032,1819,2009
2117,1873,2001
2005,1870,2041
2064,1813,1942
1851,1799,1767
1584,1691,1867
1759,1840,2039
1982,1776,1886
1957,1781,1893
1881,1896,1940
1767,1847,2006
2007,1838,2075
2191,1778,1841
1894,1842,1866
1778,1856,1942
2143,1858,1948
1680,1683,1899
1680,1744,1858
1809,1771,1947
2096,1835,2122
1979,1823,1761
1962,1845,1680
1625,1839,2032
1596,1766,2071
2101,1869,2053
2309,1874,1840
1839,1745,1885
1746,1822,2067
1953,1840,1913
1869,1849,1873
1969,1936,2096
2192,1856,2017
1788,1697,1808
1630,1712,1856
1717,1835,1901
2023,1909,1936
2126,1842,1827
1839,1845,1951
1824,1856,1914
1938,1807,1904
1872,1822,1955
2023,1840,1866
1946,1842,1853
1766,1835,2011
2309,1972,1968
1731,1745,1715
1390,1713,1847
1810,1861,1967
2303,1911,2064
2068,1747,1887
1522,1798,1675
1795,1911,1873
2093,1949,1983
2103,1853,1799
1733,1805,1873
1797,1834,1961
1887,1875,1936
1967,1814,1951
2071,1923,2018
2004,1958,1872
1834,1701,1696
1699,1776,1867
1650,1840,1875
1919,1872,1929
2015,2000,1905
2037,1966,1830
2214,1985,2070
2003,1841,2005
1492,1712,1664
1734,1820,1733
1919,1934,1971
1862,1878,1866
1969,1899,1793
2005,1880,1874
1911,1917,2054
1946,1905,1866
2065,1887,1814
1962,1876,1807
1782,1857,1997
1750,1845,1910
1947,1884,1829
2089,1885,1859
1936,1840,1841
1859,1910,1818
1936,1963,1901
1903,1968,1939
2135,1919,1929
1909,1817,1785
1616,1808,1694
1674,1805,1718
1914,1880,1878
2139,1979,1871
1931,1902,1911
1870,1985,1958
1879,1918,1927
2011,1990,1991
2238,1981,1808
2018,1806,1693
1701,1813,1808
1915,1907,1776
1922,1902,1776
1649,1823,1875
2037,1953,2000
2642,2018,1950
1810,1775,1728
1520,1821,1556
1948,1937,1806
1840,1824,1849
1717,1920,1696
1835,1920,1879
2030,1927,1827
2498,2027,1939
1776,1810,1728
1375,1758,1747
1635,1806,1806
2381,1963,1930
2613,1983,1939
1757,1855,1706
1335,1870,1757
1637,1883,1843
2167,1936,1840
2143,1879,1797
1994,1978,1813
2212,1901,1835
1839,1808,1657
1757,1906,1717
1840,1920,1949
1934,1891,1953
1798,1875,1836
1887,1846,1533
2128,1904,1754
1993,1935,1858
1808,1930,1958
1808,1879,1885
2014,1875,1787
2131,1847,1705
2082,2005,1841
2030,1943,1900
1636,1814,1791
1609,1840,1786
1781,1851,1887
2011,1891,2029
2054,1859,1840
2082,1975,1786
2185,1975,1829
2154,1863,1743
2181,1866,1751
1694,1819,1777
1641,1888,1877
2032,2061,2011
2211,1998,1901
1943,1863,1808
2087,1786,1766
1971,1734,1570
1483,1840,1714
1712,1887,1919
2003,1933,1987
2179,1949,1739
1867,1840,1766
2222,1935,2033
2000,1771,1768
1700,1845,1618
1723,1895,1743
2009,1966,1893
2038,1942,2075
1826,1893,1818
1785,1842,1769
1967,1851,1792
2265,1856,1840
1817,1791,1680
1626,1840,1802
1796,1905,1971
2086,1938,1914
2164,1990,1843
2159,1986,1854
2035,1942,1842
1875,1830,1923
1829,1885,1834
1858,1826,1747
1841,1815,1904
1841,1853,1819
1987,1931,1793
2031,1879,1841
2066,1895,1851
2090,1883,1851
2101,1911,1841
1840,1809,1846
1817,1840,2021
1886,1932,1877
2007,1874,1756
2032,1907,1776
1998,1843,1749
2000,1872,1733
1968,1920,1941
1874,1815,1939
1911,1791,1818
1914,1858,1839
1810,1743,1727
1889,1750,1831
1932,1856,1885
1962,1854,1885
2000,1877,1840
2217,1853,1877
2137,1788,1794
1845,1809,1856
1891,1881,1861
1971,1858,1816
1777,1761,1808
1726,1774,1829
1910,1782,1823
2414,1872,1785
2408,1855,1864
1745,1728,1856
1430,1726,1744
1779,1743,1759
2261,1930,1903
1953,1709,1857
1984,1818,1877
2016,1730,1882
1817,1691,1702
1904,1776,1692
2114,1777,1776
1853,1741,1923
1851,1870,1989
2089,1887,1840
1969,1670,1796
1786,1621,1783
1885,1667,1767
2111,1790,1808
2367,1823,1907
1935,1749,1805
1744,1715,1810
2017,1822,1954
2096,1799,1923
1666,1679,1683
1595,1616,1654
1949,1789,1759
2385,1855,1919
2373,1742,1939
1731,1649,1747
1591,1673,1732
1865,1789,1846
1995,1810,1914
2039,1811,1948
1942,1794,1723
1808,1722,1695
2033,1742,1920
2410,1910,1989
1909,1698,1733
1758,1765,1825
1933,1680,1760
2095,1745,1853
1921,1741,1831
1839,1745,1763
1974,1826,1871
1837,1713,1713
1924,1739,1722
2107,1779,1809
1968,1766,1909
1789,1759,1893
1995,1822,1826
2022,1733,1829
1853,1797,1827
2167,1946,1891
2257,1781,1680
1680,1713,1695
1744,1793,1963
1840,1739,1872
2014,1843,1881
2132,1810,1953
1931,1935,1744
1883,1795,1763
2039,1818,1910
2258,1917,1818
1907,1839,1895
1659,1814,1830
1823,1795,1802
1966,1798,1809
1974,1751,1810
2278,1847,1808
2077,1859,1834
1702,1837,1787
1718,1863,1904
2042,1856,1951
2597,1985,1969
1939,1738,1763
1648,1779,1808
1638,1791,1808
2014,1867,1761
2206,2074,1943
2096,1921,1831
1778,1763,1782
1843,1856,1886
1971,1898,1921
2105,1881,1875
1969,1794,1839
1873,1822,1878
1909,1900,1761
1854,1841,1776
2003,1968,1921
2131,1903,1965
2081,1939,1877
2063,1843,1821
1973,1920,1897
1841,1871,1776
1793,1845,1813
1915,1908,1903
1838,1792,1643
1875,1830,1734
1911,1931,1910
1961,1963,1915
2135,1951,1947
2064,1891,1901
1913,1874,1747
1845,1887,1801
2093,2038,1989
1994,1931,1936
1825,1943,1774
1939,1891,1745
2165,1936,1744
1858,1910,1853
1696,1893,1917
2299,2091,2141
2188,1929,1951
1675,1765,1609
1671,1787,1607
1916,1963,1893
1971,1982,1893
2093,1979,1747
2032,1967,1815
1920,1973,2021
1797,1936,1890
1943,2010,1879
2170,1943,1878
1935,2026,1888
1779,1908,1898
1851,1917,1809
1962,1945,1823
2000,1968,1932
2127,2013,2028
2012,2078,1787
1983,1973,1727
1887,1921,1919
1935,1904,1898
1968,1965,1812
1983,2060,1936
2053,2099,2026
2066,1955,1804
1738,1846,1616
1851,1962,1844
2218,2007,1919
1903,1917,1878
1793,1923,1932
1958,1975,1819
2047,1991,1856
2402,2057,2131
1776,1883,1811
1478,1840,1645
1739,1907,1730
2016,1993,1831
1951,1987,1879
1988,1969,1895
1969,1950,1904
1999,2015,2000
2074,2066,1963
1977,2004,1798
1822,1914,1783
1898,1950,1882
2129,2002,1936
2194,1973,1775
1853,1957,1853
1725,1934,1871
1834,1926,1839
2014,1938,1867
2002,2000,1906
1946,2001,1873
2132,1991,1859
2004,1989,1926
1923,1987,1849
1889,2003,1846
1938,1968,1919
1893,1881,1727
1888,1901,1794
1906,2001,1982
1933,2003,1851
1936,1975,1863
1999,2000,1872
2336,2096,2031
1941,1946,1840
1664,1934,1838
1737,1950,1874
1907,2016,1821
2102,2032,1872
2079,2014,1930
1941,1959,1907
1821,1950,1794
1837,1936,1833
2209,2070,2021
2121,1968,1945
1858,1941,1740
1753,1952,1728
1985,2096,1930
2017,1995,2059
1847,1958,1902
1847,1931,1712
1975,1987,1840
2058,2003,1911
1968,2014,1927
1898,1969,1849
2035,2006,1905
2081,2097,1922
1993,1972,1860
1730,1873,1780
1781,1931,1762
2058,2010,1968
2175,2033,1987
1906,1972,1858
1728,1962,1765
1938,2014,1886
2071,2013,2013
1997,1987,1862
1998,1987,1827
1937,1990,1809
1962,1986,1840
1872,1961,1922
1722,1955,1842
1919,2000,1892
2067,2031,1881
1959,1944,1946
1904,2023,1873
1968,1989,1824
2089,2015,1857
1984,2023,1933
2066,2064,1973
1936,2023,1936
1858,1920,1825
1782,1906,1755
1906,1966,1838
2017,2032,1906
1915,2000,1843
1946,1977,1835
2056,2019,1930
2003,1978,1936
1926,1975,1794
1839,1983,1792
1787,1975,1862
1822,1972,1883
2042,2061,1939
2207,2030,1824
1886,1917,1810
1753,1930,1921
1934,1982,1859
2013,1971,1762
1915,1971,1859
1903,2006,1946
1909,2017,1931
1907,1934,1877
2082,1966,1904
1984,1952,1783
1913,1982,1775
1808,1930,1703
1776,1930,1872
1925,2005,2089
2039,1966,1993
1954,1923,1731
1879,1982,1751
1979,2027,1882
1899,2000,1888
1973,2018,1985
2038,1926,1804
1968,1863,1717
1777,1910,1939
1726,1973,1907
1901,1997,1781
2010,1957,1871
1958,1950,1904
1904,1981,1899
2014,2014,1897
2107,2018,1907
1872,1970,1815
1811,1881,1785
1840,1946,1833
2047,2011,1967
2033,1970,1799
1859,1857,1712
1834,1909,1861
1870,1948,1949
1936,1949,1899
2015,1968,1887
1808,1872,1803
1833,1971,1835
2000,2019,1946
2003,1951,1795
1974,1936,1738
1909,1989,1830
1917,1959,1936
1928,1907,1933
1829,1937,1840
1829,1923,1827
1902,1911,1832
1842,1934,1727
1918,2000,1856
2096,1974,1883
1973,1920,1911
1871,1905,1855
1875,1952,1793
2001,1984,1831
1937,1942,1890
1826,1961,1904
1951,2000,2004
2002,1910,1883
1857,1821,1766
1812,1850,1775
1937,1990,1882
1915,1941,1872
1811,1872,1746
1939,1936,1862
2145,1968,2080
1926,1945,1911
1685,1925,1750
1797,1930,1808
2077,2015,1914
2026,1863,1783
1853,1799,1727
1844,1901,1762
1827,1955,1879
1797,1938,1866
1827,1917,1869
2039,1952,1943
1969,1904,1783
2037,1998,1845
2197,1984,1968
1776,1891,1811
1858,1955,1894
1906,1901,1840
1903,1957,1837
1845,1993,1949
1883,1967,1920
2023,1883,1780
1915,1827,1710
1659,1820,1685
1895,1904,1817
2247,2000,1926
2095,2000,1968
1615,1939,1904
1713,1939,1833
2033,1988,1953
1909,1858,1825
1899,1889,1756
1905,1910,1744
2035,2037,1931
1961,1994,1934
1839,1909,1803
1975,1912,1903
1999,1883,1936
1780,1950,1994
1938,1979,1895
2035,1943,1753
1895,1851,1664
1869,1885,1758
1825,1940,1932
2128,2070,2080
1886,1905,2064
1655,1881,1669
1693,1904,1700
1997,1969,1903
2221,2005,2012
1898,1853,1877
1878,1886,1753
1965,1975,1717
1867,1958,1904
1936,1974,2000
1930,1977,1809
1774,1887,1821
1750,1875,1910
1895,1921,1914
2133,1979,1887
2159,1996,2016
1974,1971,1779
2014,1968,1778
1788,1836,1776
1599,1840,1850
1695,1935,1968
1871,1936,1980
2205,2014,1792
2096,1889,1750
1633,1847,1718
1766,1968,1782
2111,2009,1991
1827,1823,1893
1737,1865,1905
2059,1963,1831
1963,1871,1823
1627,1861,1889
1734,1943,1907
2170,2032,1991
2094,1987,1917
2005,1894,1825
1935,1852,1822
1911,1861,1955
1596,1846,1600
1718,1939,1709
2103,2039,2096
1734,1776,1839
1648,1809,1747
2148,2032,1961
2263,1958,1808
1670,1801,1776
1667,1967,1984
1757,1918,1831
1966,1845,1728
2128,1930,1931
2126,1991,2047
1862,1899,1861
1717,1834,1809
1707,1856,1946
1904,1971,1862
2047,2046,1798
1995,1909,1801
1867,1855,2023
1682,1856,1814
1867,1885,1644
2192,1935,1737
