1872,1981,1794
1890,1983,1797
1886,1989,1777
1890,1979,1838
1903,1983,1804
1899,1997,1759
1903,2005,1793
1885,1995,1825
1889,1991,1792
1904,2012,1818
1905,2022,1839
1894,2021,1847
1899,2035,1854
1870,2011,1775
1870,2030,1808
1888,2053,1850
1887,2065,1821
1883,2096,1803
1882,2127,1839
1887,2130,1851
1867,2109,1794
1879,2133,1802
1901,2177,1840
1872,2162,1837
1866,2155,1806
1884,2176,1797
1895,2208,1835
1899,2213,1864
1899,2201,1827
1899,2215,1807
1894,2240,1844
1893,2234,1865
1885,2221,1822
1878,2226,1805
1888,2247,1846
1904,2250,1872
1919,2255,1859
1901,2243,1823
1856,2220,1808
1872,2229,1846
1874,2224,1824
1881,2237,1811
1913,2283,1861
1888,2239,1847
1863,2195,1802
1872,2221,1795
1890,2241,1851
1902,2245,1876
1902,2241,1851
1862,2230,1818
1825,2237,1842
1934,2230,1863
1875,2213,1824
1907,2224,1811
1942,2243,1853
1936,2229,1878
1863,2206,1840
1854,2202,1815
1885,2211,1842
1909,2209,1867
1906,2192,1843
1877,2217,1834
1901,2239,1872
1904,2190,1856
1847,2160,1818
1855,2167,1795
1842,2191,1843
1968,2193,1887
1871,2163,1840
1881,2163,1808
1901,2171,1846
1899,2169,1874
1897,2153,1846
1861,2153,1818
1938,2174,1865
1931,2180,1904
1856,2139,1840
1857,2127,1811
1891,2133,1849
1923,2147,1884
1901,2130,1855
1891,2126,1818
1920,2160,1873
1894,2115,1871
1878,2095,1821
1889,2099,1824
1915,2128,1874
1891,2097,1870
1887,2076,1833
1895,2083,1821
1904,2109,1861
1955,2110,1903
1911,2097,1865
1905,2091,1846
1876,2071,1840
1888,2069,1869
1898,2063,1850
1899,2061,1833
1874,2077,1870
1915,2065,1899
1915,2055,1872
1942,2042,1834
1889,2045,1857
1937,2039,1890
1877,2042,1872
1842,2012,1824
1927,2015,1856
1949,2020,1901
1920,2017,1873
1923,2026,1853
1924,2037,1885
1870,2011,1889
1900,2000,1864
1909,1999,1839
1916,2010,1867
1925,2011,1894
1921,2011,1872
1923,2000,1844
1935,2003,1877
1931,1991,1895
1913,1968,1863
1892,1974,1841
1913,1985,1878
1931,1991,1915
1933,1969,1873
1926,1981,1862
1904,1971,1872
1917,1959,1883
1915,1955,1858
1915,1966,1853
1914,1970,1886
1927,1968,1915
1936,1963,1885
1941,1972,1865
1919,1967,1877
1827,1949,1889
1904,1938,1865
1911,1953,1856
1923,1973,1891
1933,1957,1910
1904,1918,1855
1913,1922,1831
1974,1938,1870
1819,1937,1902
1922,1927,1873
1926,1936,1859
1909,1938,1883
1922,1936,1914
1909,1900,1861
1920,1902,1840
1930,1930,1874
1936,1931,1901
1915,1909,1872
1905,1904,1841
1951,1918,1872
1929,1923,1907
1931,1911,1874
1911,1903,1846
1856,1907,1867
1899,1910,1904
1894,1901,1870
1905,1905,1848
1900,1921,1883
1895,1904,1904
1889,1897,1873
1889,1904,1851
1899,1915,1890
1905,1911,1909
1910,1899,1878
1986,1907,1869
1968,1935,1903
1931,1879,1890
1975,1869,1857
1897,1874,1840
1911,1893,1872
1938,1891,1906
1936,1878,1879
1933,1872,1863
1957,1857,1867
1873,1847,1886
1921,1845,1869
1911,1859,1853
1929,1887,1882
1913,1871,1904
1933,1856,1861
1902,1865,1845
1929,1879,1879
1930,1881,1904
1933,1865,1875
1925,1866,1845
1933,1877,1872
1933,1870,1898
1936,1871,1885
1893,1906,1881
1898,1841,1855
1901,1839,1872
1922,1841,1859
1921,1859,1853
1929,1891,1904
1920,1871,1906
1938,1842,1867
1890,1846,1851
1927,1866,1883
1917,1870,1920
1936,1856,1893
1934,1857,1870
1923,1870,1886
1941,1872,1923
1919,1855,1901
1905,1845,1871
1951,1886,1916
1950,1879,1935
1924,1841,1885
1934,1857,1875
1936,1867,1897
1919,1850,1910
1931,1840,1892
1939,1867,1882
1950,1881,1921
1936,1858,1922
1921,1838,1882
1925,1856,1871
1946,1872,1913
1961,1873,1938
1937,1856,1906
1926,1856,1869
1936,1872,1900
1949,1872,1936
1957,1862,1909
1942,1862,1874
1941,1865,1902
1964,1877,1933
1954,1856,1895
1941,1853,1866
1940,1870,1899
1953,1877,1936
1953,1865,1904
1968,1886,1903
1943,1877,1904
1916,1850,1898
1918,1822,1872
1934,1838,1859
1949,1861,1897
1954,1872,1929
1963,1865,1909
1941,1849,1864
1936,1866,1891
1948,1877,1933
1955,1871,1919
1936,1854,1872
1943,1871,1894
1951,1875,1923
1950,1866,1902
1936,1862,1867
1932,1868,1889
1936,1867,1915
1936,1856,1893
1936,1863,1870
1933,1874,1892
1946,1879,1925
1948,1866,1897
1942,1862,1870
1953,1887,1904
1967,1892,1936
1951,1858,1888
1939,1863,1855
1941,1871,1874
1957,1872,1910
1962,1873,1898
1942,1889,1870
1941,1888,1893
1941,1884,1919
1950,1873,1899
1949,1886,1872
1959,1905,1906
1953,1887,1920
1939,1862,1877
1942,1875,1862
1941,1887,1885
1930,1872,1904
1938,1860,1885
1946,1872,1857
1951,1890,1885
1953,1895,1919
1946,1877,1897
1951,1886,1867
1957,1905,1904
1955,1891,1917
1942,1870,1873
1934,1872,1853
1948,1901,1891
1954,1903,1920
1943,1891,1889
1939,1891,1861
1925,1889,1874
1933,1897,1908
1936,1885,1887
1926,1886,1853
1936,1906,1887
1941,1907,1919
1936,1889,1891
1932,1887,1857
1936,1911,1890
1941,1911,1913
1945,1891,1887
1935,1879,1840
1936,1893,1872
1937,1894,1904
1939,1893,1879
1937,1901,1856
1941,1922,1877
1934,1907,1901
1937,1888,1872
1920,1876,1831
1920,1900,1862
1935,1904,1897
1932,1895,1873
1936,1906,1849
1936,1915,1873
1941,1918,1907
1939,1904,1884
1936,1904,1855
1925,1911,1863
1922,1904,1883
1936,1898,1863
1940,1904,1844
1941,1921,1877
1943,1921,1905
1951,1917,1885
1946,1918,1858
1936,1913,1869
1936,1903,1889
1954,1904,1879
1949,1906,1847
1945,1919,1873
1941,1920,1902
1929,1891,1856
1925,1887,1824
1936,1902,1859
1940,1904,1888
1961,1901,1873
1954,1904,1846
1951,1923,1871
1958,1924,1907
1939,1898,1882
1936,1896,1846
1950,1921,1883
1938,1915,1904
1949,1904,1874
1941,1908,1847
1950,1936,1885
1939,1914,1902
1946,1894,1877
1938,1904,1845
1936,1925,1872
1937,1923,1895
1967,1936,1892
1955,1919,1854
1919,1904,1845
1929,1920,1884
1943,1904,1872
1968,1949,1862
1937,1895,1856
1927,1904,1883
1943,1952,1872
1943,1866,1845
1951,1929,1878
1951,1942,1909
1940,1903,1872
1955,1919,1852
1941,1947,1869
1942,1946,1893
1953,1920,1868
1952,1924,1845
1939,1931,1873
1940,1930,1906
1944,1936,1879
1949,1926,1856
1951,1907,1874
1936,1925,1895
1934,1889,1872
1936,1945,1846
1950,1939,1887
1921,1915,1888
1921,1902,1863
1919,1905,1840
1934,1926,1877
1937,1918,1909
1936,1906,1877
1925,1963,1839
1937,1943,1870
1957,1915,1910
1929,1885,1866
1904,1914,1820
1933,1930,1858
1939,1931,1903
1928,1923,1872
1927,1915,1842
1935,1939,1866
1939,1933,1900
1942,1925,1879
1945,1923,1847
1946,1936,1882
1935,1929,1903
1946,1926,1884
1971,1956,1875
1937,1936,1866
1904,1903,1872
1920,1913,1862
1938,1916,1846
1941,1931,1872
1948,1936,1904
1954,1933,1885
1933,1879,1839
1949,1923,1873
1936,1911,1894
1935,1935,1867
1932,1936,1842
1953,1936,1876
1955,1982,1914
1946,1904,1874
1940,1939,1840
1938,1922,1856
1942,1955,1888
1955,1968,1879
1950,1934,1854
1941,1937,1883
1943,1968,1909
1950,1933,1876
1941,1920,1840
1940,1936,1875
1952,1982,1904
1961,1983,1902
1936,1905,1837
1917,1965,1858
1935,1931,1889
1943,1933,1876
1965,1943,1876
1962,1967,1895
1942,1938,1898
1934,1927,1879
1938,1936,1855
1936,1949,1873
1943,1955,1907
1943,1941,1894
1931,1927,1851
1934,1934,1862
1937,1909,1893
1946,1958,1874
1959,1955,1869
1953,1897,1878
1907,1887,1872
1899,1872,1842
1918,1906,1833
1925,1927,1872
1942,1939,1906
1952,1935,1889
1946,1936,1856
1942,1858,1862
1939,1934,1894
1926,1933,1878
1926,1922,1840
1930,1942,1868
1941,1945,1909
1948,1939,1893
1938,1931,1855
1950,1959,1886
1954,1965,1921
1930,1936,1883
1915,1893,1841
1914,1892,1867
1933,1936,1902
1926,1937,1886
1933,1923,1856
1929,1987,1874
1931,1937,1911
1953,1946,1907
1962,1894,1876
1922,1950,1867
1923,1936,1902
1919,1927,1882
1925,1881,1855
1927,1935,1872
1938,1968,1920
1934,1937,1895
1936,1907,1859
1932,2011,1880
1949,1920,1908
1953,1920,1886
1937,1927,1857
1935,1952,1883
1939,1951,1920
1940,1967,1901
1937,1935,1862
1930,1947,1874
1926,1873,1909
1937,1925,1891
1949,1935,1859
1938,1918,1885
1947,1961,1917
1967,1962,1912
1937,1936,1858
1920,1994,1871
1921,1939,1904
1933,1925,1888
1923,1941,1854
1907,1921,1858
1920,1932,1904
1936,1840,1886
1936,1933,1857
1939,1948,1891
1946,1955,1923
1947,1968,1904
1925,1903,1858
1926,1953,1879
1933,1934,1908
1936,1966,1886
1934,1938,1856
1931,1943,1872
1936,1900,1910
1943,1973,1904
1938,1936,1865
1914,1926,1856
1937,1941,1911
1933,1923,1881
1919,1921,1835
1921,1936,1863
1934,1952,1898
1946,1947,1902
1943,1948,1869
1939,1961,1877
1943,1947,1902
1925,1936,1872
1922,1938,1845
1930,1952,1866
1934,1945,1895
1926,1935,1878
1934,1935,1854
1933,1947,1869
1943,1962,1905
1943,1950,1887
1950,1947,1858
1952,1965,1889
1925,1938,1891
1922,1931,1874
1954,1955,1869
1936,1945,1874
1933,1936,1895
1936,1936,1872
1936,1941,1842
1936,1963,1866
1949,1955,1906
1956,1942,1895
1940,1939,1856
1937,1955,1869
1936,1952,1890
1940,1939,1882
1948,1946,1855
1951,1961,1879
1943,1948,1901
1948,1949,1885
1931,1933,1844
1915,1936,1845
1936,1952,1890
1952,1945,1889
1947,1942,1853
1936,1962,1877
1950,1963,1907
1953,1955,1895
1947,1951,1856
1925,1946,1855
1936,1955,1904
1954,1951,1901
1936,1937,1858
1936,1957,1872
1936,1951,1904
1941,1942,1884
1949,1943,1856
1946,1967,1878
1945,1955,1903
1923,1932,1879
1931,1935,1853
1936,1942,1871
1956,1966,1913
1933,1927,1873
1918,1918,1834
1916,1930,1856
1927,1942,1898
1935,1937,1893
1937,1942,1857
1947,1968,1873
1921,1942,1886
1934,1925,1872
1942,1921,1841
1937,1941,1858
1940,1957,1893
1968,1960,1904
1947,1936,1847
1919,1942,1849
1925,1941,1877
1945,1943,1875
1943,1949,1845
1936,1953,1863
1930,1937,1883
1933,1942,1875
1934,1937,1845
1921,1939,1854
1934,1951,1894
1943,1947,1886
1952,1954,1854
1950,1968,1867
1934,1950,1883
1931,1933,1873
1935,1934,1841
1939,1943,1865
1936,1957,1895
1937,1953,1885
1968,1982,1872
1946,1969,1874
1911,1931,1866
1922,1910,1859
1930,1927,1843
1936,1954,1870
1939,1961,1904
1943,1942,1883
1943,1942,1847
1939,1953,1863
1936,1946,1891
1941,1934,1877
1937,1929,1847
1939,1948,1869
1949,1954,1902
1947,1938,1882
1942,1932,1841
1943,1941,1867
1939,1952,1898
1936,1936,1882
1939,1938,1851
1932,1941,1856
1937,1937,1889
1943,1933,1884
1939,1931,1853
1939,1941,1865
1950,1947,1893
1947,1950,1894
1964,1967,1873
1922,1934,1847
1915,1936,1877
1937,1933,1877
1946,1938,1845
1925,1925,1843
1925,1936,1879
1934,1927,1873
1935,1920,1842
1938,1943,1869
1946,1965,1906
1950,1959,1905
1935,1936,1855
1903,1919,1833
1933,1936,1890
1936,1923,1882
1936,1934,1859
1935,1949,1866
1927,1939,1895
1935,1937,1886
1941,1939,1858
1930,1951,1872
1942,1968,1921
1945,1947,1894
1929,1918,1840
1936,1949,1869
1951,1965,1909
1946,1951,1892
1931,1942,1852
1911,1939,1845
1935,1951,1890
1942,1946,1888
1941,1941,1829
1933,1959,1868
1936,1968,1902
1955,1951,1887
1943,1927,1849
1934,1940,1857
1934,1958,1907
1936,1964,1883
1926,1949,1883
1937,1966,1875
1945,1965,1875
1955,1962,1893
1963,1963,1840
1946,1938,1857
1936,1952,1873
1948,1959,1902
1924,1931,1846
1925,1945,1894
1942,1961,1887
1946,1947,1930
1937,1935,1872
1929,1955,1898
1942,1965,1932
1943,1943,1927
1936,1945,1885
1947,1966,1919
1932,1954,1985
1936,1938,1936
1938,1940,1926
1949,1966,1952
1936,1950,1959
1925,1931,1936
1936,1938,1922
1948,1962,1971
1950,1984,2006
1954,1958,1982
1910,1919,1920
1911,1939,1939
1930,1963,2002
1951,1959,2000
1955,1957,1971
1953,1973,2003
1940,1969,2023
1935,1944,1993
1925,1939,1968
1935,1965,1984
1939,1966,2015
1951,1958,2003
1952,1946,1975
1923,1949,2007
1949,1967,2042
1947,1959,1999
1933,1954,1967
1933,1965,1956
1935,1959,2037
1939,1939,1968
1961,1968,1988
1947,1967,1961
1919,1942,1981
1933,1935,1949
1947,1949,1932
1948,1958,1999
1945,1965,1982
1945,1951,1973
1941,1943,1914
1941,1964,1990
1953,1968,2006
1951,1937,1986
1936,1936,1909
1935,1954,1941
1936,1957,1991
1949,1941,2013
1941,1943,1944
1937,1967,1959
1950,1970,1991
1945,1953,1983
1931,1935,1926
1933,1952,1951
1969,1990,1975
1947,1941,1965
1929,1928,1904
1937,1943,1933
1949,1954,1968
1953,1943,1958
1947,1949,1915
1948,1963,1930
1941,1959,1930
1943,1938,1953
1953,1936,1872
1964,1966,1956
1923,1938,1940
1930,1934,1968
1943,1939,1914
1949,1951,1923
1952,1959,1955
1943,1939,1945
1947,1951,1904
1967,1987,1936
1937,1955,1968
1937,1925,1818
1933,1927,1877
1943,1955,1921
1955,1968,1953
1953,1943,1933
1937,1936,1883
1943,1943,1889
1950,1963,1936
1964,1965,1932
1919,1920,1861
1933,1936,1885
1979,1978,1959
1965,1959,1930
1917,1936,1843
1920,1942,1871
1943,1953,1883
1953,1940,1911
1988,1968,1921
1962,1962,1873
1983,1985,1941
2054,2017,1941
1966,1943,1828
2023,2022,1935
1957,1956,1901
1907,1897,1793
1904,1903,1870
1935,1942,1904
2045,2007,1991
1994,1968,1937
1883,1923,1849
1873,1938,1872
1919,1978,1926
1955,2026,1921
1964,2004,1856
1920,1984,1870
1920,2013,1887
1936,2001,1947
1979,2031,1920
2121,2159,1968
2071,2135,1968
1857,2015,1855
1760,1968,1735
1846,2036,1794
2144,2167,2000
2503,2267,2013
1873,2009,1808
1487,1935,1678
1637,2007,1770
1869,2095,1871
2183,2239,1974
2193,2165,1863
1808,2039,1781
1712,2069,1866
1915,2183,1957
2112,2246,2015
2067,2176,1840
1843,2023,1747
1887,2069,1810
2114,2144,1904
2205,2145,2032
2096,2179,1963
1920,2093,1788
1977,2097,1806
1847,2117,1871
1653,2082,1840
1863,2129,1855
2206,2190,1805
2768,2285,1911
2063,2112,1831
1485,2128,1867
1953,2291,2027
2176,2203,1819
2674,2358,1847
2017,2093,1812
1225,1875,1673
1503,2047,1723
2035,2175,1878
2399,2210,1766
2484,2262,1962
1886,2057,1840
1414,2096,1680
1933,2479,1927
2337,2302,1702
1366,1888,1232
1266,1985,1327
1795,2084,1421
1971,2113,1554
1776,2194,1641
2297,2299,1716
1910,2030,1478
1293,1950,1472
1407,2019,1535
1849,2112,1699
2210,2163,1449
1815,2083,1422
1712,2096,1792
1621,2018,1535
1808,2171,1639
2299,2157,1663
1936,2003,1241
2018,2139,1485
1535,1963,1605
1411,1949,1450
1625,1967,1535
1872,2064,1664
2640,2177,1648
2274,2003,1217
1265,1913,1434
1560,1968,1583
2046,2032,1616
1632,1853,1413
1809,1959,1488
2173,2024,1680
2082,2013,1521
1858,1932,1520
1638,1899,1594
1827,1957,1616
2491,2070,1706
1991,1789,1305
1457,1793,1345
1499,1785,1422
1950,1894,1674
2117,1851,1791
1923,1821,1638
1952,1958,1737
2194,1995,1620
1895,1819,1405
1453,1843,1531
1523,1791,1616
2059,1903,1836
2065,1788,1477
1987,1777,1446
1936,1872,1616
2203,1986,1888
1505,1652,1585
1715,1715,1655
2057,1673,1535
1749,1767,1588
1776,1857,1823
1910,1860,1898
1986,1764,1691
2149,1779,1556
1914,1779,1535
1744,1843,1776
1776,1713,1648
2000,1744,1844
2192,1898,1939
2096,1745,1763
1802,1632,1485
1654,1668,1535
1681,1806,1857
2064,1877,1866
1783,1622,1659
2107,1856,1947
2118,1781,1846
1697,1683,1669
1859,1693,1535
2257,1799,1733
2487,1882,2025
1375,1653,1833
1698,1740,1915
1949,1590,1696
1840,1629,1520
1783,1706,1641
1968,1789,1937
1787,1658,1872
2131,1792,1949
2832,1915,2042
1617,1725,1889
1278,1648,1741
1922,1742,1626
2269,1762,1916
1850,1735,1994
1770,1745,1839
1920,1811,1904
2384,1845,1961
1747,1619,1739
1873,1731,1891
2061,1673,1853
1646,1671,1840
1890,1712,2075
2192,1838,1878
2083,1724,1751
2019,1870,2026
2053,1654,1649
1533,1657,1733
2017,1803,2165
1970,1743,2103
1692,1728,2123
1742,1733,1759
2033,1781,1776
2463,1791,1922
1741,1749,1975
1431,1615,1889
1835,1742,1795
2381,1913,1991
2031,1778,1898
1631,1715,1829
1952,1811,1863
2642,1995,2215
2030,1585,1743
1616,1783,1663
1899,1856,2031
2067,1806,2143
1825,1739,1851
2647,1995,2021
2511,1814,1631
1413,1669,1840
1197,1777,2221
1857,1835,2018
2093,1690,1680
1984,1730,1616
2206,1745,1851
2097,1727,1822
1675,1933,2063
1783,1885,2059
1753,1813,1981
1920,1694,1792
1858,1871,1963
2423,2003,2151
2336,1691,1658
1986,1808,1775
1369,1795,1962
2061,1809,2331
1986,1717,1776
1936,1773,1600
1605,1776,1787
2453,2057,2167
2230,1715,1939
1290,1623,1890
1382,1803,1934
2401,1991,1901
2502,1899,2219
1920,1810,1923
1648,1758,1600
2297,1958,2116
2383,1844,2092
1339,1628,1889
1226,1773,1902
1857,1799,1907
2406,1989,2035
1921,1875,2053
1569,1827,1970
2106,1858,2112
2098,1858,1983
1627,1701,1662
1776,1748,1835
2306,1907,2071
2086,1805,2327
1650,1874,2122
1705,1901,1803
2096,1963,1939
2373,1884,2087
2079,1689,1676
1501,1826,1671
1581,1883,1968
1914,1893,2357
2223,1855,2077
1923,1878,1913
2647,2002,2241
1895,1657,1680
1175,1749,1739
1682,1876,2005
2112,1834,2066
1809,1873,2002
1967,1931,1999
2287,1890,2083
2450,1845,2242
1751,1723,1918
1489,1808,1771
1803,1819,1761
1936,1894,2159
2270,1890,2283
2276,1744,1856
1792,2005,1997
1995,1980,1872
2033,1723,1770
1385,1644,1805
1444,1785,1951
1968,1874,2099
2006,1858,2069
2112,1858,2099
2220,1870,2062
2034,1927,2128
1752,1886,1979
2125,1962,1949
2000,1874,1817
1717,1763,1908
1765,1776,2082
1983,1857,1971
2033,1845,1904
2257,1929,2132
2187,1802,2288
1488,1773,1822
1739,1961,1839
2252,1919,1979
1875,1767,1867
1834,1767,1839
1729,1882,2027
1895,1955,2185
2298,1985,2109
2287,1910,1898
1843,1784,1765
1535,1856,1958
1826,1857,2119
2271,1930,2171
2411,1856,2043
1815,1813,1856
1837,1903,1967
1912,1923,2061
1819,1857,1953
1993,1909,2006
2224,1877,1953
2030,1798,1776
1738,1817,1802
1744,1886,2042
2272,1920,2103
2112,1854,2144
1712,1910,1984
1747,1931,1984
2023,1872,1984
2019,1826,1783
2002,1812,1742
1907,1930,2084
2254,2083,2381
1934,1835,2000
1708,1827,1888
1894,1893,1954
2208,1900,2068
2185,1949,1888
1738,1857,1801
1689,1865,1967
2118,2021,2128
2345,1978,2183
1943,1754,1787
1662,1872,1758
1714,1920,2017
1790,1837,2085
2006,1962,2080
2028,1915,1968
2026,1931,1979
2014,1954,1974
1907,1849,1975
1918,1907,1995
1984,1935,1973
2001,1936,2046
2117,1989,2098
2118,1970,2059
2157,2088,2221
2258,2014,2074
2067,1840,1771
1680,1792,1852
1743,1845,2020
1823,1841,1871
1924,2013,2093
2188,2017,2086
2448,1968,2011
2238,1942,2170
1918,1930,1967
1657,1877,1854
1904,1865,1930
1808,1898,1874
1878,1931,1882
2559,2129,2174
2307,1938,1883
1492,1823,1808
1462,1842,1991
2043,1909,2058
2277,1904,1920
1871,1838,1852
1647,1918,1870
2039,2030,2103
2341,2019,2079
2091,1957,1987
1892,1963,1987
2042,1923,2064
2155,1924,2039
1718,1829,1707
1697,1930,1765
2167,2000,1949
2084,1963,2073
1907,2035,2138
2037,1968,2078
1991,1919,1983
1883,1859,1909
1907,1947,1901
1943,1945,2000
1971,1981,2062
2123,2006,2026
2133,1948,1969
1984,1981,1872
1877,1894,1887
1856,1922,1968
1925,1929,1952
2254,1999,1984
2177,1995,1887
2055,1920,2053
2081,1934,1978
1856,1962,1879
2021,2033,2067
2123,2015,2024
1861,1838,1855
1941,1930,1840
2090,2033,2058
1894,1949,2057
1825,1933,1973
2031,1950,2095
1961,1955,1920
1999,1905,1691
2001,1925,1741
1820,1935,1983
2066,2022,2123
2155,1952,1950
2096,2011,1858
1975,1991,1963
2007,2021,2032
1975,1929,2126
1904,1855,1794
1886,1942,1729
1872,2069,1882
2103,1938,1930
2153,2034,1941
2023,1991,2031
1821,1904,1968
1845,1883,1957
2096,1957,1871
2112,1907,1904
1977,2011,1993
1810,1985,1882
1789,1936,1882
1888,1957,1893
2030,2001,1959
2154,2062,2106
2130,2013,1933
2192,2005,1922
1924,1984,1963
1745,1919,1969
1852,1952,1892
2083,2036,1885
2066,2011,1872
1997,2001,2006
1991,1998,1971
2273,2115,1951
2309,1989,1807
1951,1858,1870
1712,1903,1968
1690,1974,1936
1914,2015,2071
1952,1995,1981
2009,2011,1963
1982,2026,1797
2043,2034,1760
2198,2096,1936
2133,1975,1913
1937,1930,2015
2041,2038,2038
2000,1935,1808
1930,1920,1780
1936,1971,1856
1891,2009,1930
1983,2000,1962
2192,1908,1821
2086,2059,1934
1965,1943,1966
1951,2006,1990
1858,1934,1870
1763,1867,1766
1987,1969,1840
2110,1984,1935
2087,2031,2013
1883,2006,1958
1958,2062,1951
2203,2037,1906
1824,1905,1743
1747,1985,1875
1792,1966,1955
2037,1980,1943
2196,1989,1898
2176,1973,1746
2032,1965,1888
1952,2005,1936
1743,1980,1840
1713,1979,1940
2054,1998,1998
2183,2003,2010
1963,1984,1865
2139,2015,1776
1985,1962,1713
1802,1945,1867
1899,2067,2018
1872,1939,1933
2148,2061,1949
2171,2000,1872
1807,1968,1813
2057,2093,2000
2011,1949,1874
1858,1867,1897
1767,1814,1845
1911,2000,1968
1949,2005,1871
1931,1934,1812
2194,2001,1850
2292,2036,1801
1990,1993,2055
1694,1923,1978
1808,1973,1883
2135,2119,1931
2029,2011,1936
2074,2032,1978
1844,1949,1842
1885,1964,1809
2027,2017,1885
2163,2086,1937
2338,2001,1846
1792,1957,1909
1827,2035,2037
1924,1931,1861
1917,1989,1955
2144,2021,2055
2047,1936,1799
2023,1928,1627
1797,1961,1885
1770,1980,2071
2096,2148,2093
2136,1936,1774
1964,1935,1771
1990,1993,1989
1926,2019,1985
2085,2006,1825
2186,1979,1872
2092,2071,2032
1762,1981,1917
1775,1959,1819
1945,2011,1893
1904,2070,1914
1922,1935,1867
2096,1927,1872
2159,2021,1775
2017,2039,1826
1847,1979,1903
1789,1943,1936
1895,1975,1920
2263,2042,1919
1993,1921,1818
1695,1930,1968
1765,1991,1928
2113,2013,1893
2225,1977,1983
2046,1968,1872
1885,2006,1774
2099,2058,1826
1840,2000,1919
1727,1934,2025
1894,1991,1913
2224,2014,1751
2064,1954,1830
1906,1872,1950
1968,2000,1936
2047,1983,1718
1785,1947,1729
1727,1920,1858
2042,2024,1968
2174,1975,1910
1831,1920,1920
1808,2033,1982
2094,2016,1984
2147,2047,1814
2065,1991,1808
1731,1961,1866
1699,1955,1855
2029,2041,1953
2266,2064,1876
2131,1984,1850
1965,1958,1946
1775,1973,1870
1793,1981,1878
2026,1979,1844
2115,1988,1828
2064,1870,1791
1887,1903,1877
1807,1979,1887
2086,2113,2064
1955,1968,1872
1954,1949,1841
1957,1915,1791
1839,1879,1782
1872,1980,1986
1987,2038,1929
1897,1984,1836
1917,1945,1875
2214,2015,1947
2237,2003,1909
1858,1968,1940
1632,1904,1904
1838,1984,1794
2061,2001,1810
2015,1936,1823
1884,1894,1779
1869,1990,1902
1905,2000,1937
2112,1934,1903
2392,1927,1808
1754,1899,1744
1575,1946,1969
1828,1984,1984
2123,2038,1895
2192,2037,1775
1970,1936,1799
1779,1910,1889
2015,1978,1884
2108,1962,1866
1808,1882,1895
1630,1892,1963
1776,1960,1899
2088,1911,1777
2224,1979,1743
1870,1920,1772
1839,1954,1904
2007,1975,1914
2122,1939,1847
1826,1936,1854
1920,1974,1974
1918,1946,1836
1815,1951,1842
1845,1924,1907
1856,1911,1829
2162,1980,1818
2355,2023,1814
1839,1962,1890
1722,1929,1907
1873,1920,1901
1898,1937,1978
1979,1979,1960
1994,1904,1671
1895,1907,1773
1954,1945,1879
2035,1983,1951
1936,1919,1823
1922,1973,1833
1915,1972,1939
1935,1975,2013
1987,1957,1862
2007,1904,1831
1919,1921,1845
1705,1942,1922
1823,1968,1787
2163,1997,1773
2091,1887,1759
1867,1942,1931
2035,2015,1957
1856,1883,1837
1682,1876,1897
1821,1949,1971
2090,2011,1958
2073,2009,1917
1982,1957,1808
2005,1856,1772
1923,1914,1799
1866,1959,1791
1980,2029,2055
1907,1887,1904
1886,1904,1930
1904,1940,1817
2083,1996,1836
1880,1912,1845
1771,1894,1842
1845,1951,1903
2142,2027,1998
2370,2016,1904
1808,1841,1839
1610,1857,1847
1765,1930,1894
1878,1910,1776
2019,2001,1879
2186,2025,1909
1897,1878,1893
1899,1899,1915
2047,1925,1741
2027,1982,1872
1939,1949,1951
1877,1955,2022
1931,1923,2011
2025,1943,1733
1877,1958,1699
1978,1961,1919
1983,1920,1899
1936,1951,1936
1854,1914,1821
1727,1877,1837
1913,1872,1872
2027,1937,1967
1975,1969,1959
1933,1985,1846
1913,1968,1777
2176,1991,1825
2015,1899,1792
1666,1833,1877
1808,1926,1904
2009,1958,1920
1968,1949,1968
1955,1889,1887
1968,1937,1938
1947,1957,1902
1938,1955,1808
1963,1938,1801
2137,2000,1915
1990,1942,1909
1741,1861,1811
1767,1910,1872
2002,1973,1957
2000,1973,1918
2131,2037,1915
2215,1949,1827
1753,1821,1762
1675,1875,1863
1807,1919,1901
2081,1959,1908
2100,1934,1842
1898,1901,1783
1852,1917,1902
1877,1958,1991
1983,1981,1998
2007,1967,1856
1983,1933,1853
1935,1919,1872
1936,1875,1756
1863,1894,1829
2009,1981,1987
1876,1856,1808
1845,1873,1687
1798,1890,1907
1904,1957,2019
2190,2055,2000
2132,1961,1840
1809,1945,1898
1847,1920,1856
2100,1934,1950
2140,1801,1598
1745,1873,1837
1649,1939,2023
1902,1939,1911
2128,1963,1934
2011,1959,1869
1857,1920,1808
1865,1950,1906
1907,1903,1872
2023,1987,1901
2091,1972,1814
2197,1951,1915
1822,1859,1765
1739,1879,1890
1843,1909,1853
1877,1935,1922
2000,1957,1875
2255,1997,1871
1827,1927,1813
1750,1935,1927
1818,1871,1845
1968,1854,1733
2077,1951,2032
2181,2016,2094
1911,1920,1803
1712,1897,1686
1857,1936,1818
1953,1888,1943
1958,1946,1958
1966,1941,1861
1936,1968,1924
2032,1968,1931
2133,1941,1799
1767,1937,1872
1651,1874,1833
1980,1937,1893
1971,1973,1923
1959,1966,1872
1921,1873,1865
2046,1914,1840
1936,1951,1890
2070,2014,1948
2112,1999,1887
1837,1872,1861
1584,1802,1695
1713,1872,1744
1969,1968,1952
2410,2011,1923
2464,1943,1911
1615,1875,1919
1606,1936,1968
2075,1998,1814
2069,1922,1805
1759,1893,1824
1929,1984,1998
2029,1968,1903
1837,1916,1831
1855,1932,1936
2157,1986,1979
2118,1886,1804
2090,1995,1972
1858,1857,1936
1728,1840,1841
1840,1904,1811
2119,1965,1929
1977,1907,1827
1771,1919,1764
1836,1981,1915
2021,1904,1783
2043,1936,1906
1951,1975,2007
2128,1979,1986
1968,1962,1877
1946,1982,1926
1724,1879,1808
1758,1925,1972
2064,1921,1872
2125,1951,1827
1722,1881,1821
1796,1898,1785
1929,1943,1751
2055,1954,1811
2046,1995,1968
2053,1936,2006
2010,1943,1982
1904,1937,1872
1811,1962,1840
1796,1937,1945
