1372,1477,1298
1345,1472,1313
1345,1456,1344
1398,1509,1387
1392,1510,1364
1315,1439,1296
1322,1437,1327
1353,1468,1354
1374,1493,1359
1373,1499,1359
1364,1495,1381
1371,1488,1365
1371,1499,1368
1378,1520,1372
1381,1520,1392
1376,1519,1379
1402,1531,1379
1398,1553,1381
1345,1511,1371
1331,1472,1331
1343,1503,1329
1374,1535,1383
1374,1534,1420
1349,1502,1372
1349,1513,1351
1360,1531,1375
1376,1535,1424
1387,1535,1417
1359,1526,1365
1349,1527,1381
1367,1533,1424
1383,1535,1451
1376,1558,1399
1394,1570,1406
1377,1561,1419
1357,1526,1411
1351,1530,1375
1376,1563,1407
1410,1585,1469
1424,1600,1466
1370,1572,1403
1383,1594,1424
1391,1571,1453
1312,1485,1374
1344,1520,1378
1371,1535,1408
1369,1555,1445
1360,1559,1443
1358,1567,1410
1369,1584,1441
1362,1577,1463
1366,1591,1475
1345,1570,1401
1311,1533,1364
1337,1535,1414
1337,1535,1406
1324,1526,1377
1334,1535,1406
1355,1558,1447
1338,1535,1424
1369,1611,1437
1304,1520,1373
1249,1469,1369
1284,1505,1399
1303,1535,1392
1319,1557,1419
1311,1533,1450
1336,1559,1456
1353,1583,1441
1387,1609,1466
1392,1631,1519
1390,1637,1515
1390,1637,1488
1405,1636,1488
1424,1652,1535
1435,1665,1567
1456,1683,1581
1456,1694,1565
1460,1707,1594
1494,1744,1622
1481,1731,1593
1507,1735,1610
1527,1744,1649
1505,1748,1653
1582,1825,1703
1620,1863,1745
1685,1909,1835
1735,1938,1865
1771,1984,1861
1826,2053,1920
1866,2112,2016
1892,2135,2043
1939,2176,2045
2000,2230,2112
2063,2267,2183
2096,2299,2209
2113,2319,2206
2135,2352,2224
2171,2385,2277
2188,2403,2287
2188,2409,2288
2208,2415,2280
2259,2448,2368
2259,2459,2361
2249,2459,2345
2262,2467,2309
2315,2511,2391
2350,2535,2427
2358,2540,2412
2385,2557,2415
2365,2559,2429
2368,2559,2480
2354,2540,2409
2388,2554,2426
2419,2580,2446
2413,2559,2480
2410,2592,2448
2390,2559,2474
2400,2559,2448
2406,2559,2445
2423,2559,2431
2448,2593,2457
2431,2559,2496
2432,2551,2449
2441,2559,2442
2448,2559,2439
2455,2559,2474
2445,2545,2428
2433,2546,2397
2448,2559,2438
2466,2559,2465
2463,2557,2505
2437,2523,2394
2455,2527,2432
2453,2529,2438
2431,2516,2423
2427,2501,2371
2466,2544,2432
2495,2553,2463
2418,2474,2398
2380,2445,2349
2401,2448,2352
2443,2474,2407
2448,2489,2425
2405,2461,2321
2397,2461,2322
2397,2433,2352
2415,2442,2377
2407,2442,2306
2417,2449,2340
2423,2444,2365
2415,2423,2317
2398,2410,2320
2409,2418,2311
2443,2445,2416
2398,2379,2318
2359,2364,2206
2384,2378,2242
2402,2384,2323
2386,2371,2265
2355,2351,2211
2377,2362,2279
2382,2352,2286
2383,2352,2297
2369,2343,2173
2311,2302,2173
2321,2287,2198
2335,2286,2160
2333,2290,2192
2352,2301,2224
2338,2291,2214
2325,2281,2206
2334,2294,2172
2319,2271,2158
2335,2267,2198
2302,2224,2148
2282,2223,2114
2294,2235,2131
2317,2238,2175
2315,2237,2165
2295,2224,2118
2301,2235,2150
2310,2229,2158
2267,2192,2112
2256,2187,2068
2275,2201,2111
2295,2213,2122
2294,2192,2119
2262,2166,2054
2243,2155,2064
2251,2157,2071
2229,2129,2084
2219,2128,2028
2251,2157,2149
2277,2165,2115
2229,2112,2046
2183,2079,1963
2198,2091,1983
2224,2110,2047
2265,2137,2083
2219,2102,1999
2174,2082,1987
2184,2079,2021
2214,2083,2023
2198,2073,1970
2173,2066,1978
2185,2064,2011
2193,2063,1979
2178,2059,1970
2202,2072,1990
2197,2056,1973
2176,2027,2004
2146,2006,1840
2157,2031,1953
2170,2037,1940
2189,2065,2019
2133,2003,1922
2113,1974,1902
2119,1982,1881
2139,2001,1890
2135,2004,1925
2129,1996,1915
2128,1983,1963
2112,1974,1954
2112,1967,1904
2128,1977,1894
2131,1981,1947
2112,1959,1907
2096,1964,1905
2112,1968,1905
2126,1970,1947
2106,1959,1920
2087,1949,1840
2105,1965,1823
2095,1956,1941
2093,1936,1873
2040,1897,1824
2035,1889,1815
2071,1906,1877
2096,1935,1891
2077,1933,1868
2064,1923,1840
2070,1911,1872
2066,1904,1867
2061,1904,1754
2079,1914,1855
2073,1912,1872
2062,1905,1855
2058,1900,1810
2038,1887,1792
2045,1891,1856
2045,1897,1830
2047,1927,1846
2030,1903,1833
2001,1872,1837
1990,1847,1786
2003,1861,1835
2045,1894,1811
2061,1904,1879
2018,1871,1734
2010,1877,1782
2009,1887,1815
2018,1885,1850
2026,1876,1823
2022,1883,1797
2007,1882,1809
1998,1877,1841
1995,1873,1837
2006,1872,1806
2016,1871,1835
2000,1861,1827
1979,1846,1803
1981,1853,1769
2003,1873,1821
2032,1901,1863
2006,1870,1825
1955,1837,1763
1955,1836,1776
1968,1839,1808
1977,1840,1801
1971,1843,1773
1995,1871,1806
2031,1898,1863
1979,1843,1809
1954,1823,1776
1951,1826,1763
1947,1824,1791
1951,1835,1797
1961,1838,1767
1961,1847,1783
1961,1829,1803
1938,1810,1777
1939,1822,1774
1951,1829,1776
1963,1833,1808
1977,1826,1792
1895,1829,1755
1949,1858,1791
1999,1860,1824
1899,1840,1787
1917,1842,1751
1878,1810,1730
1919,1802,1755
1882,1816,1767
1945,1843,1774
1951,1862,1779
1961,1879,1806
1913,1867,1782
1872,1838,1733
1925,1855,1754
1944,1863,1804
1885,1855,1794
1889,1840,1744
1890,1853,1745
1905,1847,1777
1895,1849,1773
1887,1855,1743
1907,1886,1778
1936,1920,1870
1899,1837,1751
1865,1796,1670
1921,1824,1717
1899,1864,1805
1897,1858,1787
1827,1816,1712
1821,1824,1729
1907,1852,1789
1915,1843,1781
1887,1850,1743
1877,1861,1759
1878,1842,1786
1863,1837,1761
1831,1814,1707
1838,1836,1730
1872,1856,1786
1863,1847,1763
1828,1854,1744
1876,1847,1808
1846,1838,1910
1862,1856,1966
1847,1842,1984
1847,1826,2059
1851,1831,2130
1879,1840,2157
1836,1817,2128
1797,1825,2166
1837,1825,2238
1846,1815,2215
1815,1808,2173
1847,1822,2210
1866,1835,2259
1851,1847,2254
1815,1859,2224
1763,1818,2213
1765,1792,2217
1756,1801,2213
1779,1835,2207
1812,1826,2218
1799,1811,2234
1790,1791,2195
1778,1793,2155
1793,1809,2179
1831,1837,2224
1833,1841,2206
1839,1830,2169
1782,1824,2153
1810,1812,2160
1841,1813,2135
1820,1823,2121
1829,1842,2137
1808,1824,2160
1821,1830,2135
1810,1823,2070
1803,1822,2069
1818,1830,2114
1810,1840,2102
1776,1806,2029
1776,1796,2032
1831,1840,2099
1792,1837,2081
1859,1789,1984
1727,1808,2014
1846,1855,2083
1831,1840,2054
1779,1815,1982
1783,1818,1966
1808,1813,1981
1840,1808,1975
1777,1825,1941
1814,1840,1963
1809,1825,1982
1811,1830,1968
1834,1862,1958
1796,1819,1930
1781,1799,1929
1806,1823,1933
1810,1834,1915
1823,1845,1937
1822,1834,1919
1776,1819,1888
1793,1827,1876
1802,1858,1918
1825,1840,1923
1824,1829,1891
1814,1821,1840
1871,1840,1840
1839,1823,1867
1802,1830,1867
1749,1840,1840
1810,1846,1854
1785,1812,1854
1776,1795,1820
1779,1814,1798
1807,1847,1840
1827,1847,1866
1826,1824,1840
1801,1833,1811
1780,1847,1817
1845,1876,1862
1803,1833,1808
1776,1818,1757
1823,1840,1790
1853,1856,1840
1808,1843,1810
1835,1838,1757
1795,1850,1771
1819,1859,1815
1821,1859,1808
1782,1855,1756
1765,1840,1746
1744,1837,1773
1789,1839,1757
1802,1841,1731
1822,1860,1762
1826,1869,1792
1819,1859,1774
1827,1886,1773
1844,1862,1750
1777,1839,1758
1798,1855,1777
1808,1868,1737
1798,1861,1725
1799,1845,1742
1791,1855,1744
1839,1829,1687
1780,1844,1712
1798,1859,1758
1819,1882,1759
1818,1872,1717
1812,1861,1709
1823,1861,1742
1839,1862,1749
1781,1871,1722
1821,1869,1712
1815,1869,1760
1828,1875,1757
1835,1876,1712
1814,1859,1703
1781,1840,1722
1791,1850,1719
1820,1871,1719
1850,1893,1731
1815,1854,1726
1776,1813,1685
1769,1819,1657
1797,1847,1693
1817,1862,1737
1830,1869,1730
1826,1866,1702
1830,1871,1719
1819,1860,1734
1817,1862,1717
1818,1872,1683
1850,1885,1714
1835,1883,1740
1806,1869,1717
1803,1865,1680
1840,1885,1719
1840,1885,1755
1829,1885,1745
1859,1921,1709
1790,1842,1651
1761,1819,1675
1801,1846,1711
1826,1867,1680
1839,1892,1699
1813,1874,1724
1792,1858,1702
1803,1870,1679
1826,1888,1706
1831,1892,1748
1813,1874,1719
1806,1870,1680
1818,1886,1694
1831,1906,1745
1840,1901,1741
1856,1909,1711
1840,1890,1685
1825,1894,1734
1791,1885,1702
1808,1904,1687
1837,1929,1726
1804,1889,1700
1759,1853,1655
1776,1882,1675
1826,1919,1728
1847,1937,1776
1813,1920,1712
1828,1924,1695
1850,1936,1712
1825,1937,1737
1811,1936,1730
1830,1947,1728
1860,1957,1739
1825,1920,1712
1811,1921,1703
1815,1936,1686
1838,1948,1715
1872,1964,1764
1823,1941,1721
1787,1934,1679
1809,1943,1703
1823,1938,1727
1802,1920,1699
1817,1943,1693
1837,1968,1741
1874,1993,1783
1867,1989,1713
1797,1951,1664
1798,1955,1692
1838,1968,1745
1849,1985,1746
1847,1996,1722
1845,1995,1719
1842,1994,1750
1840,2001,1746
1853,2003,1727
1843,2011,1729
1854,2011,1778
1846,2012,1739
1867,2009,1721
1801,1947,1677
1810,1967,1738
1824,1974,1745
1834,1987,1719
1872,2011,1757
1868,2005,1787
1841,1998,1790
1796,1952,1683
1805,1968,1706
1823,1977,1758
1835,1991,1761
1853,2012,1754
1861,2018,1765
1856,2019,1776
1855,2032,1776
1847,2033,1743
1860,2033,1756
1875,2037,1795
1849,2039,1778
1812,2011,1727
1818,2001,1730
1851,2027,1779
1858,2039,1774
1859,2061,1757
1840,2042,1776
1840,2054,1791
1817,2045,1748
1827,2096,1744
1850,2128,1776
1853,2145,1806
1855,2160,1791
1852,2186,1745
1866,2197,1763
1879,2224,1811
1877,2241,1808
1840,2242,1754
1879,2288,1795
1858,2260,1808
1786,2185,1713
1781,2196,1695
1840,2254,1761
1874,2292,1821
1851,2260,1788
1843,2265,1746
1870,2281,1776
1870,2293,1807
1869,2291,1791
1839,2287,1738
1844,2287,1774
1856,2304,1821
1878,2319,1824
1857,2290,1770
1845,2282,1766
1881,2293,1829
1925,2335,1858
1871,2280,1776
1817,2229,1733
1792,2210,1746
1829,2243,1781
1846,2256,1783
1876,2279,1802
1865,2258,1819
1846,2247,1799
1840,2254,1776
1877,2301,1811
1883,2256,1840
1883,2258,1835
1870,2267,1797
1870,2234,1804
1847,2211,1814
1838,2173,1778
1829,2225,1756
1867,2224,1802
1883,2237,1851
1853,2227,1808
1850,2206,1783
1876,2245,1817
1899,2192,1845
1901,2198,1825
1888,2147,1808
1891,2193,1839
1871,2185,1825
1872,2193,1808
1898,2160,1821
1898,2192,1837
1865,2130,1833
1867,2153,1826
1871,2157,1803
1886,2142,1823
1901,2130,1863
1895,2147,1856
1840,2102,1774
1854,2091,1795
1873,2112,1840
1886,2112,1840
1870,2100,1806
1878,2109,1818
1879,2121,1851
1870,2064,1821
1872,2047,1799
1872,2069,1839
1882,2067,1859
1894,2084,1856
1915,2095,1866
1840,2030,1789
1840,2012,1793
1856,2034,1812
1883,2054,1818
1904,2085,1857
1877,2042,1867
1869,2032,1840
1863,2030,1808
1865,2002,1792
1887,2022,1846
1889,1984,1842
1878,2019,1826
1872,2002,1824
1869,1980,1849
1872,1998,1859
1861,2007,1814
1867,2029,1820
1895,1989,1856
1920,2001,1883
1858,1931,1792
1840,1938,1789
1877,1965,1855
1903,1965,1866
1906,1990,1839
1902,1951,1849
1863,1986,1842
1877,1947,1849
1861,1924,1815
1869,1931,1808
1891,1903,1865
1904,1943,1873
1899,1939,1840
1890,1921,1838
1901,1945,1872
1879,1919,1849
1874,1917,1822
1887,1935,1853
1905,1933,1901
1906,1986,1886
1898,1921,1840
1905,1931,1861
1906,1923,1890
1895,1900,1846
1872,1893,1811
1886,1893,1855
1911,1911,1903
1919,1921,1894
1888,1920,1840
1879,1901,1840
1907,1889,1899
1850,1843,1810
1839,1839,1776
1869,1845,1817
1891,1872,1872
1909,1871,1887
1903,1979,1862
1905,1934,1871
1907,1871,1897
1904,1872,1890
1899,1878,1823
1906,1861,1850
1917,1872,1889
1906,1869,1872
1886,1863,1834
1919,1878,1871
1941,1903,1929
1913,1873,1890
1856,1843,1802
1878,1852,1835
1890,1821,1871
1885,1851,1872
1901,1878,1827
1929,1830,1861
1898,1831,1863
1904,1882,1872
1920,1871,1861
1886,1831,1837
1895,1875,1883
1891,1806,1872
1904,1845,1854
1915,1815,1863
1901,1840,1876
1905,1838,1895
1926,1858,1867
1911,1871,1853
1911,1888,1882
1906,1847,1861
1893,1860,1828
1882,1827,1834
1915,1898,1894
1919,1762,1882
1895,1901,1855
1912,1887,1872
1873,1808,1862
1875,1809,1843
1890,1819,1835
1903,1811,1861
1931,1887,1927
1920,1902,1885
1904,1791,1838
1891,1817,1851
1873,1787,1863
1872,1788,1850
1891,1806,1833
1936,1776,1894
1906,1805,1901
1887,1804,1875
1914,1735,1867
1921,1850,1875
1951,1843,1936
1927,1872,1909
1861,1750,1807
1865,1788,1804
1887,1834,1857
1900,1795,1849
1905,1782,1829
1920,1812,1862
1918,1807,1890
1899,1773,1872
1904,1793,1853
1919,1808,1862
1914,1782,1874
1936,1831,1887
1949,1837,1872
1922,1822,1861
1950,1840,1904
1904,1797,1872
1833,1750,1783
1828,1755,1815
1904,1802,1871
1934,1825,1871
1869,1789,1800
1872,1797,1838
1879,1797,1863
1887,1808,1853
1979,1886,1914
1950,1843,1885
1846,1755,1810
1861,1790,1824
1863,1806,1824
1853,1775,1814
1888,1787,1846
1938,1816,1846
1939,1844,1810
1968,1854,1846
1955,1865,1954
1883,1840,1891
1955,1846,1840
1919,1751,1755
2102,1858,1839
2377,1968,1975
1875,1835,1853
1643,1764,1761
1738,1780,1850
1935,1866,1903
1947,1807,1748
2006,1816,1718
1890,1769,1833
1791,1767,1883
1947,1893,1872
2149,1919,1745
2237,1830,1792
1904,1791,1712
1648,1794,1792
1647,1868,2010
1805,1905,1984
1931,1902,1810
2030,1886,1860
1971,1851,1847
1829,1796,1728
1757,1760,1695
1760,1791,1648
2014,1929,1747
1776,1717,1681
1713,1837,1783
1840,1952,2005
1784,1873,1826
2073,1920,1791
1982,1820,1747
1617,1765,1839
1581,1791,1729
1570,1744,1558
1745,1881,1702
1849,1877,1708
1866,1904,1773
1703,1809,1808
1535,1759,1675
1693,1756,1525
1651,1781,1801
1872,1879,1823
2235,1982,1733
1883,1816,1769
1407,1742,1773
1338,1756,1724
1556,1807,1533
1675,1815,1575
1882,1831,1711
2154,1904,1685
1683,1779,1555
1594,1831,1644
1775,1808,1561
1937,1925,1846
1696,1809,1648
2077,1970,1725
1936,1741,1506
1319,1654,1445
1535,1778,1600
1681,1766,1570
1657,1807,1643
1751,1815,1766
1843,1776,1633
2288,1882,1595
1891,1782,1658
1379,1653,1571
1239,1715,1645
1581,1811,1679
1872,1815,1687
2064,1756,1643
2106,1724,1586
1301,1602,1535
1440,1685,1734
1888,1735,1648
1679,1686,1650
1491,1649,1667
1635,1665,1702
1703,1648,1670
1654,1616,1594
1601,1599,1402
1445,1501,1434
1664,1565,1615
1616,1447,1502
1413,1386,1442
1317,1430,1488
1424,1446,1534
1515,1482,1487
1535,1430,1381
1474,1408,1402
1472,1435,1514
1357,1286,1361
1331,1327,1365
1418,1350,1366
1322,1301,1397
1218,1227,1318
1269,1315,1328
1391,1347,1379
1374,1263,1392
1241,1179,1295
1186,1205,1296
1188,1195,1235
1264,1235,1301
1264,1261,1344
1317,1261,1237
1238,1180,1179
1250,1224,1309
1191,1189,1283
1282,1166,1185
1243,1186,1111
1147,1186,1195
1168,1200,1200
1165,1150,1040
1197,1135,1040
1168,1183,1136
1164,1211,1117
1141,1184,1094
1232,1184,1123
1230,1166,1119
1303,1189,1107
1246,1197,1104
1179,1207,1040
1073,1186,1050
1062,1164,976
1223,1232,1089
1267,1238,1195
1071,1144,1152
1042,1167,1008
1149,1223,1046
1263,1269,1153
1251,1232,1232
1264,1225,1169
1356,1217,1092
1301,1255,1087
1374,1328,1239
1249,1268,1248
1072,1237,1233
1117,1264,1137
1394,1319,1105
1322,1323,1192
1173,1274,1201
1173,1292,1230
1357,1410,1297
1366,1345,1263
1318,1279,1187
1296,1343,1296
1431,1474,1478
1264,1334,1259
1204,1301,1173
1375,1417,1330
1347,1414,1426
1342,1406,1405
1389,1379,1254
1330,1424,1267
1331,1459,1376
1371,1465,1455
1448,1506,1486
1475,1519,1373
1401,1474,1415
1340,1453,1444
1399,1503,1425
1445,1525,1484
1492,1535,1535
1413,1532,1491
1343,1491,1414
1527,1519,1403
1491,1577,1530
1424,1596,1616
1603,1613,1581
1521,1561,1527
1334,1558,1603
1327,1587,1535
1488,1646,1495
1578,1681,1634
1571,1649,1691
1646,1648,1632
1563,1659,1571
1424,1645,1591
1573,1683,1619
1489,1612,1535
1445,1673,1662
1519,1710,1725
1565,1728,1792
1638,1744,1727
1670,1779,1708
1679,1770,1700
1712,1751,1664
1575,1708,1711
1721,1764,1808
1677,1734,1776
1563,1728,1806
1483,1716,1817
1584,1809,1687
1648,1820,1655
1790,1857,1847
1662,1823,1822
1565,1776,1771
1733,1854,1904
1790,1807,1839
1773,1825,1847
1689,1861,1922
1595,1875,1984
1699,1882,1892
1796,1918,1812
1745,1815,1773
1578,1786,1849
1679,1867,1908
1776,1890,1909
1771,1892,1905
1759,1903,1900
1773,1907,1897
1719,1913,1914
1779,1938,2058
1870,1986,2082
1868,1987,2042
1863,1963,1917
1808,1891,1820
1787,1906,1903
1772,1942,2081
1840,1969,2047
1850,2017,1979
1762,2000,2002
1793,1970,2054
1872,1936,1920
1904,1954,2000
1857,1962,2080
1842,1954,1962
1979,1983,2019
1925,1951,1931
1721,1915,1885
1712,1997,2063
1755,1985,2037
1895,2067,2135
1987,2093,2137
2071,2114,2151
2019,1997,1984
1734,2013,1987
1663,2014,2003
1866,2005,2034
2150,2009,1973
1930,2015,1997
1805,2017,2113
1955,2096,2211
1939,2045,2191
1799,2021,2031
1834,2053,2058
1989,2074,2096
1973,2032,2045
2038,2065,2011
2080,2063,2024
1918,2075,2039
1839,2066,2205
1909,2042,2071
1984,2078,2075
2183,2135,2139
2013,2055,2112
1825,1941,1792
1941,2129,2144
1953,2062,2158
1904,2018,2118
1939,2023,2091
1968,2032,2045
1967,2112,2110
2069,2157,2187
1862,1991,1919
2032,2116,2161
2211,2108,2219
1770,2000,2095
1744,2006,1961
1905,2075,1989
2064,2140,2174
2189,2162,2278
2650,2208,2230
1985,2038,1990
1584,1980,1895
1761,1991,1997
2062,2061,2097
2125,2123,2219
2320,2176,2186
2134,2160,2181
2029,2122,2181
2000,2099,2035
1871,1983,1904
1903,1980,1979
2069,2146,2179
2171,2171,2158
2117,2112,2138
2205,2141,2256
2012,2011,1999
1712,1914,1851
1872,2006,2071
2111,2116,2367
2165,2079,2256
2129,2133,2107
1983,2146,2173
2194,2192,2176
2323,2157,2032
1899,2006,1982
1954,2112,2213
1942,2070,2131
2117,2027,2000
2162,2128,2281
2068,2126,2192
1934,2009,2096
1932,2004,1971
1928,2082,1915
2063,2149,2165
2191,2130,2366
2333,2151,2204
2117,2085,2064
2000,2106,2204
2158,2096,2075
2183,2054,1911
1904,1942,2013
2085,2085,2219
2239,2119,2307
2112,2069,2250
2064,2111,2083
1891,2025,1911
2160,2065,1904
2223,2006,1982
1827,1993,2173
1942,2077,2251
2223,2116,2155
2017,2005,1984
1885,1999,2070
2083,2094,1998
2501,2192,2093
2252,2011,1952
1741,1963,2135
1798,2067,2078
2093,2036,2015
2370,2145,2195
2255,2070,2064
1863,1995,2000
1883,1963,2064
2075,2064,2128
2339,2160,2157
2279,2065,1987
1933,1982,2033
1877,1957,1981
2238,2007,1931
1937,2057,2098
2027,2083,2233
2277,2061,2085
1983,1973,1895
1983,2055,2045
2304,2069,2057
2105,1953,1951
1914,2002,1858
2188,2103,2091
2170,1968,2003
1817,1893,1905
1831,2015,1990
2226,2034,2159
2163,1997,2064
2096,2011,1909
2339,2078,2015
2342,2055,2038
1740,1888,1862
1583,1930,1884
1971,2068,2004
2249,2043,2016
2114,1934,2023
2128,1936,2039
2223,2090,2075
2685,2176,1911
2032,1950,1903
1471,1851,1755
1993,1995,1898
2125,1953,1947
1983,1927,1870
2207,2068,1901
2160,2027,2059
1962,1997,2030
2339,2064,1968
1959,1895,1731
1721,1872,1712
1935,1946,1915
2398,2000,1943
2486,2035,1999
1729,2001,1907
1677,2001,1861
2128,2020,1949
2288,1926,1897
1883,1910,1785
1952,1987,1867
2212,2023,2043
2195,1985,1982
2171,2063,1884
1874,2047,1914
1968,1968,1875
1970,1922,1875
1972,1967,1808
2294,2071,2004
2289,1955,2030
1983,1849,1745
1903,1808,1774
1970,1921,1938
2164,1955,1792
1946,1914,1834
2039,2074,1987
2192,2045,2077
2227,1954,1871
2015,1922,1808
2037,1950,1901
2085,1943,1883
1925,1962,1859
1875,1931,1799
1974,1932,1857
2129,1991,1969
2180,1959,2113
2189,1979,1917
1745,1932,1749
1872,1958,1872
2212,1955,1896
2231,1840,1766
1889,1927,1940
1808,1931,1878
1981,1975,1881
2302,2018,1851
2238,2000,1854
1824,1904,1909
1977,2015,1909
2288,1990,1874
2033,1933,1968
1662,1813,1775
1965,1927,1787
2006,1909,1861
2101,1938,1819
2365,2057,2066
2343,2064,1985
1671,1840,1761
1523,1757,1633
1920,1857,1840
2384,2002,2185
2150,2022,1936
1936,1965,1741
1909,2032,1918
2164,2087,2023
2063,1973,1937
1925,1921,1838
2161,1941,1839
2293,1917,1773
1808,1904,1852
1777,1984,1954
2199,2063,1930
2001,1899,1906
1828,1926,1881
2000,1917,1899
2064,1825,1697
2088,1946,1814
2045,1955,1958
1826,1958,1885
1999,1974,1906
2181,2007,2057
2325,2151,2029
2037,1891,1629
1744,1797,1828
1926,1889,2032
2064,1999,1898
1813,1953,1744
1766,1939,1831
2023,1968,1930
2547,2062,2064
1930,1890,1810
1856,1913,1791
1796,1905,1838
1830,1939,1866
2165,2002,1985
2382,2010,2033
1853,1877,1821
1744,1946,1851
2171,2077,2032
2185,1983,1952
1840,1909,1833
1831,1923,1763
1865,1931,1775
2173,2029,2096
2058,1869,1860
1837,1911,1762
1903,1963,1766
2107,1945,1934
1957,1909,1975
1791,1937,1934
2023,1962,1941
2219,1985,1936
2096,1907,1776
2133,1962,1936
1745,1941,1884
1745,1920,1841
2219,1970,1841
2213,1906,1819
1886,1984,1889
2138,2043,1999
1920,1863,1803
1761,1869,1949
1750,1932,1871
2062,1955,1866
2211,1928,1840
1989,1872,1749
1753,1859,1863
1939,1943,1970
2010,1950,1825
2151,1986,1983
2212,1845,1853
2128,1913,1939
1744,1840,1831
1617,1867,1719
1944,1922,1902
2345,1979,1969
2401,1985,1914
1951,1834,1946
1636,1897,1970
1715,1911,1891
1994,1867,1815
1889,1777,1802
1918,1901,1879
2043,1937,1969
2163,1882,1943
2263,1893,1936
2063,1949,1945
1778,1829,1687
2054,1936,1909
2045,1809,1705
1766,1818,1898
1735,1823,1889
2178,1903,1861
2587,1962,1937
2035,1853,1973
1595,1809,2032
1571,1793,1868
1750,1810,1744
1974,1850,1771
2275,1925,1978
2143,1927,2033
1774,1822,1862
1844,1811,1875
2285,1855,1815
2128,1926,2096
1867,1781,1855
1877,1794,1772
1883,1843,1870
2199,1886,1970
2113,1850,2013
1690,1776,1773
1814,1808,1808
2309,1872,1889
1999,1841,1921
1717,1789,1963
1808,1760,1883
2285,1810,1851
2283,1770,1909
1904,1845,1983
1926,1934,1968
2041,1828,1891
1759,1689,1743
1776,1727,1909
1896,1702,1973
1904,1744,1829
2006,1840,1922
2150,1804,1899
1893,1741,1815
2001,1758,1936
2155,1746,1819
1777,1663,1776
1815,1701,1977
2160,1765,2149
2287,1672,2062
1664,1627,1641
1767,1744,1728
2132,1808,2060
2189,1702,1978
1877,1600,1831
1746,1570,1872
1929,1535,1869
1936,1616,1899
2224,1805,2148
2160,1614,1917
1859,1581,1731
1680,1582,1817
2096,1631,1949
2281,1507,1787
1631,1471,1797
1647,1575,1842
1985,1641,1923
2011,1645,2000
1904,1582,1899
2113,1565,1839
2257,1622,2025
2255,1569,1918
1667,1535,1901
1591,1522,1897
1750,1534,1835
2130,1609,1867
2379,1649,2064
2103,1571,1937
1946,1525,1796
1733,1589,1875
1733,1522,1776
1873,1524,1741
2127,1600,1991
1872,1504,2005
1909,1614,1955
1926,1677,1933
2194,1574,1796
2248,1643,1891
1673,1483,1783
1665,1500,1765
1862,1555,1866
1984,1656,1984
2093,1659,1986
2064,1661,2066
2099,1662,1897
1895,1508,1722
1927,1660,1978
2138,1729,1869
2032,1605,1817
1760,1535,1837
1739,1579,1872
1988,1683,1930
2081,1660,1915
2072,1617,1919
1847,1729,1961
1954,1671,1856
1886,1617,1744
1749,1535,1791
1966,1630,1925
2210,1742,1966
1883,1619,1839
1785,1689,1968
1997,1701,1845
2112,1660,1855
2063,1729,1915
2225,1776,1858
1727,1683,1837
1471,1612,1806
1854,1713,1968
2368,1776,2077
2677,1802,1859
1820,1623,1690
1326,1566,1747
1696,1731,1858
2305,1808,2061
2063,1735,2033
1778,1700,1851
1680,1677,1698
1879,1797,1843
2322,1837,2007
2192,1796,1894
1883,1744,1814
2000,1776,1946
1985,1751,1866
1842,1701,1834
1630,1714,1791
1715,1712,1858
1872,1823,1903
2238,1920,1903
2202,1933,2045
2061,1794,1983
1808,1691,1763
1815,1732,1748
2105,1865,1849
1853,1723,1739
1779,1835,1965
1915,1853,1840
1920,1867,1872
2151,1898,2026
2179,1828,1925
1853,1847,1901
1911,1911,1941
2089,1901,1931
1675,1771,1727
1681,1759,1641
1910,1841,1887
2006,1817,2027
1885,1829,1826
1969,1896,1765
2310,1951,1902
2242,1950,2053
1921,1777,1828
1591,1783,1754
1676,1843,1927
1862,1837,1891
2064,1890,1728
2231,1915,1812
2161,1888,1983
1829,1849,1947
1604,1792,1829
1967,1909,1902
2255,1938,1793
1690,1834,1683
1751,1898,1975
2098,1977,2085
2098,1906,1885
1808,1861,1785
1882,1941,1914
2122,1911,1875
2066,1890,1840
1871,1841,1856
1882,1867,1721
1811,1889,1693
1776,1890,1955
1846,1920,1979
2019,1944,1840
2203,1998,1815
2149,1999,1923
2090,1906,1948
1755,1775,1887
1618,1870,1753
1943,2010,2013
2093,1940,1748
1713,1856,1719
1643,1877,1847
1847,2032,1958
2231,2070,2141
1990,1919,1872
1887,1916,1767
1968,1951,1772
1866,1973,1926
1909,2012,1987
1887,1975,1889
1879,1923,1803
1987,1918,1878
2017,1978,1937
1940,1979,1808
1986,1968,1718
2094,2064,1827
2073,1950,1852
1835,1938,1950
1928,2112,1915
2003,2030,1927
1968,1941,1959
1744,1749,1827
1911,1875,1678
2133,1974,1773
2173,1984,1921
1922,1953,1985
1734,1931,1923
1807,1973,1847
1903,1949,1794
1847,1954,1869
1988,1977,1808
2194,2023,1939
1742,1965,1837
1697,1952,1898
2001,1969,1871
2163,1929,1797
2001,1895,1746
1680,1935,1850
1628,1965,1872
2025,2021,1887
2234,1983,1923
1827,1958,1822
1957,2046,1968
2037,1972,1855
1903,1985,1927
2098,2064,1984
1872,1963,1773
1589,1945,1767
1673,1906,1787
1936,1979,1777
2037,1941,1840
2099,2017,2054
1932,1978,1887
1898,1936,1807
1668,1898,1765
1936,2071,1915
2111,2016,1853
1904,1974,1899
1817,2011,1999
1825,2067,1958
2117,2070,1925
2306,2017,1859
1903,1870,1771
1775,1781,1721
1680,1975,1714
1858,2017,2001
1894,2044,1966
1922,2031,1819
1948,1963,1664
1811,1927,1791
1942,1958,2028
1965,1988,1865
1981,2029,1860
1806,2064,1901
1877,2058,1968
1919,1920,1913
2096,1947,1933
2181,1987,1958
2013,2060,1835
1840,1993,1872
1726,1856,1664
1978,1938,1841
1854,1961,1936
1837,2000,1787
1795,2065,1833
2065,2107,2000
2288,1973,1994
1878,1877,1769
1507,1934,1584
1725,2069,1806
1917,1991,1930
2193,2019,1981
2070,2035,2058
1923,2101,1993
1994,1967,1776
1939,1867,1835
1637,1891,1808
