2032,1971,1921
2032,1972,1902
2047,1986,1937
2061,2015,1971
2039,2000,1924
2023,1962,1874
2021,2055,1904
2039,1985,1956
2047,1989,1927
2030,1968,1877
2032,1975,1914
1985,1936,1907
1987,1918,1887
2027,1942,1869
2039,1986,1909
2043,1977,1949
2045,1969,1906
2022,1984,1890
2023,2005,1936
2000,1970,1927
2019,1965,1895
2027,1968,1875
2027,1987,1918
2007,1982,1937
2006,1970,1909
2011,1984,1872
2017,2013,1911
1989,1973,1909
2009,1978,1902
2023,1997,1890
2006,2000,1905
1989,1996,1904
1994,1980,1872
2064,2044,1904
2000,2003,1891
1968,1985,1893
1980,1984,1871
1985,1998,1856
2000,2013,1891
2017,2027,1931
2005,2014,1891
1985,2009,1875
1968,2000,1872
1989,2007,1897
2007,2017,1890
2007,2022,1887
1987,2019,1891
1997,2030,1921
2000,2023,1874
1981,2005,1840
1959,2000,1859
1971,2015,1897
1979,1987,1865
1962,1983,1839
1970,2017,1871
1964,2005,1903
1970,1997,1870
1973,1991,1852
1974,2015,1894
1961,2003,1930
1968,2001,1878
2002,2033,1873
1961,1999,1859
1939,1973,1869
1950,1978,1866
1964,1995,1855
1956,2009,1878
1982,2019,1921
1971,1988,1877
1936,1968,1824
1955,2002,1868
1971,2018,1909
1938,1968,1855
1947,1969,1825
1971,2018,1889
1964,2013,1904
1959,1999,1867
1937,1987,1822
1947,2014,1872
1951,2000,1887
1966,2002,1887
1963,2014,1840
1957,2023,1855
1981,2044,1905
1904,1972,1822
1886,1970,1795
1924,2000,1850
1951,2011,1897
1958,2000,1866
1968,2019,1855
1970,2043,1895
1920,2000,1875
1918,1989,1846
1921,2000,1831
1954,2039,1891
1927,1998,1877
1891,1962,1828
1904,1989,1827
1920,2007,1869
1947,2030,1918
1904,1975,1840
1894,1980,1808
1917,2000,1861
1939,2027,1909
1907,1983,1846
1906,1989,1823
1936,2011,1879
1925,1997,1887
1946,2000,1867
1904,1989,1829
1886,1995,1840
1905,2002,1884
1936,2002,1873
1925,2003,1840
1872,1971,1826
1874,1972,1856
1898,1974,1840
1933,2021,1851
1921,2026,1872
1899,1990,1869
1879,1971,1826
1909,2003,1827
1907,2021,1859
1898,2009,1872
1904,2008,1855
1907,2009,1834
1894,2027,1858
1900,2020,1903
1900,2014,1868
1909,2022,1840
1894,2027,1859
1897,2032,1889
1898,2014,1861
1895,2032,1840
1871,2010,1839
1846,1985,1847
1893,2018,1863
1902,2030,1863
1866,2018,1848
1885,2031,1879
1878,2000,1850
1894,2022,1844
1901,2035,1858
1877,2030,1878
1858,2009,1854
1872,2019,1837
1883,2037,1872
1893,2036,1892
1903,2022,1861
1909,2021,1840
1906,2046,1871
1904,2037,1904
1899,2032,1870
1875,2010,1815
1861,2002,1840
1872,2011,1878
1920,2036,1899
1908,2032,1858
1904,2037,1874
1872,2001,1875
1838,1962,1823
1843,1973,1806
1872,2003,1851
1876,2012,1887
1877,2009,1867
1905,2031,1870
1898,2026,1872
1872,1994,1884
1874,1983,1856
1872,1987,1828
1862,1994,1891
1871,2000,1873
1891,2006,1872
1904,2019,1849
1863,1986,1882
1872,1971,1898
1868,1956,1856
1859,1949,1795
1856,1981,1842
1857,1981,1883
1870,1963,1889
1877,1980,1851
1879,1983,1877
1863,1960,1847
1869,1966,1879
1869,1967,1813
1863,1985,1837
1878,2000,1891
1906,2013,1894
1875,1987,1840
1849,1974,1840
1842,1966,1859
1870,1984,1872
1895,2000,1854
1905,2032,1895
1856,1989,1916
1825,1949,1801
1858,1982,1841
1877,2010,1863
1857,1995,1872
1865,1998,1855
1870,1994,1840
1882,2015,1869
1876,2003,1895
1869,1982,1861
1883,1987,1828
1874,2010,1862
1865,2002,1883
1872,1998,1819
1852,1984,1822
1855,2009,1859
1862,2000,1899
1863,1971,1860
1856,1974,1808
1882,2009,1850
1898,2042,1906
1841,1989,1843
1840,1998,1824
1879,2060,1891
1858,2043,1872
1854,2061,1858
1877,2112,1856
1885,2137,1885
1830,2114,1883
1846,2124,1840
1884,2158,1845
1867,2176,1841
1856,2186,1904
1861,2177,1875
1882,2193,1840
1890,2238,1870
1889,2253,1877
1868,2223,1851
1845,2206,1801
1871,2243,1815
1900,2274,1909
1867,2239,1843
1871,2256,1829
1870,2282,1867
1877,2288,1902
1887,2277,1872
1872,2266,1818
1872,2273,1842
1873,2278,1874
1885,2273,1896
1861,2263,1858
1872,2285,1866
1874,2284,1891
1881,2267,1868
1868,2266,1834
1895,2305,1875
1883,2288,1885
1863,2254,1851
1872,2271,1840
1872,2285,1855
1884,2272,1915
1883,2262,1857
1872,2267,1811
1862,2272,1935
1871,2267,1883
1869,2252,1770
1872,2256,1829
1890,2288,1790
1911,2291,1918
1892,2256,1889
1863,2239,1841
1877,2256,1841
1863,2238,1795
1867,2218,1872
1877,2235,1836
1903,2256,1885
1893,2249,1913
1893,2217,1867
1917,2233,1863
1883,2240,1876
1866,2214,1893
1853,2183,1847
1867,2195,1841
1892,2225,1878
1884,2209,1920
1874,2179,1869
1895,2191,1818
1877,2205,1869
1878,2190,1922
1885,2166,1879
1878,2138,1798
1887,2175,1917
1913,2186,1949
1871,2130,1804
1869,2122,1855
1891,2159,1853
1910,2171,1893
1907,2147,1874
1902,2132,1826
1914,2146,1871
1899,2129,1896
1874,2101,1901
1891,2115,1895
1888,2112,1910
1899,2110,1958
1890,2084,1889
1906,2099,1868
1919,2114,1882
1909,2116,1921
1863,2064,1858
1858,2054,1837
1882,2081,1864
1914,2093,1930
1903,2062,1887
1903,2064,1851
1893,2071,1866
1905,2064,1894
1904,2059,1889
1894,2045,1839
1897,2055,1872
1899,2035,1872
1886,2007,1851
1904,2025,1867
1894,2030,1901
1875,2018,1943
1895,2003,1871
1922,2030,1869
1899,2029,1863
1895,2019,1895
1886,2000,1856
1898,1998,1858
1915,2029,1878
1915,2032,1936
1904,2003,1875
1870,1954,1814
1874,1968,1840
1894,1978,1894
1909,1989,1894
1917,1985,1869
1936,2002,1890
1927,2000,1925
1881,1951,1873
1858,1935,1819
1890,1979,1872
1895,1973,1919
1904,1952,1876
1915,1973,1856
1926,1981,1899
1917,1961,1914
1904,1936,1881
1909,1942,1859
1903,1947,1877
1905,1937,1910
1914,1935,1900
1907,1933,1860
1917,1937,1874
1952,1960,1919
1921,1949,1905
1903,1935,1865
1895,1919,1866
1879,1879,1876
1887,1874,1853
1920,1893,1841
1920,1933,1899
1930,1947,1936
1917,1903,1903
1864,1879,1833
1873,1904,1867
1910,1920,1919
1904,1919,1904
1905,1905,1868
1979,1933,1910
1931,1904,1907
1869,1873,1867
1927,1881,1857
1970,1927,1905
1920,1904,1923
1977,1929,1933
1951,1919,1899
1831,1854,1846
1843,1845,1859
1863,1859,1866
1939,1885,1872
1925,1887,1895
1952,1903,1926
1921,1873,1894
1904,1853,1859
1890,1872,1883
1915,1888,1915
1929,1872,1891
1954,1893,1883
1931,1887,1905
1904,1870,1908
1915,1866,1895
1907,1884,1890
1936,1887,1891
1911,1875,1904
1942,1864,1882
1915,1858,1859
1939,1905,1915
1938,1903,1940
1943,1887,1909
1910,1845,1856
1890,1830,1845
1885,1833,1871
1934,1856,1893
1936,1862,1874
1927,1879,1890
2000,1897,1939
1905,1841,1888
1911,1853,1872
1951,1883,1911
1932,1860,1910
1925,1846,1889
1956,1872,1885
1969,1871,1892
1923,1867,1914
1907,1861,1899
1931,1855,1856
1916,1883,1887
1983,1909,1951
1982,1859,1904
1890,1853,1843
1883,1853,1872
1887,1838,1891
1949,1830,1886
1981,1839,1856
1969,1872,1885
1918,1887,1936
1922,1863,1915
1971,1867,1901
1959,1887,1914
1939,1850,1893
1869,1814,1850
1925,1851,1859
1981,1895,1911
1902,1853,1904
1927,1843,1883
1936,1852,1859
1942,1881,1893
1883,1820,1874
1900,1808,1853
1937,1841,1856
1958,1887,1898
1946,1873,1913
1953,1856,1885
1946,1861,1872
1937,1870,1900
1934,1869,1914
1936,1855,1875
1959,1872,1863
2021,1928,1919
2004,1895,1887
1906,1854,1861
1870,1812,1813
1919,1869,1883
1931,1886,1897
1866,1853,1882
2037,1877,1863
2099,1888,1878
1930,1831,1862
1857,1811,1808
1935,1846,1844
2019,1902,1867
2129,1984,2052
2061,1922,1983
2027,1923,1936
1886,1846,1737
1856,1845,1850
1788,1837,1878
1840,1829,1840
1974,1882,1840
1997,1906,1954
1917,1904,1901
1984,1930,1903
2145,1995,1959
1937,1907,1946
1680,1756,1772
1894,1875,1891
2185,2032,1975
2121,1921,1843
1814,1808,1714
1523,1733,1665
1751,1841,1856
1851,1881,1947
1974,1945,1951
2232,2030,1921
2041,1966,1931
1685,1840,1799
1770,1859,1808
2004,1904,1871
2156,1971,1923
2083,1968,1937
2233,2000,2176
2145,1949,2055
1609,1747,1768
1903,1845,2064
1991,1940,2288
2023,2015,2415
2046,2023,2407
1775,1897,2234
1779,1936,2172
1942,1984,2338
2234,2032,2353
2246,1938,2384
1645,1779,2143
1620,1889,2190
2340,2107,2291
2258,1979,2338
1761,1898,2255
1799,1983,2370
2042,1961,2385
1968,1809,2221
1857,1846,2229
1973,1890,2277
2416,2096,2319
2213,2055,2379
1607,1820,2298
1681,1823,2288
2207,2027,2398
2136,1930,2270
1835,1909,2210
1691,1887,2102
1904,1935,2224
1989,1938,2305
1925,1983,2460
2168,2123,2414
2095,1863,2095
1975,1818,2025
1985,1894,2071
1680,1818,2123
1797,1904,2194
1758,1841,2130
1813,1840,2224
2130,1992,2291
2463,2059,2221
1979,1808,1962
1437,1703,2096
1744,1856,2159
1996,1864,2146
1842,1904,2262
1950,1919,2237
2077,1981,2147
1931,1919,2133
2192,2000,2192
1968,1776,1845
1569,1735,1942
1809,1897,2087
2266,1884,2255
1783,1722,2091
1648,1823,1968
1968,1866,2135
2210,1955,2162
2103,1807,1867
1968,1763,2023
1728,1776,2170
1598,1808,1815
1854,1839,1885
1980,1810,1954
2039,1933,2274
1937,1827,2115
1964,1810,1855
2081,1810,1817
1973,1744,1815
2025,1837,2044
1814,1841,1913
2139,2025,2079
2530,1953,2064
1729,1642,1831
1391,1687,1802
1829,1901,1893
2098,1872,1855
1909,1808,1807
1727,1788,1916
1811,1750,1889
2187,1714,1994
1773,1728,1833
1887,1922,1984
2171,1847,1912
2014,1745,1815
1611,1721,1687
1759,1750,1779
2071,1945,1994
2058,1803,1999
1853,1792,1776
1876,1795,1953
2026,1908,1953
2165,1789,1893
1843,1786,1802
2047,1974,1906
1937,1797,1829
1729,1711,1746
1738,1817,1963
2136,1838,1935
2288,1887,1742
2105,1776,1937
1611,1729,1744
1835,1915,1888
1970,1781,1765
2033,1905,1904
1790,1852,1913
2064,1921,1840
2061,1792,1796
1925,1733,1682
1969,1791,1997
1751,1767,1831
1842,1904,1831
2257,1872,1720
1722,1773,1729
1648,1814,1860
1942,1813,1909
2166,1882,1990
1971,1839,1759
1968,1851,1820
1831,1795,1757
2128,1927,1858
2821,1968,2013
1671,1682,1535
1232,1753,1770
1999,1899,2171
1918,1759,1767
1826,1815,1481
1882,1883,1727
2241,1910,1987
2210,1946,1867
1918,1877,1954
1611,1770,1797
2079,1879,1739
2405,1872,1876
2179,1763,1975
1595,1744,1901
1494,1840,1664
2034,2010,1953
2069,1841,1898
1801,1822,1741
1991,1941,1819
2475,1990,1918
2559,1841,1861
1439,1684,1658
1222,1777,1855
2035,1961,1989
3003,2183,2039
2375,1743,1872
932,1648,1493
1072,1789,1600
1885,1854,1863
2581,1856,1930
2263,1934,1851
1435,1844,1745
1566,1807,1760
2515,2105,2107
2288,1866,1723
1709,1680,1665
1499,1786,1913
1717,1820,1718
2303,1991,1765
2849,1945,1950
1997,1702,1947
1173,1845,1955
1802,1971,1964
2774,1989,1660
1856,1803,1750
1216,1779,1864
1598,1903,1852
3109,2222,2293
2355,1693,1791
1039,1643,1434
1243,1824,1582
2155,1936,1792
2423,1920,1743
1842,1905,1953
1535,1853,1849
1923,1936,1777
2141,1968,1968
1941,1917,2121
1744,1891,1823
2007,1985,1923
2477,2006,1963
1988,1775,1674
1530,1842,1650
1774,1947,1935
2128,1993,1983
2211,1797,1810
2013,1727,1670
2027,1987,1837
2411,1989,1879
1557,1738,1659
1359,1773,2044
1910,1940,2064
2303,2002,1754
1990,1852,1702
1967,1958,1921
1840,1991,1825
1821,1872,1856
1947,1791,1872
1989,1888,1808
1982,2022,1983
1851,1904,2084
2034,1959,1889
2130,1904,1629
1761,1843,1709
1851,1870,1971
1811,1863,1723
2102,1936,1723
2006,1878,2007
2000,1919,1981
2341,2029,1909
1648,1815,1567
1489,1844,1783
2222,2061,2039
2138,1970,1840
2533,2169,2317
1977,1827,1795
1571,1791,1461
1438,1882,1584
2504,2145,2235
2061,1823,1840
1391,1787,1728
1489,1976,1828
2305,2166,2112
2103,2000,1831
2019,1981,1840
2410,2003,1961
2003,1840,1776
1983,2003,1874
1663,1984,1812
1535,1951,1756
2135,1952,2032
2634,1987,2139
1880,1915,1667
1488,2032,1694
2073,2271,1973
2528,2156,2015
2203,1801,1904
2192,1813,1775
1694,1903,1883
2036,2059,1991
2016,1921,1776
1791,2102,1826
2014,2194,1898
1712,1870,1648
2064,1972,2078
2070,2071,2001
2352,2098,2075
2046,1827,1733
1648,1968,1645
1963,1973,1793
2013,2067,1968
1974,2021,2103
2033,1963,1998
2178,2153,1776
1845,2005,1737
1738,1987,1945
1925,1949,1826
2310,1927,1722
2353,1941,1821
1776,2028,2032
1443,1950,1931
1975,2063,1840
2453,2005,1934
1936,1890,1861
1623,1996,1900
2275,2045,2056
2223,2030,1713
1584,2016,1898
1750,2013,1913
2012,1952,1954
2205,1876,1901
1776,1943,1930
1717,1962,1898
2532,2254,2017
4095,2399,1851
1414,1689,1624
416,1735,1797
1213,1904,1817
2451,2119,2105
2704,1863,2177
1712,1959,1936
2094,2119,1711
2323,1984,1662
1895,1995,1713
1365,1919,1948
1495,1925,1901
1898,2015,1949
2383,2099,2155
2313,2168,1995
2371,2032,1879
2023,1977,1623
1875,2053,1936
1580,1845,1919
1415,1912,1839
2192,2062,1927
2801,1925,1859
2224,1954,1862
2159,2192,1997
2209,2063,1761
1457,1925,1738
1309,2031,1890
2173,2178,2022
2385,1997,1993
1802,1920,2149
1905,1933,1872
1973,1957,1855
1676,1866,1719
1856,1987,1520
2141,2064,1811
1885,1926,2081
2495,2215,2336
2977,2143,1957
1760,1840,1374
1088,1744,1685
2173,1987,2138
2432,1992,1904
1751,1971,1938
1391,1958,1879
1907,2069,1904
2326,2078,1942
2266,1935,1947
1741,1920,1941
1595,1999,1904
1796,2032,1919
2069,2029,1847
1943,1972,1935
2163,2017,2138
2225,2000,1749
2402,2047,1728
1814,1913,1849
1481,1695,1904
1750,2004,2091
2325,2106,1763
2259,1982,1795
1583,1911,1895
2450,2160,2125
2377,2064,1949
1781,1771,1670
1597,1786,1703
1970,2055,2139
1882,1898,1904
1674,2002,1983
2192,2075,2001
2063,1926,1907
2194,2019,2065
3153,2096,1872
1741,1815,1489
861,1895,1820
1363,1955,2097
2317,2095,2087
2414,1975,1665
1845,1956,1838
1761,1904,1969
2759,2082,2191
2025,1877,1744
1174,1877,1727
1649,2000,1941
2614,2126,1985
2258,1841,1759
1479,1967,1950
1745,2070,2277
2088,2078,2128
2368,1987,1859
2113,1936,1680
1488,1916,1760
1742,1984,2023
2412,2032,2071
2445,1998,1815
1677,1808,1535
1503,1907,2011
1849,2003,2154
2411,2128,2085
2323,2093,2011
1787,1857,1774
1675,1856,1686
1950,1983,1934
2352,2081,2006
2000,1903,1867
2266,2139,2155
2291,2001,2111
1643,1943,1958
1671,1934,1758
1964,1857,1744
1751,1899,1890
1962,2097,1979
2755,2163,1995
1942,1847,1729
1600,1950,1969
1713,1914,2062
2069,1856,1622
1927,1911,1794
1895,2047,2107
2077,2126,2158
2128,2002,2128
2032,1904,1947
1872,1920,1786
1849,1972,1859
2172,2000,1975
2190,1939,1843
1802,2032,2017
2079,2015,2165
2224,1906,1783
1664,1952,1799
1746,1904,1851
2515,2083,2178
2498,1840,1635
1713,1844,1769
1453,1915,1871
1957,1984,1869
2098,1943,1923
1904,1923,1856
1914,1979,1968
1803,1953,2036
2265,1999,1997
2478,2045,2060
2361,1945,1851
1517,1821,1682
1511,1958,1781
1989,2125,2214
2230,2032,2016
2206,1922,1927
2210,1994,1802
2319,1917,1641
1606,1771,1725
1348,1873,2117
1834,2014,2158
2331,2062,2087
2066,1987,1817
2239,1951,1862
2893,1936,1692
1704,1750,1717
1169,1890,2018
1791,2064,2100
2512,2081,2116
1874,1884,1903
1660,1889,1927
2033,1897,1796
2377,1893,1748
1883,1951,1826
2357,2112,2221
2083,1829,1744
1503,1872,1810
1930,2046,2045
2400,1875,1979
1698,1827,1865
1522,1847,1823
1898,1984,1927
2436,2015,1990
2234,1957,2098
2251,1945,2045
2214,1872,1745
1457,1754,1680
1535,1854,1902
1923,1911,1947
2295,1933,2061
2163,1883,1910
2209,1968,1939
2029,1887,1723
1906,1867,1798
1783,1910,1994
2054,1931,2063
2326,1890,2053
2246,1889,1834
2033,1799,1967
1893,1742,1874
1760,1791,1812
1922,1917,1904
2292,1932,2046
1993,1744,1881
1776,1795,1763
2103,1893,1890
2325,1889,1866
1949,1834,1903
2096,1792,1865
1989,1744,1904
1731,1749,1821
1839,1818,2071
2286,1973,2195
2539,1806,1859
1986,1707,1747
2064,1792,1770
1851,1733,1872
1505,1694,1878
1776,1777,1985
2527,1821,1915
3071,1819,1987
1613,1602,1712
1207,1680,1903
1787,1753,1995
2106,1723,1843
2204,1744,1783
2091,1710,1888
1939,1616,2064
1915,1622,1949
1869,1659,1827
2109,1776,1888
2352,1681,1811
2064,1463,1783
1776,1664,2003
1895,1689,2005
2231,1648,1934
2010,1607,1714
2166,1725,1936
1936,1790,2096
1963,1680,2122
1934,1509,1796
1904,1530,1589
2026,1599,1691
1946,1631,1766
1981,1677,1966
2111,1706,1983
2187,1723,1981
1863,1584,1968
1795,1535,1945
2084,1635,2030
2190,1643,1978
1963,1654,1776
1892,1574,1680
2207,1766,1984
2242,1765,1912
1937,1510,1718
1733,1600,1763
1771,1679,1956
2543,1757,2190
2240,1583,1767
1562,1566,1771
2096,1776,1829
2447,1691,1667
1488,1568,1949
1483,1650,2047
2039,1744,1991
2542,1728,1879
1957,1686,1867
2117,1774,2035
2039,1686,1844
1718,1680,1677
1955,1653,1646
1968,1703,1943
1885,1715,1979
1875,1649,2083
1977,1747,1883
2127,1735,1827
2176,1789,1889
2119,1809,1738
1696,1750,1873
1663,1685,1925
2042,1755,1941
2101,1776,1926
2044,1747,2082
2285,1812,1975
2084,1781,1681
1822,1737,1797
2215,1862,1862
2085,1856,1825
1902,1803,2067
2077,1739,1943
2045,1751,1842
1920,1668,1717
1577,1793,1937
1877,1847,1872
2451,1891,1935
2254,1836,2032
1749,1743,1872
1774,1881,1938
2004,1808,1773
1995,1719,1676
1900,1829,1819
1984,1846,2032
2018,1807,2019
2315,1914,1955
1775,1831,1648
1623,1776,1603
1833,1847,1941
1975,1890,2005
2128,1872,1939
2559,1987,1968
2326,1782,1810
1509,1717,1715
1440,1904,1936
1990,1970,2019
2674,1989,2161
2053,1776,1711
1414,1776,1749
1699,1860,1860
2238,1962,1930
2473,2107,1990
2254,1852,1726
1686,1709,1791
1575,1876,1965
1927,1923,1829
2032,1929,1934
2111,1926,2102
1918,1936,1942
1801,1904,1814
1945,1927,1887
2237,2041,1925
2272,2019,1953
2318,1934,1959
1874,1792,1753
1574,1918,1919
1664,1930,1931
1963,1950,1867
2253,1953,1785
2161,1894,1936
1960,1977,1987
2355,2034,2063
1983,1904,1816
1841,1968,1844
1923,1991,2043
2023,1942,1806
1937,1946,1728
1907,1949,1997
2176,2064,2128
2137,1996,1648
1798,1946,1776
1707,1908,1846
1794,1947,1915
1974,1997,1987
1997,2014,1823
2291,2079,1851
2307,1931,1719
1776,1806,1722
1729,1883,2062
1829,2057,2107
2230,2119,2160
2192,1936,1920
1804,2059,1837
1829,2079,1861
1884,1987,1887
2135,2047,1887
2195,2099,1888
1823,1942,1824
1702,1869,1765
1881,1941,1780
2231,2058,1914
2112,2085,2034
1904,2032,2004
1999,2018,1959
2176,2109,2053
2093,2009,1861
1936,1914,1642
1863,1989,1799
1777,2034,1904
2225,2146,2189
2131,2061,1795
1947,1996,1702
1847,2025,1914
2039,2107,2084
2022,1943,1821
1633,1911,1779
1778,2015,1891
2304,2147,1978
2247,1954,1727
1854,1968,1802
1730,1993,1923
1889,2075,1903
1862,2045,1932
2045,2066,1968
2029,2019,1889
2023,2047,1903
2033,2067,1942
2071,2074,1913
2169,1999,1801
1876,2005,1877
1827,2043,1859
1934,1947,1695
1867,1989,1830
2122,2064,2017
2091,1983,1975
1758,1955,1842
1785,2011,1872
2065,2015,1981
2224,2112,2022
1875,2000,1793
1776,2053,1749
1975,2045,1865
1978,2000,1974
2131,2141,2121
1947,2043,1776
2182,2000,1664
2061,1973,1849
1581,1973,1945
1646,2043,1965
2175,2057,1970
2192,2092,1856
2045,1997,1691
1933,2034,1812
1751,2070,1994
1730,1978,2010
2128,2096,1924
2364,2029,1807
2160,2010,1982
1885,2015,2059
1680,1991,1734
1763,2108,1892
1863,2040,1904
2313,2062,1844
2322,2035,1958
1939,2058,1891
1514,1936,1679
1706,1975,1847
2367,2123,2064
2103,2055,1915
1655,1935,1776
1726,2038,1923
2205,2133,1947
2336,2015,1834
1983,1972,1779
1746,2091,2077
2209,2128,1913
2156,2011,1872
1694,1968,1865
1556,2009,1808
2287,2105,1943
2174,1977,1921
1674,1919,1802
1666,2023,1969
2482,2125,1923
2092,1954,1839
1502,2006,1936
1732,1984,1904
1923,1988,1730
2003,1991,1763
2207,2075,1968
2158,2075,1951
1697,1933,1809
1761,1989,1919
2147,2122,2099
2379,2111,2065
1941,1984,1666
1735,1962,1680
1857,1987,1906
1920,2039,2096
2032,2016,1956
1921,2015,1829
2113,2047,1845
2031,1953,1962
1926,2038,1983
2086,2091,1839
1886,2011,1871
2150,2075,2118
1861,1950,1882
1683,1936,1734
1911,2034,1856
2125,2063,1978
1990,1998,1836
1994,1969,1793
1829,1974,1950
1839,2041,2083
2287,2206,2107
2119,2064,1757
1703,1930,1740
1794,1936,1808
2203,2047,1866
2029,2025,1855
1904,2039,2017
1947,1941,1933
1854,1909,1862
1850,2078,2053
2250,2126,1920
2219,2032,1789
1664,1955,1776
1665,1968,1915
1927,1994,1911
1998,2014,1948
2138,2068,1973
2247,2069,1850
1772,1937,1795
1674,1940,1963
1863,1997,1968
2176,2040,1889
2094,2023,1889
2314,2110,2128
1939,1888,1767
1628,1974,1759
1805,2057,1927
2329,2115,2081
1961,1927,1811
1778,1908,1715
1758,2003,1920
2256,2074,2028
2078,1967,1935
1774,1953,1847
1755,1939,1729
1972,2003,1807
1919,1987,1952
1947,2006,1968
2251,2084,2015
2274,2144,1945
1872,1949,1918
1648,1914,1866
1890,1974,1905
2129,1968,1883
2004,1953,1921
1789,1934,1785
1872,2006,1852
2080,2061,1990
2065,1989,1901
2213,2121,1979
2202,1999,1857
1895,1963,1904
1680,1947,1963
1987,1995,1888
2190,2047,2058
1856,1901,1893
1872,1958,1856
1967,1986,1894
2077,1943,1750
2101,1968,1879
2209,2118,2090
2151,1986,1921
1663,1864,1824
1651,1936,1904
1920,2025,1919
2099,2019,1968
1999,1979,1927
1984,1963,1853
1945,2032,1945
1986,2077,1969
1986,2032,2011
1990,1872,1890
1904,1870,1722
2030,2061,1872
1918,1998,1863
2143,2078,2037
2047,1984,2033
1954,1966,1807
2215,1950,1783
1857,1901,1873
1591,1961,1906
1895,2000,1879
2206,2016,1934
2128,2087,2065
2156,2107,2084
1779,1942,1824
1606,1875,1813
1840,1984,1883
2333,1991,1839
2000,1904,1742
1695,1983,1945
1769,2015,1986
2039,1996,1891
2154,1984,1843
2177,1989,1888
2167,2071,2110
1939,1939,1949
1658,1904,1803
1803,1958,1847
1949,2000,1963
2102,1995,1904
2394,2065,1831
1943,1904,1766
1587,1908,1962
1794,1957,1906
2224,2019,1940
2471,2094,2075
1757,1863,1853
1521,1890,1808
1869,1969,1840
2156,1968,1894
2107,1978,2003
2112,2011,2109
2170,2013,1904
1866,1932,1658
1984,2046,1866
2313,2037,1957
1639,1803,1762
1648,1904,1925
1890,1970,1915
2295,2005,1924
2188,1937,1781
1841,1926,1806
1883,1932,1877
1771,1889,1883
1743,1927,1856
2079,2062,2039
2282,1990,1898
1806,1885,1776
1885,1990,1920
2206,2064,2067
2129,1982,1986
1933,1877,1781
1831,1946,1760
1883,1933,1799
1920,1921,1819
2127,2000,1921
1889,1943,1920
1650,1909,1968
1830,1935,1945
2081,1971,1823
2064,1968,1817
2145,2020,1971
2112,2043,1955
2000,1968,1763
1947,1961,1836
1877,1954,1869
1824,1861,1871
1858,1909,1874
2062,2032,1951
2081,2022,1918
1939,1949,1904
1902,1922,1821
2127,2016,1899
1918,1941,1898
2013,1955,1859
2236,1986,1680
1669,1909,1890
1650,1925,1962
2082,1979,1956
2407,1978,1734
2059,1967,1835
1517,1915,1775
1697,1953,1883
1983,1966,1830
2071,1978,1770
2144,1949,1910
1847,1929,2013
1747,1909,1883
1971,1988,1875
2358,2085,1981
2070,2000,1912
1727,1919,1746
1810,1985,1759
2092,2031,1918
2014,1842,1771
1781,1849,1784
1831,1931,1998
2003,1967,1954
2169,1985,1981
1984,1983,1901
1866,2019,1822
1859,1886,1750
1981,1914,1875
1947,1880,1893
1917,1972,1808
2095,2122,1921
2102,1963,1867
1693,1766,1717
1587,1868,1842
2058,2067,2087
2167,2011,1936
1921,1903,1746
1863,1902,1667
1840,1975,1919
1964,2007,1943
2085,1990,1858
2323,2079,1904
1919,1868,1699
1718,1879,1856
1898,1952,1968
2020,1983,1966
1989,1962,1927
1802,1937,1939
1781,1923,1733
1943,1937,1726
2267,2047,1869
1947,1877,1814
1609,1918,1891
1927,2015,1995
2225,1966,1966
1789,1908,1838
1773,1989,1943
1857,1908,1781
2303,2064,1814
1847,1904,1785
1718,1927,1936
1962,1906,1886
2128,1954,1927
2124,1931,1766
1865,2022,1936
1766,2031,1938
1934,1915,1807
1959,1900,1852
1771,1846,1738
2109,1998,1818
2114,1975,1922
1817,1936,1904
1997,2010,2003
1744,1914,1926
1812,1938,1840
2010,1935,1821
1954,1984,1877
1926,1943,1825
1965,1968,1879
1996,1978,1901
1925,2000,1943
2014,2047,1946
1823,1831,1722
1710,1831,1748
1866,1899,1803
2034,2009,2002
2063,1954,1822
2039,2000,1839
1906,1997,1846
1947,1984,1934
1761,1925,1911
1840,1918,1941
2162,1961,1925
2095,1856,1621
1770,1949,1973
1813,2025,2019
2096,2079,1889
1922,1846,1694
1809,1872,1856
1844,1971,1858
2169,2100,1933
2094,2000,2000
1757,1904,1947
1820,2003,1902
1994,1943,1726
1750,1823,1717
1722,1880,1857
2095,2119,2089
2197,1966,1904
1782,1843,1854
1761,1968,2035
2269,2161,2025
2288,1971,1609
1726,1857,1686
1776,2027,2039
1951,1954,1904
2109,2010,2174
1943,1910,1810
1772,1935,1861
1757,1943,1984
1950,1977,2030
2114,2026,1789
1857,1823,1698
1799,1825,1978
2217,2127,1911
2124,2032,1826
2055,1999,1867
1906,2016,1943
1925,1809,1799
1530,1796,1791
1744,2014,2082
2170,1997,1965
2117,1983,1922
1905,1937,1858
1814,1965,1882
1755,1974,1931
1910,1961,1899
1968,2022,1905
1979,2000,2064
2034,2021,1905
1904,1927,1868
2071,1949,1743
2136,1921,1702
1792,1872,1902
1623,1904,2025
1795,2006,1955
2065,2042,1936
1997,1952,1987
2029,1973,1780
2145,2074,1806
1969,1999,1897
1866,2000,1927
1959,1879,1769
1845,1845,1808
1703,1907,1955
1811,2026,2100
2193,2000,2062
2256,1947,1879
1856,1920,1845
1459,1872,1810
1951,1933,1743
2221,2023,1883
1715,1955,1997
1753,1973,1813
2091,1989,1760
1869,1899,1887
1808,1919,2074
2414,2038,1915
2241,1967,1873
1995,1901,1791
1847,2001,1833
1472,1947,1968
1739,1983,1994
2131,1950,1918
2091,1848,1622
2013,1995,1874
1841,2015,1901
1731,1872,1807
1591,1840,1856
1672,1895,1861
1990,2131,1829
2256,2005,1875
1947,1921,1946
1746,1971,1818
1918,2032,1936
2177,1973,1745
2119,1921,1690
1712,1747,1767
1807,1869,1813
2073,1975,2151
1815,1954,1923
1747,2030,1903
2060,2000,1872
1885,1943,1910
2101,2042,1925
1901,1950,1855
1765,1823,1787
1749,1841,1654
1781,1967,1842
2060,2000,1906
2146,1952,2032
1929,2064,1954
1973,1977,1865
1895,1950,1808
