1847,1774,1698
1859,1775,1733
1841,1766,1695
1833,1777,1675
1831,1777,1696
1847,1792,1728
1830,1776,1694
1809,1763,1659
1820,1767,1687
1822,1766,1713
1819,1765,1689
1807,1773,1663
1864,1774,1698
1819,1776,1714
1809,1775,1700
1793,1753,1649
1829,1757,1680
1808,1744,1690
1729,1749,1659
1780,1756,1646
1810,1776,1701
1791,1796,1744
1777,1757,1675
1774,1742,1635
1806,1743,1673
1766,1755,1712
1761,1759,1689
1813,1781,1671
1840,1792,1709
1823,1776,1717
1758,1749,1665
1765,1754,1645
1750,1773,1693
1791,1773,1721
1788,1783,1701
1749,1746,1639
1766,1746,1663
1780,1766,1711
1799,1774,1693
1751,1763,1648
1793,1761,1677
1757,1759,1714
1771,1763,1702
1754,1776,1685
1793,1790,1714
1754,1756,1713
1718,1744,1678
1744,1766,1666
1744,1781,1705
1797,1791,1742
1743,1769,1692
1714,1737,1642
1745,1757,1690
1772,1776,1739
1775,1744,1693
1744,1741,1660
1728,1759,1699
1726,1776,1744
1751,1774,1712
1752,1776,1694
1771,1776,1718
1791,1778,1747
1757,1792,1729
1723,1773,1686
1686,1781,1700
1729,1772,1728
1746,1774,1711
1726,1775,1687
1783,1799,1744
1772,1793,1754
1687,1776,1699
1692,1731,1642
1696,1752,1686
1776,1790,1751
1760,1763,1706
1746,1765,1680
1739,1782,1726
1743,1781,1744
1702,1774,1706
1706,1776,1682
1726,1791,1728
1779,1798,1758
1718,1798,1725
1712,1807,1710
1754,1802,1725
1776,1787,1741
1723,1783,1712
1739,1808,1712
1767,1797,1722
1733,1805,1759
1712,1778,1711
1677,1759,1648
1697,1779,1703
1728,1803,1759
1731,1808,1747
1731,1817,1717
1714,1795,1714
1703,1791,1744
1701,1798,1728
1729,1809,1722
1754,1833,1764
1759,1821,1774
1744,1808,1719
1712,1814,1708
1730,1820,1749
1743,1817,1770
1727,1815,1744
1759,1833,1721
1763,1855,1777
1735,1821,1782
1715,1822,1746
1702,1801,1713
1701,1798,1723
1726,1810,1776
1713,1808,1748
1710,1803,1712
1726,1811,1737
1746,1831,1778
1712,1809,1725
1696,1798,1694
1791,1824,1747
1768,1835,1790
1737,1847,1769
1719,1846,1736
1709,1836,1765
1777,1838,1789
1769,1849,1776
1730,1860,1759
1749,1862,1776
1682,1830,1776
1712,1840,1753
1745,1849,1743
1761,1856,1786
1754,1849,1803
1712,1840,1761
1747,1842,1751
1774,1861,1793
1753,1855,1806
1763,1857,1789
1664,1835,1732
1707,1841,1747
1719,1853,1786
1751,1840,1761
1664,1860,1759
1757,1889,1808
1764,1885,1826
1728,1856,1776
1719,1853,1744
1727,1861,1783
1754,1866,1810
1736,1862,1788
1744,1878,1764
1751,1883,1793
1734,1861,1802
1712,1855,1776
1719,1881,1761
1755,1893,1803
1776,1904,1840
1768,1913,1819
1715,1873,1748
1715,1857,1762
1698,1835,1766
1675,1854,1768
1746,1886,1770
1733,1892,1795
1739,1883,1803
1722,1875,1776
1739,1884,1763
1742,1875,1776
1775,1879,1804
1742,1887,1793
1680,1903,1779
1759,1904,1804
1808,1898,1826
1735,1878,1783
1744,1883,1769
1763,1904,1808
1766,1890,1835
1744,1882,1791
1739,1881,1764
1746,1889,1791
1755,1890,1827
1767,1909,1831
1793,1937,1833
1744,1888,1793
1702,1846,1773
1711,1826,1741
1728,1869,1757
1769,1919,1819
1778,1904,1856
1751,1885,1788
1725,1872,1751
1750,1882,1803
1774,1904,1840
1769,1901,1819
1765,1904,1792
1781,1904,1818
1785,1903,1842
1789,1905,1833
1772,1904,1808
1791,1931,1849
1774,1899,1847
1744,1875,1791
1753,1894,1776
1791,1932,1840
1787,1925,1855
1745,1889,1801
1739,1877,1774
1775,1911,1812
1757,1883,1814
1744,1877,1795
1754,1899,1793
1782,1914,1835
1790,1914,1859
1782,1906,1822
1788,1905,1796
1793,1916,1840
1777,1909,1854
1765,1897,1808
1776,1906,1795
1792,1917,1850
1814,1942,1892
1808,1935,1857
1733,1855,1748
1727,1845,1760
1760,1872,1827
1788,1893,1838
1805,1914,1820
1794,1904,1835
1776,1899,1840
1764,1890,1810
1758,1877,1779
1777,1899,1823
1797,1909,1862
1782,1915,1835
1767,1900,1795
1772,1908,1823
1790,1911,1852
1798,1907,1825
1803,1907,1808
1808,1918,1840
1802,1906,1857
1796,1904,1831
1808,1936,1824
1809,1925,1856
1777,1889,1840
1746,1856,1781
1771,1883,1776
1811,1909,1830
1819,1920,1870
1817,1910,1846
1802,1908,1803
1792,1887,1819
1782,1886,1840
1787,1889,1820
1782,1885,1798
1808,1897,1833
1815,1914,1873
1809,1904,1851
1783,1875,1808
1803,1887,1840
1808,1890,1860
1808,1900,1837
1795,1904,1810
1814,1920,1854
1869,1954,1914
1786,1889,1826
1756,1871,1779
1799,1898,1836
1810,1904,1872
1823,1903,1850
1835,1911,1840
1835,1926,1877
1819,1935,1883
1773,1876,1823
1756,1850,1777
1797,1884,1826
1810,1897,1872
1814,1904,1851
1818,1913,1826
1825,1920,1859
1818,1919,1887
1810,1911,1855
1812,1915,1831
1834,1930,1867
1830,1919,1888
1825,1913,1854
1830,1934,1844
1814,1926,1849
1801,1893,1859
1808,1900,1846
1819,1918,1836
1844,1923,1869
1840,1910,1879
1788,1872,1811
1775,1872,1781
1808,1895,1844
1830,1904,1874
1823,1898,1855
1826,1907,1834
1842,1919,1871
1845,1914,1886
1840,1919,1862
1852,1935,1858
1827,1902,1854
1832,1909,1885
1833,1914,1861
1780,1871,1793
1815,1877,1827
1826,1906,1879
1828,1910,1859
1830,1919,1847
1855,1935,1879
1827,1904,1877
1797,1885,1824
1813,1894,1817
1839,1893,1850
1845,1903,1879
1840,1908,1856
1831,1891,1830
1840,1901,1857
1849,1911,1883
1859,1931,1882
1866,1930,1865
1809,1866,1830
1813,1861,1853
1839,1879,1850
1873,1917,1858
1849,1847,1859
1817,1855,1861
1827,1842,1839
1839,1904,1831
1870,1919,1857
1888,1947,1892
1857,1872,1860
1808,1909,1799
1818,1891,1827
1840,1909,1872
1856,1914,1871
1872,1915,1862
1850,1894,1853
1840,1905,1868
1822,1909,1838
1821,1884,1808
1843,1886,1857
1855,1904,1882
1863,1909,1865
1847,1934,1826
1859,1904,1852
1866,1900,1885
1858,1905,1869
1861,1907,1839
1870,1961,1871
1883,1943,1897
1858,1906,1859
1840,1866,1834
1851,1892,1851
1861,1936,1887
1872,1919,1886
1871,1925,1855
1833,1892,1843
1841,1899,1875
1858,1877,1863
1834,1844,1817
1840,1904,1840
1843,1901,1871
1847,1895,1857
1852,1925,1827
1873,1873,1853
1877,1921,1885
1866,1917,1857
1839,1895,1821
1855,1937,1853
1867,1914,1885
1847,1873,1847
1862,1906,1831
1873,1920,1863
1861,1887,1883
1866,1919,1854
1867,1951,1837
1862,1902,1846
1872,1858,1866
1853,1863,1818
1834,1852,1798
1846,1892,1850
1858,1915,1879
1846,1902,1835
1863,1895,1818
1866,1923,1854
1856,1873,1868
1855,1965,1839
1862,1934,1837
1872,1914,1860
1867,1921,1872
1863,1920,1838
1867,1931,1821
1891,1961,1872
1874,1946,1876
1877,1942,1847
1856,1934,1808
1850,1938,1822
1862,1947,1856
1869,1933,1845
1861,1966,1813
1874,1990,1840
1873,1991,1869
1871,1972,1840
1858,1982,1803
1883,1993,1841
1875,2004,1879
1866,2010,1845
1874,2042,1819
1856,2034,1823
1856,2058,1839
1869,2109,1837
1890,2059,1840
1872,2160,1839
1840,2161,1843
1862,2224,1839
1854,2297,1808
1856,2165,1823
1862,2305,1840
1861,2243,1828
1856,2222,1809
1859,2271,1835
1865,2256,1865
1872,2269,1842
1862,2289,1807
1874,2294,1839
1875,2295,1865
1865,2310,1853
1871,2324,1828
1856,2278,1814
1843,2261,1828
1857,2353,1819
1858,2287,1792
1869,2304,1845
1857,2367,1863
1859,2298,1840
1863,2199,1817
1874,2275,1853
1868,2260,1866
1872,2290,1839
1879,2300,1821
1874,2289,1843
1869,2270,1873
1871,2287,1847
1872,2272,1828
1890,2257,1851
1863,2237,1846
1839,2243,1806
1856,2258,1809
1901,2256,1874
1894,2323,1897
1853,2277,1838
1853,2196,1807
1860,2224,1845
1859,2195,1861
1855,2217,1840
1872,2225,1843
1889,2220,1866
1883,2210,1879
1847,2195,1840
1863,2272,1840
1870,2224,1859
1872,2206,1878
1839,2167,1812
1831,2139,1792
1870,2177,1853
1907,2235,1926
1856,2183,1842
1817,2133,1771
1856,2135,1828
1875,2153,1871
1885,2167,1859
1878,2169,1835
1882,2170,1869
1886,2170,1888
1893,2189,1871
1899,2159,1855
1863,2149,1839
1850,2111,1865
1851,2128,1858
1849,2143,1829
1875,2114,1851
1875,2093,1862
1869,2029,1845
1855,2067,1825
1859,2098,1850
1867,2038,1871
1862,2083,1854
1868,2098,1843
1887,2074,1858
1894,2091,1878
1889,2081,1867
1904,2093,1855
1903,2066,1863
1869,2064,1867
1825,2004,1817
1839,2017,1804
1882,2033,1863
1894,2062,1901
1858,2030,1847
1851,2010,1805
1891,2032,1861
1850,1983,1845
1846,1984,1817
1886,2011,1840
1899,2000,1863
1870,1975,1876
1840,1975,1839
1857,1996,1831
1875,1982,1857
1864,1955,1866
1865,1984,1851
1870,1979,1840
1859,1942,1837
1861,1943,1870
1899,2000,1889
1890,1994,1872
1859,1938,1840
1849,1911,1846
1814,1920,1825
1840,1936,1828
1895,1949,1870
1874,1929,1872
1830,1915,1840
1827,1918,1839
1868,1921,1850
1886,1936,1874
1898,1968,1885
1853,1918,1829
1823,1858,1808
1858,1874,1856
1872,1910,1873
1886,1939,1870
1872,1903,1856
1870,1872,1860
1859,1882,1852
1872,1912,1853
1904,1920,1885
1886,1871,1865
1850,1865,1825
1857,1899,1840
1872,1889,1859
1847,1859,1856
1852,1887,1866
1847,1887,1851
1840,1851,1850
1840,1842,1869
1843,1866,1842
1842,1865,1823
1878,1872,1872
1899,1883,1905
1835,1841,1840
1817,1834,1810
1872,1856,1871
1910,1903,1921
1813,1820,1817
1799,1813,1791
1864,1857,1863
1869,1840,1892
1814,1812,1823
1849,1867,1838
1839,1822,1835
1826,1808,1840
1811,1818,1819
1839,1839,1823
1861,1841,1856
1874,1858,1893
1850,1841,1846
1853,1845,1840
1851,1825,1850
1845,1822,1860
1825,1821,1822
1839,1834,1813
1861,1833,1847
1857,1837,1863
1859,1840,1856
1883,1877,1856
1873,1871,1872
1773,1753,1792
1774,1756,1771
1827,1811,1801
1869,1831,1850
1862,1835,1877
1858,1830,1847
1856,1839,1829
1871,1840,1849
1867,1838,1878
1850,1808,1835
1866,1819,1813
1878,1833,1861
1855,1799,1859
1846,1819,1834
1843,1805,1797
1840,1795,1839
1861,1795,1847
1897,1820,1835
1872,1808,1797
1831,1783,1808
1839,1787,1855
1866,1808,1854
1840,1783,1792
1845,1782,1819
1859,1807,1867
1863,1792,1831
1874,1806,1823
1885,1823,1862
1881,1824,1872
1837,1778,1805
1843,1785,1796
1875,1817,1850
1877,1798,1866
1818,1732,1787
1833,1750,1777
1858,1793,1840
1871,1793,1875
1871,1795,1840
1872,1803,1815
1908,1846,1881
1883,1831,1890
1831,1755,1799
1808,1744,1763
1849,1783,1834
1891,1826,1901
1877,1799,1847
1833,1759,1766
1855,1792,1814
1893,1824,1882
1859,1775,1819
1840,1771,1777
1863,1790,1824
1870,1776,1853
1871,1779,1834
1871,1792,1814
1891,1812,1870
1886,1807,1870
1878,1796,1826
1861,1782,1795
1868,1808,1839
1877,1814,1872
1865,1797,1830
1869,1809,1810
1884,1818,1857
1866,1806,1865
1875,1802,1835
1872,1807,1815
1883,1824,1861
1887,1840,1883
1911,1855,1872
1856,1794,1791
1825,1776,1794
1828,1773,1824
1847,1781,1810
1872,1807,1815
1873,1804,1835
1872,1815,1856
1882,1822,1840
1879,1814,1806
1901,1840,1872
1854,1796,1845
1839,1782,1795
1856,1810,1792
1881,1827,1849
1911,1867,1888
1904,1839,1859
1814,1767,1766
1825,1793,1808
1835,1789,1828
1872,1825,1835
1860,1824,1807
1883,1852,1856
1899,1861,1904
1840,1785,1818
1846,1799,1793
1846,1805,1819
1841,1789,1838
1872,1817,1857
1866,1843,1823
1839,1811,1810
1841,1810,1844
1856,1799,1824
1860,1822,1819
1882,1845,1860
1851,1809,1855
1862,1815,1826
1887,1835,1825
1904,1861,1872
1895,1860,1898
1838,1799,1806
1829,1797,1768
1840,1794,1808
1857,1801,1840
1872,1812,1821
1891,1853,1840
1895,1863,1863
1864,1829,1843
1846,1812,1791
1857,1818,1783
1862,1813,1814
1872,1824,1859
1887,1842,1840
1904,1860,1831
1890,1872,1860
1842,1822,1840
1830,1797,1786
1856,1822,1779
1886,1861,1851
1874,1850,1872
1862,1826,1824
1862,1829,1803
1869,1839,1840
1881,1840,1872
1881,1840,1843
1888,1860,1828
1903,1872,1860
1890,1859,1862
1883,1862,1835
1854,1833,1807
1858,1853,1823
1842,1832,1830
1841,1799,1793
1829,1801,1759
1850,1837,1830
1885,1856,1881
1865,1833,1831
1870,1847,1819
1884,1873,1861
1841,1823,1840
1839,1809,1824
1846,1813,1789
1866,1831,1833
1872,1835,1866
1902,1862,1873
1855,1830,1806
1838,1820,1808
1868,1838,1855
1884,1837,1834
1936,1914,1877
1925,1908,1883
1798,1767,1773
1770,1744,1743
1815,1791,1769
1869,1825,1837
1881,1850,1875
1893,1861,1856
1881,1861,1825
1877,1859,1846
1870,1834,1835
1889,1846,1827
1891,1851,1811
1879,1856,1851
1883,1870,1875
1885,1845,1834
1903,1877,1830
1915,1888,1876
1845,1818,1827
1840,1824,1798
1871,1847,1806
1872,1851,1834
1899,1870,1872
1911,1881,1863
1858,1831,1787
1851,1840,1810
1866,1857,1854
1857,1835,1808
1872,1838,1794
1895,1861,1841
1882,1870,1875
1879,1872,1857
1903,1891,1840
1940,1937,1911
1860,1847,1860
1840,1829,1804
1892,1888,1822
1855,1840,1813
1836,1820,1826
1862,1835,1818
1881,1862,1822
1903,1897,1884
1904,1895,1894
1874,1859,1833
1888,1874,1823
1872,1862,1830
1873,1861,1866
1885,1873,1850
1904,1900,1844
1907,1909,1877
1936,1927,1915
1856,1840,1808
1832,1821,1761
1865,1848,1819
1904,1870,1872
1925,1888,1866
1934,1919,1862
1893,1869,1867
1855,1835,1814
1877,1856,1810
1896,1867,1820
1909,1899,1873
1936,1907,1911
1891,1869,1819
1861,1855,1793
1903,1911,1873
1928,1914,1911
1893,1872,1836
1846,1825,1767
1856,1839,1803
1919,1878,1910
1902,1872,1856
1879,1865,1792
1905,1885,1831
1882,1878,1855
1888,1876,1837
1904,1903,1822
1918,1918,1872
1902,1888,1873
1919,1903,1846
1889,1877,1824
1879,1879,1861
1862,1854,1855
1904,1870,1795
1903,1901,1749
1869,1878,1827
1831,1841,1840
1882,1859,1802
1894,1862,1790
1858,1849,1842
1871,1872,1903
1875,1881,1847
1874,1897,1819
1879,1901,1840
1919,1913,1872
1945,1935,1855
1890,1904,1840
1882,1900,1903
1883,1904,1833
1855,1863,1725
1891,1904,1773
1893,1959,1860
1873,1901,1853
1812,1855,1803
1808,1891,1805
1907,1967,1856
1811,1907,1843
1892,1925,1795
1887,1922,1759
1873,1904,1724
1883,1953,1818
1918,2028,1910
2015,2095,1990
2018,2040,1884
2032,1994,1731
2070,1953,1796
1830,1922,1703
1779,1941,1770
2120,1979,1771
2098,1924,1728
1872,1945,1822
1637,1923,1773
1857,1935,1767
2181,1978,1777
1919,1971,1759
2027,2071,2035
1946,2033,1927
1856,1933,1643
1975,2032,1899
1673,1920,1808
1887,1964,1687
2045,1950,1695
1766,1829,1598
1681,1840,1646
2010,1968,1941
2057,1974,1933
1561,1875,1616
1600,1877,1719
2084,2204,2098
1488,1827,1591
1437,1782,1333
2448,1975,1394
2079,1978,1878
1810,2005,1811
1392,1831,1615
1468,1677,1383
2321,1925,1681
1330,1461,821
994,1600,1103
1509,1634,1382
1746,1511,1296
1460,1231,393
656,1232,543
1017,1346,1017
1748,1583,1465
1856,1360,821
1357,1236,453
1561,1290,855
576,1158,899
453,1087,561
1190,1279,694
2081,1299,901
1350,1165,874
752,1312,1059
1344,1373,1283
1143,1008,283
719,1211,491
657,1142,643
1655,1136,560
1644,1264,902
1280,1289,911
743,1019,253
1782,1345,784
1180,1152,599
369,1084,355
478,982,167
1008,1178,394
2002,1418,622
1664,1318,756
2112,1439,806
957,898,91
301,900,213
821,1106,432
1386,1287,384
1520,1477,560
1792,1389,736
693,944,488
647,1056,364
1669,1238,477
1331,1262,486
1184,1423,912
1218,1292,710
1450,1290,336
858,1232,484
1232,1217,643
1359,1283,652
1598,1309,750
1444,1196,452
1148,1216,529
1439,1327,787
1015,1297,751
1360,1217,340
1455,1328,803
1391,1319,877
1367,1388,954
1397,1409,912
1227,1263,700
1318,1334,882
1481,1370,865
1967,1376,976
1481,1184,675
868,1216,728
1367,1393,1057
1904,1312,977
1040,1326,1086
991,1371,992
1695,1392,954
1660,1382,1114
1291,1339,1023
1465,1328,906
1697,1450,1248
1511,1428,1319
1309,1363,1098
1783,1403,1289
1476,1384,1274
1629,1436,1264
1425,1376,1051
1111,1367,1142
1314,1367,1150
1734,1451,1397
1662,1434,1491
1531,1518,1534
1606,1469,1207
1519,1392,1040
1487,1401,1381
1616,1563,1767
1932,1527,1683
1487,1493,1589
1341,1406,1463
1570,1473,1439
1571,1488,1396
1808,1507,1614
2112,1461,1535
2095,1453,1598
1211,1389,1699
1089,1661,1659
1404,1535,1501
1739,1417,1398
1839,1424,1525
1584,1488,1741
2149,1693,1925
1922,1558,1904
1435,1559,1762
1152,1434,1482
1408,1455,1535
1947,1445,1763
2036,1616,1689
1794,1648,1791
1507,1691,1968
1588,1633,1965
1968,1642,1965
2427,1707,2075
1778,1430,1701
1091,1504,1535
1286,1520,1699
1971,1564,1965
2349,1738,1939
1920,1619,1863
1209,1535,1747
1491,1708,1906
2431,1665,1745
1937,1523,1836
1331,1595,1957
1606,1680,1961
1987,1711,2016
1797,1682,2025
2005,1635,1808
1874,1635,1789
1664,1648,1825
1844,1599,1975
1619,1712,2047
1847,1841,1872
2056,1785,1923
1695,1530,1936
1535,1634,1812
1965,1843,1984
2161,1777,2029
1889,1666,1918
1558,1685,1855
1730,1751,1998
1877,1728,2022
1983,1719,1918
2094,1766,1969
2323,1835,2161
2211,1792,2119
1603,1655,1977
1358,1707,1887
2016,1802,2013
1885,1648,1806
1641,1755,2030
1826,1799,2064
2085,1857,2217
2381,1808,2018
1974,1744,1924
1680,1707,1872
1699,1786,2047
1859,1827,2295
1964,1822,2111
1902,1726,2004
2032,1729,2000
2352,1874,1978
1957,1745,2030
1535,1719,2112
2161,1936,2414
2123,1731,2198
1685,1655,1808
1535,1785,1849
2333,1917,2079
2439,1757,2165
1756,1687,2222
1744,1778,2310
2056,1877,2142
2000,1714,2064
2230,1794,2064
1839,1759,2128
1871,1777,2267
1973,1683,2128
1924,1678,2031
2126,1840,2271
1780,1712,2237
1813,1677,2015
2442,1814,2171
2125,1722,1973
1805,1584,1901
2015,1555,2341
1845,1643,2273
1700,1726,2189
1808,1721,2153
2251,1673,2369
2086,1653,2277
2000,1658,2232
1977,1590,2039
2398,1584,1930
2226,1600,2211
1741,1591,2460
1599,1584,2288
1941,1595,2294
2054,1607,2370
2203,1648,2258
1955,1635,2128
2149,1620,2210
2579,1490,1979
1786,1475,1867
1431,1511,2136
2018,1645,2381
2235,1638,2429
2221,1619,2381
2128,1601,2091
1837,1591,2191
1686,1487,2047
1913,1558,2111
2126,1535,2250
2155,1604,2323
2113,1648,2454
1987,1664,2288
1813,1665,2098
2077,1648,2210
2506,1620,2147
2016,1563,2298
1770,1632,2279
1936,1680,2288
2623,1777,2368
2186,1535,2102
1414,1503,2133
1573,1599,2215
2032,1646,2177
2439,1727,2162
2128,1610,2225
2071,1570,2096
2151,1680,2437
2107,1745,2363
1879,1742,2161
2018,1712,2282
2091,1653,2196
1888,1567,2027
1968,1659,2203
2292,1777,2270
2196,1663,2112
1718,1712,2247
2224,1802,2301
2325,1798,2302
1840,1659,2231
1726,1712,2199
2896,1931,2331
2130,1690,2190
1399,1642,2174
1649,1747,2125
2333,1845,2217
2098,1669,2081
2068,1671,2046
2258,1680,2214
1921,1765,2352
1819,1869,2285
1889,1807,2102
2366,1901,2159
2279,1750,2216
1851,1680,2145
1904,1738,2154
2122,1805,2263
2061,1840,2258
1971,1895,2226
2173,1899,2235
2462,1776,2153
2128,1808,2190
1774,1743,2135
1772,1758,1970
2064,1835,2135
2071,1814,2083
2150,1783,2212
2192,1894,2021
2150,1886,2115
2024,1856,2149
1695,1818,2137
2064,1859,2159
2249,1858,2224
2209,1757,2037
1952,1893,2033
1826,1939,2070
1966,1936,2167
1996,1906,2128
1972,1935,2126
2215,1878,2159
2091,1891,2047
1984,1840,1984
1870,1903,2254
1840,1872,2261
2304,1933,2081
2311,1920,2010
1984,1844,2192
1962,1869,2121
2170,1866,1992
2206,1906,1999
1874,1838,2096
1806,1910,2035
2283,2081,2128
2077,1915,1994
1863,1853,2071
2113,1812,1893
2159,1984,2256
2031,2032,2339
2093,1968,2154
2128,1889,1886
2093,1873,1949
1861,1875,2064
1985,1943,2205
2017,1883,2019
1930,1857,1791
2178,1871,2014
1919,1888,2053
1984,1999,2070
2275,1939,2096
2006,1846,2029
1867,1926,2032
2085,1904,2000
2022,1931,1984
1669,1910,2123
1823,1981,2080
2139,1967,2045
2507,1905,2066
2096,1825,1983
1762,1863,2053
1904,1957,1954
2057,1853,1973
2017,1897,2080
1760,1793,1740
1998,1878,1792
2462,1958,2175
2347,1984,2244
1931,1786,1856
1889,1882,1827
1901,1837,1795
1989,1865,2239
1840,1795,2192
2212,1997,2160
2083,1934,1996
1993,1841,1938
2143,1904,1919
2083,1871,1943
2253,1873,1974
2095,1682,1808
1763,1700,1888
1650,1767,2055
2099,1927,2088
2715,1927,2102
1989,1834,1982
1618,1808,2033
1899,1759,1782
2154,1666,1625
1938,1750,2077
2144,1889,2154
2224,1846,1783
2027,1786,1953
1890,1851,2032
1951,1837,2022
2128,1866,1809
1948,1879,2001
1898,1739,2030
2065,1824,1866
2066,1995,2041
1907,1827,2028
1783,1728,1872
2209,1792,1951
2075,1759,1801
1989,1887,1893
2094,1919,2155
1987,1683,1812
1959,1830,1906
1813,1808,1872
1947,1821,1806
2279,2022,2127
2197,1922,2160
2115,1859,2076
1763,1865,1911
1939,1810,1806
2118,1838,1841
2098,1949,1910
1871,1840,1961
1658,1753,1955
1802,1796,1951
2015,1866,1959
2253,1929,2031
2125,1983,1942
2006,1936,1818
2047,1904,1894
1984,1856,2149
1961,1883,1979
2103,1974,1965
2118,1902,1962
2074,1802,1703
1699,1862,1979
1968,1936,2224
2151,1904,1957
1969,1930,1832
2015,1968,1917
2064,1893,2063
2421,2035,2114
1897,1831,1707
1681,1830,1774
1950,1775,1831
1872,1810,1648
1651,1931,2022
1888,2067,2219
2416,2074,2118
2248,1820,1745
1889,1794,1761
1738,1893,1927
2209,1955,2031
2349,2039,1969
1778,1907,1841
1564,1842,1951
1830,1936,1920
2109,2004,2071
2277,1947,1950
2063,1977,1888
1975,2021,2005
1958,1917,1830
2002,1891,1850
2097,1954,1968
1966,2000,1967
1937,1950,1910
1979,1871,1892
1983,1808,1828
2165,1971,1879
2035,2043,1988
1726,1903,1872
1697,1815,1823
1869,1956,1825
1993,2030,1829
2115,1989,2068
2083,2011,2102
2109,1937,1932
1955,1984,1848
1872,1972,1978
1840,1866,1883
2015,1973,1907
1998,1995,1813
1891,1946,1775
1919,1963,1875
1943,1923,1856
1875,1950,1877
2129,2101,2064
2823,2091,2000
1655,1820,1515
1360,1862,1721
1787,1962,1930
1973,2034,1916
1919,1951,1895
1977,1941,1829
1984,1995,1945
2128,2038,1867
2240,2065,1872
2098,1958,1942
1705,1930,1826
1639,1998,1902
1889,2047,1921
2061,1979,1790
2034,2002,1859
1957,1856,1740
1787,1808,1595
1897,1921,1850
2192,2003,1872
1934,2003,1814
1857,1969,1898
2173,2005,1943
1754,1919,1942
1702,2009,1836
1894,1954,1530
2207,2060,1734
2013,1966,1986
1661,1936,1898
1930,2026,1886
2199,2014,1845
2036,2009,1920
1535,1975,1813
1617,1942,1875
1968,1998,1793
1943,2007,1716
2033,1941,1704
2243,1954,1744
1824,1915,1728
1824,1936,1840
1684,1985,1941
1856,1997,1863
2011,2017,1783
2258,2135,1917
1950,2022,1870
1717,2011,1862
1682,1968,1655
1920,1970,1840
1958,1920,1815
1968,1999,1889
2019,2011,1863
2000,2046,1709
1741,1967,1826
1639,1947,1865
1724,1985,1767
2012,2066,1881
2311,2095,1901
2098,1927,1680
1999,1951,1710
1783,1841,1661
1506,1951,1901
1774,2075,1997
2042,2001,1883
2021,1985,1746
1863,1974,1738
1831,1953,1734
1998,2089,1987
2085,2047,1892
1823,1982,1586
1758,1993,1623
1711,1990,1811
1915,1969,1833
1904,1981,1904
1842,1949,1838
2112,2027,1859
2031,1994,1872
1776,2001,1840
1812,1981,1811
1908,1953,1754
1876,1962,1801
1854,1997,1790
1907,1952,1691
2226,2013,1713
1870,2038,1895
1775,2013,1969
2074,2035,1874
1911,1942,1744
1583,1941,1829
1755,2018,1920
2134,1936,1786
2064,1915,1651
1661,1986,1840
1683,2014,1869
2057,2020,1886
2074,2033,1802
1779,1989,1810
1724,1952,1810
2035,2006,1727
1949,2019,1846
1982,2113,2015
1957,2001,1919
1955,1856,1677
1718,1919,1730
1761,1998,1845
1989,1937,1889
1987,1971,1830
1982,2094,1862
2261,2140,1929
1759,1870,1691
1562,1862,1697
1846,1936,1714
2022,2016,1963
1943,1985,1927
2011,2032,1858
1891,1958,1818
1755,1949,1682
1904,2059,1769
1960,2000,1812
1826,1884,1840
1695,1880,1818
1925,1983,1861
2225,1990,1740
2029,2018,1854
1706,1920,1850
1616,1920,1779
1730,1952,1793
2189,2042,1846
2305,2019,1952
1676,1879,1776
1421,1917,1728
1869,1969,1847
2203,2057,1807
2083,1990,1866
1808,1933,1815
1961,1968,1679
1738,1870,1713
2015,1990,1886
1974,1983,1815
1634,1905,1749
1759,2023,1910
1839,1950,1817
2025,1901,1790
2230,1995,1874
1901,1889,1808
1725,1984,1902
1744,1963,1843
2017,1984,1675
1987,2000,1902
1755,1921,1962
1931,1905,1744
1895,1919,1782
1990,1895,1755
1774,1984,1793
1836,2027,1926
1875,1939,1930
2096,2064,2011
1926,2003,1841
1746,1918,1791
1803,1820,1776
1975,1968,1837
1911,2007,1955
1847,1913,1775
1895,1872,1739
1763,1890,1782
1986,1968,1936
2227,1997,1922
1826,1936,1860
1758,2000,1943
1921,1968,1821
1791,1856,1744
1807,1933,1807
2047,2020,1823
2133,1843,1637
1728,1915,1867
1770,1978,2065
1999,1987,1851
1927,1933,1760
1786,1901,1738
1958,1928,1826
1664,1829,1731
1657,1897,1854
2037,1936,1865
2309,1975,1831
1808,1985,1874
1729,1947,1879
2010,1898,1642
1925,1904,1828
2111,2015,2058
2010,1849,1739
1470,1872,1649
1521,1917,1793
1974,1946,1811
1984,1924,1877
2192,2022,1911
1995,1925,1827
1756,1883,1899
1650,1839,1830
1744,1910,1840
2160,2026,2082
1930,1830,1808
1647,1857,1663
1825,1929,1776
2043,2003,1932
1961,2000,2037
1925,1933,1793
2450,1953,1808
2991,1923,1786
1599,1750,1650
662,1877,1842
1246,1971,1943
2142,1997,1966
2358,1920,1801
1751,1783,1622
1472,1826,1648
2189,2045,1814
1953,1938,1871
1535,1867,2032
1821,1995,1927
2071,1960,1819
2160,1904,1983
2153,1845,1941
1633,1916,1797
1754,1975,1865
2100,1968,1869
1776,1834,1796
1904,1990,1935
2346,1943,1872
2085,1930,1877
1808,1826,1813
1337,1819,1745
1691,1904,1827
2000,1915,1709
2121,1957,1877
1840,1922,1893
1878,1941,1853
1901,1824,1696
2083,1872,1974
1883,1858,1947
1776,1950,1978
1809,1968,1778
2229,1997,1879
2220,1890,1766
1643,1805,1639
1363,1849,1929
1714,1904,1950
2025,1886,1840
1865,1910,1787
2005,1859,1738
1968,1859,1856
1770,1895,1870
1911,1942,1813
2086,1883,1666
1980,1831,1729
1863,1904,1785
1906,1987,1973
2086,1995,2175
2000,1867,2000
1957,1982,2005
2043,2032,2112
1776,1857,1831
1623,1861,1859
1950,1872,1815
2192,1869,1815
1927,1866,1840
1741,1829,1712
1904,1925,1777
2109,2036,1925
1862,1936,1972
1822,1824,1717
1879,1861,1768
1779,1867,1839
