1879,1964,2054
1904,1975,2089
1897,1966,2043
1904,1981,2019
1882,1982,2014
1881,1984,2041
1875,1972,2007
1886,1971,1980
1882,1989,1998
1891,2000,2030
1884,1979,1994
1876,1977,1954
1875,1979,1975
1905,2005,2015
1898,1991,1975
1874,1979,1919
1882,2000,1945
1914,2026,1994
1929,2023,1973
1840,1946,1872
1831,1963,1887
1870,1985,1937
1893,1990,1922
1898,1997,1889
1889,2010,1918
1878,2001,1931
1889,1990,1904
1919,2019,1904
1901,2005,1903
1866,1976,1885
1863,1974,1871
1885,2007,1865
1898,2033,1889
1890,2027,1904
1878,1998,1857
1873,1987,1821
1871,2001,1845
1885,2014,1873
1895,2005,1863
1900,2011,1829
1892,2030,1846
1910,2042,1885
1917,2011,1856
1877,1986,1799
1871,1993,1805
1887,2003,1841
1908,2006,1840
1873,1984,1780
1885,2005,1810
1885,2003,1835
1904,2010,1837
1871,1982,1765
1855,1985,1771
1854,1991,1797
1871,1990,1806
1878,2006,1780
1863,2007,1781
1872,2005,1815
1899,2005,1809
1877,1991,1761
1863,2000,1779
1877,2032,1815
1842,1968,1761
1843,1958,1727
1858,1998,1761
1875,2004,1807
1879,1999,1793
1893,2007,1761
1855,1984,1740
1853,1987,1767
1871,1981,1765
1883,1984,1733
1885,2007,1770
1890,2012,1808
1872,1979,1765
1870,1968,1738
1862,1974,1758
1871,1978,1787
1879,1964,1767
1878,1968,1727
1878,1984,1757
1875,1981,1789
1879,1963,1773
1866,1953,1724
1869,1975,1753
1904,1999,1808
1856,1923,1738
1860,1923,1703
1867,1946,1741
1860,1947,1765
1877,1951,1759
1873,1939,1721
1855,1936,1728
1854,1941,1754
1859,1930,1740
1866,1935,1726
1872,1949,1743
1879,1942,1769
1884,1938,1744
1879,1939,1719
1855,1926,1727
1868,1927,1754
1863,1917,1743
1872,1919,1709
1872,1933,1733
1870,1935,1764
1872,1930,1741
1862,1907,1696
1855,1914,1715
1863,1917,1744
1871,1915,1734
1904,1948,1738
1893,1945,1755
1840,1905,1738
1825,1871,1687
1840,1885,1678
1881,1930,1745
1875,1933,1777
1862,1902,1722
1860,1904,1709
1859,1911,1730
1866,1921,1743
1883,1907,1707
1891,1905,1708
1883,1910,1713
1877,1929,1749
1871,1903,1785
1856,1878,1658
1883,1920,1717
1876,1905,1775
1884,1903,1742
1902,1910,1705
1853,1898,1686
1866,1911,1722
1872,1894,1790
1879,1883,1744
1882,1905,1754
1887,1919,1797
1890,1904,1764
1872,1898,1723
1859,1889,1734
1847,1880,1750
1858,1877,1740
1863,1878,1697
1885,1899,1730
1874,1904,1787
1871,1886,1759
1872,1881,1711
1877,1906,1751
1872,1904,1776
1875,1889,1763
1881,1895,1730
1893,1925,1774
1879,1918,1776
1870,1879,1741
1883,1874,1723
1861,1875,1742
1874,1891,1765
1926,1933,1821
1885,1889,1745
1851,1872,1732
1851,1881,1742
1865,1872,1759
1887,1887,1744
1881,1898,1762
1874,1888,1802
1877,1879,1793
1871,1879,1747
1875,1902,1741
1886,1904,1793
1889,1891,1767
1894,1894,1776
1893,1901,1805
1899,1918,1830
1898,1890,1786
1872,1869,1776
1873,1895,1777
1876,1897,1805
1895,1905,1797
1887,1893,1777
1871,1896,1759
1873,1899,1807
1885,1893,1786
1901,1904,1806
1879,1904,1776
1889,1915,1795
1885,1902,1791
1889,1904,1793
1875,1902,1755
1882,1909,1814
1872,1893,1780
1882,1906,1773
1873,1902,1783
1872,1903,1807
1872,1887,1788
1885,1904,1731
1910,1938,1805
1878,1905,1805
1872,1894,1783
1853,1884,1739
1863,1911,1771
1872,1910,1811
1877,1899,1809
1887,1901,1771
1882,1920,1790
1871,1911,1811
1878,1905,1801
1883,1910,1781
1883,1918,1799
1883,1919,1837
1872,1889,1791
1872,1892,1767
1885,1915,1794
1898,1924,1834
1876,1892,1823
1874,1893,1775
1891,1922,1805
1911,1936,1779
1908,1924,1839
1872,1899,1769
1841,1874,1759
1874,1897,1823
1902,1895,1822
1872,1877,1766
1873,1895,1787
1885,1915,1829
1891,1911,1822
1871,1891,1746
1863,1904,1779
1886,1918,1841
1904,1924,1844
1888,1899,1813
1869,1891,1790
1873,1901,1840
1885,1901,1818
1893,1911,1774
1893,1924,1818
1931,1947,1894
1908,1910,1783
1871,1884,1731
1854,1900,1783
1865,1901,1858
1893,1911,1824
1904,1922,1808
1873,1900,1801
1882,1907,1831
1902,1904,1839
1886,1899,1769
1886,1917,1808
1896,1921,1858
1908,1920,1857
1911,1927,1847
1903,1930,1855
1899,1911,1863
1873,1890,1837
1887,1903,1805
1891,1920,1826
1893,1911,1827
1898,1907,1847
1903,1911,1818
1892,1925,1819
1914,1934,1872
1916,1918,1861
1891,1903,1818
1882,1905,1811
1883,1909,1856
1900,1907,1865
1904,1911,1833
1910,1929,1829
1922,1934,1883
1899,1904,1856
1903,1905,1819
1904,1941,1817
1888,1915,1867
1877,1885,1903
1889,1902,1808
1914,1935,1879
1926,1942,1876
1889,1902,1838
1872,1893,1843
1879,1920,1840
1893,1921,1840
1895,1910,1866
1935,1937,1842
1949,1982,1887
1869,1905,1847
1856,1874,1829
1863,1887,1805
1879,1919,1830
1900,1926,1879
1907,1915,1872
1925,1923,1851
1926,1938,1871
1888,1922,1870
1893,1919,1857
1872,1888,1804
1882,1907,1824
1921,1937,1879
1932,1935,1877
1893,1906,1813
1897,1923,1842
1908,1938,1895
1910,1919,1875
1908,1915,1845
1905,1945,1868
1914,1934,1887
1891,1904,1849
1941,1939,1855
1919,1949,1871
1861,1918,1863
1856,1895,1840
1893,1921,1840
1890,1933,1845
1904,1945,1889
1856,1908,1847
1878,1910,1819
1953,1947,1870
1920,1922,1874
1921,1903,1857
1845,1916,1835
1911,1937,1861
1872,1952,1908
1930,1936,1891
1893,1936,1840
1939,1939,1857
1936,1950,1883
1939,1943,1883
1951,1957,1857
1888,1949,1866
1939,1965,1902
1871,1921,1858
1872,1902,1813
1857,1922,1843
1922,1930,1887
1889,1904,1849
1920,1926,1840
1949,1968,1886
1888,1923,1877
1861,1889,1849
1894,1903,1831
1862,1937,1872
1932,1952,1906
1914,1936,1894
1947,1936,1863
1923,1936,1867
1918,1951,1902
1921,1951,1904
1920,1933,1861
1925,1943,1867
1920,1945,1898
1917,1929,1888
1929,1949,1870
1919,1952,1872
1904,1947,1895
1908,1936,1875
1918,1935,1844
1893,1938,1854
1845,1920,1858
1898,1926,1871
1926,1955,1864
1886,1940,1859
1902,1943,1895
1897,1937,1874
1925,1930,1840
1907,1940,1857
1901,1962,1904
1890,1953,1887
1906,1938,1843
1857,1952,1854
1888,1971,1908
1875,1947,1887
1936,1942,1855
1935,1958,1854
1941,1974,1904
1963,1934,1877
1905,1916,1828
1899,1961,1865
1951,1954,1898
1881,1930,1870
1904,1927,1840
1913,1953,1860
1918,1956,1894
1920,1943,1886
1920,1953,1849
1927,1983,1895
1937,1967,1915
1933,1936,1875
1953,1927,1827
1910,1966,1859
1920,1968,1904
1907,1936,1877
1891,1922,1822
1910,1954,1847
1926,1954,1893
1951,1963,1903
1964,1977,1873
1873,1935,1825
1869,1923,1854
1900,1930,1867
1900,1927,1842
1923,1954,1869
1949,1958,1893
2010,1934,1871
1883,1930,1835
1877,1946,1857
1906,1951,1898
1909,1940,1888
1929,1953,1857
1914,1947,1861
1977,1927,1873
1920,1936,1879
1920,1926,1846
1917,1942,1855
1933,1965,1904
1917,1934,1881
1898,1904,1823
1905,1927,1850
1924,1951,1901
1922,1940,1885
1973,1936,1846
1893,1949,1867
1904,1939,1893
1915,1934,1879
1961,1962,1863
1889,1955,1872
1968,1931,1882
1869,1914,1860
1891,1915,1826
1936,1959,1857
1983,1955,1895
1946,1938,1877
1927,1927,1827
1949,1926,1837
1886,1927,1879
1930,1925,1883
1941,1918,1847
1936,1936,1863
1909,1943,1904
1953,1943,1904
1920,1911,1840
1945,1917,1845
1916,1934,1887
1913,1919,1875
1971,1920,1840
1934,1935,1851
1840,1943,1897
1890,1927,1887
1898,1935,1862
1917,1943,1870
2027,1968,1904
1893,1903,1862
1872,1872,1805
1888,1889,1823
1915,1921,1879
1933,1930,1895
1930,1919,1856
1920,1926,1857
1954,1930,1889
1951,1924,1889
1916,1904,1839
1919,1921,1847
1933,1935,1899
1935,1921,1891
1932,1914,1840
1906,1934,1855
1925,1942,1899
1919,1923,1885
1911,1903,1835
1919,1920,1850
1922,1941,1903
1971,1957,1919
1808,1897,1836
1921,1883,1818
1918,1902,1872
1929,1915,1883
1936,1914,1863
1936,1936,1881
1932,1937,1904
1923,1915,1891
1925,1905,1856
1911,1907,1861
1928,1930,1914
1933,1910,1893
1921,1904,1849
1909,1913,1859
1933,1930,1905
1938,1920,1915
1943,1919,1882
1950,1938,1894
1934,1919,1911
1917,1888,1876
1920,1897,1855
1946,1939,1899
1936,1911,1903
1939,1903,1894
1907,1872,1843
1905,1901,1859
1929,1909,1904
1947,1910,1906
1937,1906,1872
1925,1919,1875
1936,1922,1906
1948,1913,1904
1945,1913,1869
1926,1920,1877
1931,1929,1905
1941,1906,1902
1942,1910,1870
1947,1943,1897
1909,1899,1898
1911,1884,1887
1930,1880,1853
1933,1915,1870
1946,1938,1920
1919,1904,1889
1911,1887,1843
1919,1914,1859
1964,1938,1922
1999,1946,1935
1921,1892,1842
1889,1893,1834
1919,1901,1888
1926,1901,1899
1926,1904,1862
1934,1918,1872
1938,1922,1904
1923,1899,1879
1936,1903,1857
1936,1931,1877
1913,1920,1893
1919,1908,1875
1933,1915,1863
1920,1917,1865
1924,1921,1894
1930,1920,1893
1936,1910,1853
1907,1902,1841
1915,1906,1889
1936,1910,1884
1931,1903,1840
1934,1921,1869
1927,1925,1886
1919,1913,1873
1920,1910,1845
1920,1926,1867
1911,1918,1887
1915,1905,1878
1927,1911,1856
1921,1920,1867
1926,1931,1904
1941,1936,1907
1915,1901,1842
1927,1925,1863
1945,1937,1909
1936,1910,1886
1927,1904,1843
1936,1942,1869
1915,1917,1877
1896,1883,1853
1931,1906,1845
1939,1928,1857
1918,1926,1885
1936,1934,1904
1936,1934,1869
1905,1905,1840
1903,1905,1869
1920,1904,1872
1920,1904,1838
1943,1939,1874
1967,1961,1933
1934,1921,1889
1887,1887,1817
1895,1913,1840
1922,1923,1885
1963,1933,1905
1927,1919,1842
1904,1921,1840
1914,1931,1885
1933,1940,1893
1922,1920,1851
1925,1933,1853
1942,1945,1895
1936,1935,1873
1907,1904,1815
1888,1907,1822
1920,1935,1887
1936,1936,1898
1969,1951,1874
1906,1913,1846
1898,1920,1869
1905,1907,1871
1926,1922,1856
1943,1950,1868
1929,1938,1879
1910,1922,1879
1915,1922,1854
1919,1937,1870
1957,1968,1926
1959,1949,1919
1919,1937,1861
1863,1911,1819
1874,1917,1856
1901,1918,1873
1910,1915,1841
1914,1932,1856
1923,1941,1878
1901,1916,1851
1937,1941,1851
1964,1967,1886
1889,1913,1867
1887,1903,1865
1934,1934,1858
1981,1980,1898
1885,1910,1861
1878,1905,1853
1939,1949,1874
1927,1935,1852
1901,1927,1870
1953,1963,1904
1899,1904,1822
1855,1899,1808
1904,1949,1877
1933,1942,1877
1915,1936,1840
1936,1968,1874
1873,1927,1858
1873,1915,1843
1916,1927,1840
1935,1968,1868
1904,1938,1875
1936,1951,1891
1942,1927,1865
1911,2005,1856
1872,1946,1861
1876,1889,1849
1904,1906,1834
1925,1953,1859
1904,1955,1887
1921,1958,1890
1935,1962,1856
1863,1963,1819
1883,1984,1862
1881,1991,1856
1907,1951,1852
1963,1920,1839
1960,1955,1861
1869,1937,1854
1847,1947,1852
1897,1983,1863
1843,1940,1859
1845,1953,1831
1921,1951,1791
2065,2013,1873
1968,2001,1900
1814,1939,1879
1871,2014,1888
1935,2032,1904
1937,1997,1854
2087,2032,1890
1938,1923,1744
1802,1908,1725
1936,2000,1879
1870,1909,1788
1799,1931,1718
1856,1950,1703
1898,1930,1753
1994,1993,1791
2014,2015,1802
1833,1927,1712
1814,1935,1796
1842,1941,1760
1878,1936,1683
1961,1997,1774
2021,2030,1796
2047,1945,1648
1973,1943,1727
1771,1927,1719
1762,1959,1763
1822,2007,1742
2032,2013,1734
2105,2053,1829
2028,2076,1797
1726,1878,1590
1831,1968,1706
1907,1914,1739
1903,1914,1698
1935,1940,1705
1856,1963,1680
1789,1986,1774
1919,2037,1849
2122,1990,1818
1857,1930,1626
1728,1926,1662
1891,1970,1713
1958,1923,1689
1783,1909,1734
1797,1933,1744
1915,1963,1776
2064,1995,1851
1965,1933,1712
1808,1909,1635
1887,1977,1801
1821,1859,1681
1872,1890,1591
1741,1898,1666
1707,1891,1806
1967,1946,1859
2129,1941,1734
1867,1893,1680
1613,1899,1718
1797,1904,1758
1861,1845,1708
1807,1893,1645
1978,1984,1825
2005,1909,1776
1787,1843,1574
1776,1858,1714
1783,1783,1686
1875,1831,1616
1898,1855,1739
1841,1835,1777
1673,1745,1703
1717,1889,1747
2005,1909,1748
1891,1863,1749
1822,1874,1781
1689,1818,1694
1814,1866,1680
2151,1888,1762
1788,1805,1623
1462,1780,1685
1781,1849,1806
2145,1919,1913
1909,1751,1683
1535,1734,1535
1630,1794,1635
1883,1906,1805
1915,1805,1831
1718,1812,1826
1699,1904,1750
2160,1988,2011
2176,1879,1872
1749,1705,1615
1633,1841,1691
1808,1887,1729
1774,1825,1792
1617,1794,1785
1683,1847,1808
1872,1828,1835
2215,1984,2031
1991,1839,1780
1855,1798,1581
1683,1726,1684
1616,1754,1890
1655,1801,1825
1887,1811,1773
1966,1904,1879
1898,1871,1900
2085,1925,1939
2031,1755,1756
1877,1818,1746
1707,1744,1809
1535,1712,1924
1697,1819,1877
1907,1862,1799
2000,1893,1869
1872,1807,1906
1827,1818,1764
1942,1841,1840
2213,1841,1904
1947,1733,1706
1623,1705,1727
1559,1765,1831
1661,1767,1808
2075,1873,1774
2151,1783,1817
1747,1791,1777
1743,1872,1839
2102,1854,1861
1936,1767,1809
1776,1775,1686
1719,1787,1699
1898,1834,1861
2043,1904,1781
1822,1814,1743
1695,1737,1825
1782,1810,1949
1988,1839,1863
2224,1851,1795
1871,1848,1744
1823,1807,1794
1689,1712,1639
1862,1841,1781
1830,1826,1855
1894,1823,1881
2058,1818,1808
1920,1834,1830
2018,1830,2010
1962,1809,1840
1690,1760,1648
1857,1840,1763
2067,1859,1839
1901,1702,1726
1661,1721,1807
1887,1808,1995
2032,1845,1854
1875,1863,1909
1840,1788,1804
1897,1902,1840
1921,1888,1867
2032,1810,1840
2022,1808,1808
1777,1813,1887
1770,1867,1971
2010,1854,1888
2017,1826,1831
2002,1830,1815
1889,1813,1831
1821,1770,1885
1814,1789,1836
1993,1869,1915
2018,1858,1984
2042,1893,1995
1856,1827,1792
1808,1847,1796
1903,1840,1891
2073,1883,2087
2100,1855,1954
1866,1797,1869
1751,1807,1807
2000,1907,1919
2343,1955,1931
1968,1728,1816
1626,1770,1894
1696,1857,1917
1997,1964,2009
1957,1887,1903
1808,1802,1789
1877,1855,1914
2065,1907,1970
2271,1984,2065
2384,1914,1969
2061,1691,1770
1321,1789,1856
1465,1886,1923
2011,1920,1998
2131,1882,1998
2009,1875,1988
2270,1987,1955
2156,1834,1821
1713,1856,1906
1748,1874,1934
1789,1870,1921
1936,1878,1899
2143,1952,2001
1927,1840,1927
1787,1803,1936
1915,1891,1947
2461,2025,2002
2185,1839,1989
1490,1781,1806
1643,1856,1826
1985,1875,1926
2105,1943,1973
1907,1936,1999
1863,1937,2110
2145,1965,1966
2365,2010,2012
1968,1876,1930
1600,1839,1906
1776,1898,1947
2256,1982,1888
2029,1870,1901
1856,1882,2037
1858,1891,2000
2105,1966,1981
2117,1927,1939
1966,1815,1845
1712,1851,1950
1747,1849,1915
2094,1968,1942
2081,1995,2062
1898,1929,2037
1806,1840,1857
2129,1938,1923
2138,1969,2082
2169,2009,2112
2092,1856,1895
1872,1887,1841
1728,1950,1997
2103,1968,2026
1982,1827,1895
1685,1872,1882
1886,1985,2058
2350,1994,2075
2181,1881,1872
1634,1796,1818
1726,1857,1915
2032,1950,1927
1989,1956,2000
1895,1952,1961
2001,1953,2032
2054,1931,2039
2002,1897,1969
2187,2013,1968
2146,1986,1936
1875,1897,1999
1820,1921,2059
1824,1915,1968
1807,1872,1854
2027,1926,1933
2193,1986,1920
2096,1947,1969
1805,1903,2060
2002,1946,2032
2165,1890,1915
2081,1908,1935
1814,1894,1933
1732,1886,1969
1883,1904,2014
1953,1978,2080
2057,1994,2018
2198,1969,1939
2293,1991,1974
1936,1957,1988
1724,1889,2000
1882,1872,1907
2059,1908,1893
2001,1953,2027
2145,2011,2118
2253,1947,1969
1867,1842,1880
1700,1856,1872
1904,1914,1876
2208,1925,1936
2146,1986,2071
2256,1971,2082
1737,1842,1882
1609,1878,1940
1959,1905,1919
2178,1904,1936
1856,1945,2047
1808,1968,1983
2139,2014,2003
2102,1941,1950
1950,1898,1877
1943,1899,2006
1891,1930,1997
2026,1936,1922
2010,1905,1857
1995,1910,2000
1808,1915,1816
1862,1973,1962
2131,1922,2007
2160,2007,2064
2190,2047,2017
1871,1881,1854
2103,1914,1920
1895,1909,2057
1697,1922,1910
1851,1959,1928
2075,2000,2032
2135,1999,2062
2000,1895,1893
1879,1893,1898
1963,1937,1922
2083,1955,1968
1954,1916,1877
2109,1944,1966
1926,1904,1922
1982,1953,1955
2139,1999,2032
2115,1887,1977
1878,1920,2013
1664,1930,2001
1781,1941,1870
2096,1978,1933
2337,2000,1984
2195,1923,1867
1873,1881,1860
1838,1983,2045
2096,1953,2096
2204,1921,1986
1835,1894,1853
1653,1854,1811
1895,1911,1925
2110,1917,1917
2035,1952,1875
2054,2000,1958
2289,1986,1943
1874,1904,1962
1633,1861,1865
1801,1891,1911
2125,1981,2013
2129,1926,1877
1943,1932,1886
1901,1967,1987
1845,1949,1941
2032,1941,1941
2186,1921,1870
2259,1953,1975
1949,1931,1920
1587,1809,1776
1687,1868,1840
1978,1953,1985
2187,1985,1979
2037,1893,1898
1847,1898,1951
1904,1950,1933
2202,2031,2094
1983,1908,1895
1863,1939,1808
2035,1978,1855
1937,1912,1845
1900,1933,2002
2031,1917,1968
1988,1904,2000
1948,1961,1999
1974,1931,1927
1949,1927,1835
2047,1957,1914
2212,1964,1983
1840,1854,1733
1694,1929,1759
1787,1947,1888
2075,1966,2000
2154,1933,1890
1997,1921,1790
2000,2010,1979
2151,2029,2096
2032,1965,1975
1883,1877,1735
1909,1962,1968
1825,1918,1925
1756,1859,1761
1991,1934,1859
2089,1987,1917
2111,1971,1998
2193,1949,1978
1879,1928,1847
1901,2028,1999
2176,1942,1965
1888,1846,1929
1648,1886,1788
1739,1942,1791
2059,1997,1840
2322,2023,1934
2059,1951,2009
1785,1939,1900
1922,1926,1887
2006,1921,1921
2082,1989,1969
2095,1978,1968
1884,1936,1915
1734,1904,1769
1856,1921,1792
2126,1966,1984
2064,1988,1840
1870,1955,1863
1920,1914,1870
2123,1937,1921
1990,2019,2010
1874,1983,1838
1962,1962,1862
2005,1954,1886
2006,2003,1859
1978,1976,1923
1936,1891,1874
1872,1911,1841
2094,1971,1961
2149,1920,1812
2037,1982,1997
2089,2039,1982
1867,1872,1733
1713,1898,1984
1937,1947,1845
2212,1955,1866
2112,1984,1936
1851,1971,1924
1668,1919,1840
1821,1914,1808
2166,2012,1984
2495,2080,2189
1872,1839,1790
1482,1810,1634
1661,1890,1777
1942,1908,1907
2042,1949,1911
2287,2011,1935
2274,2001,1949
1818,1936,1901
1730,1922,1902
1857,1927,1907
1961,1973,1889
2023,1959,1950
2100,1964,1920
2129,2021,1917
1959,1930,1837
1930,1906,1775
1893,1917,1874
1938,2047,1999
2117,2103,2043
2294,2003,1909
1782,1807,1716
1601,1831,1718
1825,1907,1906
1977,1967,1975
2095,1995,1875
2093,1988,1885
1850,1947,1871
1951,1961,1916
1966,1955,1840
1967,1927,1842
2032,1965,1897
2121,1994,1993
1922,1965,1927
1921,1951,1820
1995,1968,1850
2087,1939,1942
2069,1997,1988
2189,2095,2046
2125,2012,1931
1819,1857,1789
1648,1783,1744
1731,1855,1820
1936,1935,1851
2067,1966,1861
2045,1927,1857
2030,1986,1902
2096,1999,1967
1809,1952,1984
1783,1934,1856
1957,1975,1829
2019,1965,1872
1999,1936,1939
2215,1974,1871
1995,1920,1808
1728,1932,1872
1857,1968,1919
2026,1955,1882
2060,1966,1887
1936,1926,1897
2010,1958,1874
2163,1981,1847
1958,1909,1889
1877,1890,1937
1909,1918,1850
2039,1997,1889
1922,1950,1815
1846,1906,1826
2099,1967,1883
2288,2006,1933
2141,1919,1856
1600,1868,1774
1654,1925,1870
2091,1991,1951
2184,1986,1900
1821,1951,1882
1785,1939,1866
1933,1939,1898
2038,1947,1897
2006,2001,1876
2096,1974,1862
1920,1910,1829
1837,1915,1835
1897,1949,1905
2033,1991,1911
2073,1947,1867
1970,1915,1886
1917,1907,1862
1821,1920,1862
1997,1968,1873
2017,2003,1936
2117,1986,1958
2033,1964,1897
1825,1885,1790
1771,1904,1757
1874,1919,1871
1933,1919,1857
2064,1968,1862
1996,1920,1826
2001,1921,1863
1931,1967,2006
1995,1956,1871
1935,1949,1828
1813,1903,1808
1889,1923,1873
2063,1948,1920
2044,1925,1813
1963,1929,1869
2027,1936,1938
2146,1955,1871
1902,1927,1858
1915,2005,1995
1999,1949,1924
1979,1920,1837
1975,1950,1855
1898,1872,1804
1845,1895,1807
2017,1968,1874
1903,1923,1869
1955,1957,1905
2074,1998,1968
1840,1904,1794
1900,1872,1771
1892,1941,1952
1935,1964,1999
1970,1942,1870
2134,1983,1831
2247,1989,1872
1847,1890,1890
1664,1895,1869
1812,1924,1867
1974,1945,1886
1999,1915,1814
1898,1887,1837
1826,1917,1911
2151,1990,2046
2398,1969,1900
1820,1898,1770
1535,1904,1779
1780,1941,1888
2181,1934,1868
2176,1942,1872
1936,1939,1868
1859,1939,1921
2000,1927,1927
2231,1937,1936
1775,1877,1810
1673,1925,1907
1760,1985,2011
2335,1979,1887
1885,1808,1648
1624,1876,1815
1834,1943,1947
1968,1968,1918
2168,1971,1906
2163,1933,1825
1783,1885,1883
1765,1909,1873
1981,2009,1983
2337,2041,2063
1984,1864,1808
1662,1854,1691
1680,1890,1803
1859,1941,1898
2099,1935,1887
2151,1943,1813
2007,1955,1919
1955,1967,1984
1837,1895,1873
1821,1897,1809
1887,1897,1843
1936,1915,1968
1940,1952,1942
1977,1994,1892
2148,1959,1779
1904,1935,1904
1868,1935,1936
1931,1904,1806
1907,1919,1829
1814,1929,1925
1898,1946,1947
2034,1904,1842
1919,1874,1840
1911,1945,1934
1998,1956,2013
2165,1951,1905
1927,1875,1693
1775,1878,1776
1808,1872,1859
1856,1923,1926
1938,1977,1913
1987,1941,1936
1869,1931,1915
1873,1914,1938
1897,1885,1840
2000,1946,1856
2015,1951,1939
1984,1913,1739
1774,1877,1766
1805,1931,1923
1968,1930,1929
2079,1951,1872
1967,1952,1907
1883,1955,1949
1950,1967,1952
1957,1879,1840
1788,1847,1855
1973,1965,1931
2083,1917,1894
1920,1903,1741
1827,1925,1761
1822,1935,1894
1946,1927,1940
2059,1945,1910
1955,1965,1877
1828,1936,1904
1839,1936,1911
1878,1891,1904
1869,1898,1902
1904,1939,1904
1935,1934,1863
2032,1937,1869
2017,2006,1911
1843,1896,1860
1872,1886,1820
1961,1867,1842
1939,1901,1901
1868,1937,1905
1904,1935,1903
1953,1911,1852
2090,1994,1899
1947,1920,1875
1822,1902,1890
2039,1936,1930
1955,1875,1791
1858,1889,1883
1763,1895,1936
1863,1941,1955
1958,1962,1921
2077,2026,1945
2119,1990,1933
1856,1851,1719
1855,1888,1812
1811,1915,1904
1940,1938,1936
2039,1939,1897
1856,1886,1844
1933,1919,1883
2141,1926,1840
1921,1861,1778
1812,1931,1855
1856,1965,1964
1872,1904,1861
1986,1890,1914
2016,1936,1945
1933,1904,1842
1831,1961,1882
1898,1909,1887
1850,1854,1792
1943,1903,1903
1931,1933,1886
1875,1921,1875
1942,1923,1865
1982,1967,1919
1857,1901,1895
1854,1872,1861
2032,1937,1859
2139,1968,1952
1946,1909,1942
1729,1859,1827
1802,1913,1872
2018,1963,1823
2093,1937,1801
1913,1903,1849
1905,1949,1906
1840,1894,1904
1903,1919,1926
2078,1989,1879
1894,1937,1826
1777,1904,1855
1824,1866,1915
1937,1887,1821
1971,1936,1840
1955,1918,1895
1996,1925,1954
1877,1916,1853
1845,1919,1799
1850,1897,1862
1861,1908,1977
1985,1898,1852
2033,1974,1923
1950,1990,1936
1951,2002,1909
1876,1885,1839
1987,1943,1921
2046,1926,1934
1898,1841,1824
1765,1845,1757
1846,1934,1859
1990,1955,1858
2016,1909,1828
1953,1952,1985
1872,1946,1957
1936,1934,1845
1936,1913,1839
1964,1905,1824
1829,1894,1856
1890,1950,1983
1973,1923,1897
1933,1899,1772
1881,1953,1851
1957,1957,1919
2002,1964,1959
1862,1856,1833
1983,1907,1851
1991,1931,1872
1845,1901,1885
1795,1888,1857
2047,1943,1840
2128,1922,1817
1731,1869,1898
1857,1922,1897
1899,1886,1825
1992,1904,1857
1983,1902,1910
1961,1933,1875
1851,1917,1875
1827,1917,1903
1967,1918,1931
2135,1965,1945
1930,1929,1861
1802,1919,1798
2044,1951,1879
1868,1844,1767
1742,1883,1858
1802,1902,1922
1986,1948,1934
2005,1889,1857
1985,1890,1769
1957,1920,1869
1903,1913,1957
1968,1920,1898
2000,1939,1902
1767,1881,1846
1808,1879,1828
1922,1951,1936
1983,1942,1936
2066,1925,1836
1949,1872,1803
1722,1853,1776
1802,1883,1811
2053,1966,1961
2141,1888,1937
2039,1872,1857
1677,1920,1821
1590,1895,1885
1782,1869,1906
1983,1861,1856
2279,1977,1876
1915,1883,1797
1811,1931,1885
2047,1946,1839
1983,1883,1877
1742,1852,1933
1771,1909,1889
1918,1926,1825
1966,1884,1868
2025,1869,1845
1824,1843,1789
1990,1930,1831
1998,1898,1812
1722,1872,1971
1776,1857,1921
1938,1903,1807
2071,1904,1825
1791,1840,1932
1873,1907,1931
1947,1907,1831
1773,1866,1826
1860,1968,1860
2061,1973,1975
2419,2011,1904
1842,1858,1795
1663,1930,1982
2319,1931,1949
1668,1721,1648
1367,1801,1763
1639,1870,1934
2307,2015,1949
2479,1935,1843
1830,1799,1731
1439,1856,1922
1677,1901,2031
1878,1904,1891
2087,1919,1878
2239,1945,1939
1797,1873,1874
1687,1873,1830
1973,1920,1923
2214,1915,1871
1981,1920,1936
1909,1911,1930
1729,1835,1751
1751,1860,1850
2033,1927,1978
1968,1831,1754
1801,1922,1812
1843,1882,1892
2002,1846,1931
2065,1888,1936
2022,1895,1926
1724,1819,1769
1798,1937,1875
2059,1989,1899
1927,1914,1816
1803,1866,1907
1818,1838,1907
1791,1814,1879
2145,1934,1936
2298,1887,1847
1831,1808,1877
1472,1796,1871
1649,1875,1787
1897,1883,1837
1906,1871,1929
2002,1843,1879
2166,1890,1896
2085,1954,1999
1859,1859,1931
1840,1776,1983
1950,1895,1923
2020,1886,1692
1910,1887,1833
1896,1874,1935
1839,1839,1895
1936,1794,1839
2107,1855,1813
1986,1851,1915
1744,1776,1863
1803,1777,1872
1710,1872,1888
1712,1838,1859
1909,1829,1844
1993,1863,1938
1985,1850,1891
1886,1835,1891
1986,1828,1953
2529,1847,1840
1970,1738,1773
1369,1775,1915
1510,1827,1923
1824,1850,1953
2081,1840,1936
2325,1840,1883
2028,1819,1856
1695,1745,1899
1922,1722,1893
2038,1698,1788
1991,1776,1855
1911,1790,1937
1655,1701,1889
1699,1701,1903
2019,1763,1920
1971,1692,1802
2014,1647,1815
1931,1730,1891
1786,1764,1973
1830,1744,1933
2020,1727,1890
2063,1741,1871
2069,1755,1946
1950,1719,1891
1809,1713,1872
2027,1763,1942
1891,1665,1776
1715,1680,1887
1895,1791,1999
2034,1735,1850
1793,1627,1761
1974,1799,1935
2192,1731,1904
1776,1625,1863
1838,1697,1877
2174,1771,1871
1885,1615,1787
1622,1682,1863
1669,1744,1910
1986,1806,1918
2059,1713,1968
1854,1761,1902
1979,1762,1915
2314,1854,1811
2047,1761,1872
1636,1728,1885
1654,1776,1907
1966,1759,1877
1981,1709,1809
2014,1792,1919
2369,1776,1907
1925,1751,1888
1466,1727,1836
1578,1711,1778
1936,1761,1846
2364,1778,1826
2256,1841,1985
1644,1671,1904
1535,1776,1850
1790,1757,1887
2022,1781,1862
2098,1829,1833
2253,1879,1936
2016,1746,1937
1775,1760,1846
2034,1783,1785
1903,1829,1859
1744,1778,1999
1831,1821,2000
1904,1712,1777
1927,1826,1789
