2158,2163,2096
2129,2138,2092
2142,2128,2085
2162,2162,2077
2157,2169,2064
2197,2212,2169
2191,2197,2171
2165,2167,2067
2205,2206,2105
2231,2231,2093
2240,2240,2181
2199,2209,2130
2199,2213,2112
2224,2230,2192
2234,2224,2160
2255,2235,2144
2263,2266,2182
2263,2273,2223
2261,2257,2207
2278,2262,2186
2263,2266,2181
2282,2288,2230
2287,2268,2223
2262,2261,2174
2260,2276,2189
2272,2273,2229
2267,2266,2199
2290,2287,2201
2320,2322,2257
2264,2258,2175
2251,2240,2192
2282,2261,2210
2274,2274,2230
2288,2288,2266
2279,2273,2256
2259,2263,2178
2250,2251,2147
2256,2251,2215
2270,2251,2205
2268,2256,2148
2265,2263,2161
2271,2266,2223
2267,2248,2224
2262,2243,2141
2266,2259,2157
2276,2268,2236
2240,2219,2144
2226,2215,2112
2241,2241,2153
2256,2256,2189
2267,2247,2165
2242,2219,2131
2232,2231,2149
2237,2231,2214
2231,2221,2149
2235,2225,2113
2236,2239,2128
2228,2234,2159
2241,2224,2150
2235,2211,2163
2218,2205,2246
2203,2202,2311
2207,2192,2346
2207,2194,2349
2209,2203,2416
2213,2198,2449
2226,2189,2462
2197,2162,2416
2176,2166,2422
2180,2172,2466
2167,2133,2437
2165,2128,2410
2187,2158,2450
2173,2138,2496
2176,2131,2547
2192,2145,2406
2186,2166,2429
2160,2144,2371
2096,2079,2384
2092,2067,2347
2124,2102,2387
2145,2124,2435
2160,2114,2417
2160,2114,2372
2134,2112,2380
2110,2096,2373
2117,2087,2354
2125,2095,2329
2125,2100,2336
2112,2093,2349
2098,2064,2315
2115,2075,2289
2123,2096,2317
2107,2091,2321
2098,2064,2289
2081,2039,2234
2087,2066,2241
2098,2078,2288
2117,2077,2289
2096,2058,2221
2066,2034,2193
2062,2045,2238
2077,2034,2230
2095,2044,2197
2095,2073,2209
2075,2059,2224
2046,2010,2171
2047,2023,2134
2034,2021,2135
2032,2028,2174
2063,2031,2167
2065,2031,2122
2021,2019,2112
2027,2007,2121
2081,2000,2112
2047,2000,2074
2069,2017,2093
2033,2016,2120
2032,2005,2101
2033,2034,2087
2045,2016,2067
2017,1999,2070
2000,1983,2053
2007,1996,2021
2045,2011,2032
2015,2012,2059
2011,1970,2012
2045,1983,1986
1993,2012,2012
1998,1985,2009
1981,1954,1973
1985,1962,1946
2011,1984,1983
2023,2005,2027
2000,1968,1979
1995,1965,1926
1994,1970,1945
1995,1987,1991
1966,1968,1968
2036,1967,1922
1987,2004,1947
1997,1988,1968
1987,1961,1936
1987,1951,1894
1956,1938,1884
1989,1946,1919
1979,1955,1922
1989,1947,1876
1959,1950,1877
1969,1956,1915
1984,1942,1904
2000,1945,1862
1985,1968,1872
1974,1952,1894
2032,1957,1888
1985,1968,1862
1964,1942,1845
1947,1939,1873
1968,1949,1879
1961,1935,1821
1935,1925,1819
1947,1929,1845
1987,1936,1854
1958,1926,1815
1910,1925,1808
1983,1947,1846
1978,1935,1835
1939,1931,1797
2015,1946,1814
1978,1955,1868
1925,1923,1801
1949,1922,1747
1960,1945,1783
1984,1967,1831
1936,1936,1799
1963,1933,1756
1937,1949,1780
1973,1974,1827
1925,1927,1767
1936,1938,1744
1891,1936,1741
1915,1950,1776
1916,1925,1767
1935,1939,1718
1930,1959,1713
1922,1957,1752
1933,1957,1761
1943,1959,1730
1909,1951,1712
1906,1938,1739
1936,1955,1751
1942,1954,1715
1879,1922,1680
1888,1936,1721
1917,1953,1731
1915,1942,1695
1891,1923,1678
1930,1957,1740
1961,1964,1741
1894,1935,1669
1885,1933,1664
1919,1950,1774
1934,1938,1737
1905,1937,1647
1997,1950,1664
1914,1954,1719
1936,1926,1698
1903,1936,1682
1920,1955,1711
1919,1953,1731
1916,1936,1712
1892,1914,1650
1903,1945,1683
1929,1973,1744
1905,1939,1719
1875,1917,1658
1888,1935,1679
1893,1938,1731
1957,1940,1715
1885,1936,1664
1939,1943,1700
1936,1943,1750
1960,1918,1721
1873,1910,1680
1936,1936,1743
1823,1941,1771
1879,1923,1695
1892,1936,1667
1893,1966,1721
1883,1943,1735
1881,1911,1708
1891,1903,1663
1936,1921,1699
1930,1941,1750
1904,1947,1764
1920,1904,1680
1861,1909,1680
1882,1919,1728
1887,1930,1743
1919,1931,1711
1902,1925,1705
1895,1927,1744
1872,1923,1744
1904,1934,1714
1911,1949,1738
1898,1949,1777
1871,1895,1710
1859,1895,1694
1875,1921,1706
1878,1931,1734
1895,1924,1763
1885,1910,1703
1839,1909,1680
1851,1920,1734
1904,1911,1733
1873,1910,1697
1878,1930,1725
1881,1938,1771
1913,1922,1746
1870,1923,1715
1887,1943,1744
1977,1949,1787
1910,1940,1771
1854,1904,1698
1862,1928,1719
1806,1928,1773
1885,1923,1780
1808,1918,1724
1937,1928,1738
1866,1931,1802
1871,1901,1936
1906,1913,1766
1887,1951,1646
1903,1966,1742
1895,1941,1763
1868,1904,1712
1871,1919,1737
1883,1937,1807
1905,1945,1802
1882,1919,1733
1890,1939,1761
1893,1951,1809
1903,1941,1807
1866,1904,1770
1872,1921,1776
1889,1936,1790
1888,1921,1781
1899,1936,1760
1898,1947,1776
1887,1936,1806
1878,1919,1789
1902,1945,1771
1881,1932,1769
1853,1903,1778
1872,1898,1807
1886,1918,1817
1894,1954,1780
1876,1940,1773
1874,1929,1781
1883,1936,1785
1897,1946,1909
1891,1950,1910
1883,1943,1725
1879,1932,1705
1891,1946,1781
1894,1951,1839
1924,1961,1855
1872,1915,1808
1847,1918,1777
1879,1938,1813
1887,1925,1807
1878,1922,1783
1879,1943,1851
1898,1968,1861
1872,1915,1792
1873,1916,1871
1871,1936,1831
1877,1961,1793
1904,1964,1807
1883,1919,1776
1866,1927,1795
1871,1936,1840
1877,1936,1840
1882,1936,1795
1891,1966,1840
1902,1967,1872
1872,1949,1833
1871,1933,1791
1875,1959,1821
1891,1967,1872
1899,1949,1879
1890,1937,1887
1887,1949,1821
1875,1943,1807
1889,1940,1822
1919,1963,1887
1883,1950,1843
1885,1949,1841
1895,1945,1859
1893,1938,1806
1879,1953,1815
1898,1969,1867
1905,1956,1857
1893,1954,1828
1885,1959,1855
1873,1934,1920
1895,1937,1883
1874,1925,1767
1883,1951,1801
1888,1951,1872
1890,1941,1872
1899,1954,1847
1903,1957,1863
1887,1951,1881
1887,1942,1862
1919,1968,1855
1901,1968,1862
1863,1933,1857
1872,1919,1861
1875,1931,1860
1890,1961,1856
1897,1968,1891
1904,1961,1910
1911,1968,1855
1874,1955,1830
1877,1943,1878
1902,1953,1955
1894,1942,1853
1873,1947,1813
1872,1941,1859
1891,1941,1900
1895,1952,1839
1904,1965,1855
1894,1963,1917
1910,1959,1920
1907,1952,1842
1919,1968,1857
1866,1931,1871
1856,1906,1865
1882,1927,1842
1903,1949,1872
1904,1954,1904
1897,1937,1887
1904,1947,1865
1904,1962,1877
1904,1961,1905
1918,1952,1906
1922,1958,1874
1903,1954,1871
1885,1951,1883
1896,1936,1874
1909,1940,1875
1917,1967,1888
1934,1994,1924
1907,1951,1890
1860,1904,1821
1893,1943,1862
1923,1961,1941
1904,1936,1903
1887,1932,1836
1887,1959,1853
1911,1983,1915
1906,1959,1903
1907,1955,1866
1911,1978,1887
1949,2027,1973
1919,1983,1885
1858,1920,1819
1867,1936,1876
1894,1971,1917
1910,1968,1891
1920,1967,1874
1904,1968,1887
1902,1968,1927
1904,1963,1909
1902,1961,1862
1904,1981,1867
1907,2001,1936
1895,1979,1894
1899,1978,1856
1914,1999,1919
1915,1999,1923
1898,2000,1895
1889,1990,1857
1904,2032,1885
1918,2023,1953
1917,2001,1909
1891,1998,1847
1887,2041,1877
1895,2064,1933
1910,2006,1919
1919,2047,1893
1921,2086,1882
1923,2098,1936
1899,2041,1938
1890,1985,1889
1927,2112,1901
1916,2006,1925
1881,1977,1900
1891,2013,1863
1917,2077,1913
1885,2107,1913
1893,2065,1905
1897,2032,1907
1877,2057,1882
1889,2046,1915
1890,2031,1888
1891,2022,1877
1904,2026,1902
1914,2064,1920
1909,2067,1899
1909,2091,1892
1905,2091,1918
1883,2026,1919
1904,2045,1915
1904,2025,1891
1919,2036,1927
1927,2022,1931
1904,2053,1872
1904,2030,1879
1899,2002,1914
1895,1967,1933
1895,1988,1914
1902,2011,1886
1911,2019,1894
1927,2019,1942
1927,2007,1951
1902,1973,1897
1902,2013,1895
1915,2029,1941
1911,2019,1921
1919,2014,1879
1939,2099,1919
1922,2027,1943
1907,2000,1916
1913,2014,1886
1920,2032,1913
1883,1997,1914
1885,1997,1904
1920,2028,1873
1940,2123,1920
1920,1996,1965
1885,1974,1916
1904,1958,1874
1947,2027,1888
2047,2093,1905
1915,2031,1952
1857,1945,1935
1850,2083,1903
1877,2038,1904
1910,2007,1906
1931,2002,1911
1933,2065,1919
1904,2034,1947
1901,1980,1935
1911,2000,1871
1991,2010,1905
2010,2073,1932
1837,2074,1886
1824,2017,1869
1856,2054,1889
1914,2107,1914
1918,2123,1905
1883,2112,1885
1881,2129,1894
1904,2163,1947
1927,2172,1947
1900,2178,1890
1893,2239,1872
1919,2217,1935
1929,2178,1907
1925,2098,1901
1905,2316,1931
1865,2240,1894
1872,2192,1849
1968,2243,1888
1943,2265,1958
1842,2235,1914
1838,2239,1878
1882,2241,1855
1943,2257,1892
1941,2278,1939
1893,2256,1941
1918,2259,1904
1970,2335,1903
1927,2327,1923
1824,2187,1885
1846,2178,1871
1893,2222,1903
1920,2283,1950
1925,2239,1953
1947,2335,1938
1882,2274,1867
1902,2137,1899
1967,2157,1968
1895,2099,1872
1904,2150,1777
1894,2239,1913
1923,2243,2006
1953,2219,1975
1865,2256,1889
1825,2187,1906
1872,2117,1982
1868,2158,1937
1898,2125,1975
1911,2257,2032
1904,2220,2037
1894,2166,2001
1925,2224,2054
1926,2176,2081
1902,2147,2067
1907,2146,2019
1929,2192,2121
1971,2256,2182
1914,2167,2126
1821,2076,2053
1855,2094,2079
1920,2160,2173
1954,2218,2171
1955,2304,2122
1868,2127,2116
1854,1959,2146
1953,2046,2209
2064,2177,2235
2081,2309,2291
1867,2081,2144
1842,1947,2034
1931,2014,2116
1839,2038,2140
1871,2069,2158
1904,2025,2188
1951,2034,2159
1971,2064,2160
1924,2073,2212
1931,2067,2268
1867,2064,2199
1822,2001,2126
1894,2044,2225
1969,2064,2256
2033,2092,2256
1947,2047,2157
1794,2002,2151
1792,1874,2171
1885,2117,2245
1923,2113,2363
1901,2092,2295
1889,2035,2221
1946,2066,2205
1983,2116,2267
2037,2175,2333
1907,2071,2208
1786,2060,2183
1846,2135,2243
1904,2166,2318
1936,2141,2288
1947,2163,2243
1939,2219,2272
1955,2224,2283
1935,2205,2266
1835,2149,2217
1886,2224,2261
1937,2214,2291
1883,2171,2249
1891,2169,2171
1949,2214,2208
1893,2198,2246
1859,2183,2227
1970,2223,2240
1902,2190,2195
1851,2185,2192
1933,2213,2227
2005,2226,2225
1891,2160,2175
1846,2146,2213
1892,2186,2203
1937,2194,2171
1919,2165,2163
1951,2185,2244
2021,2199,2320
1883,2121,2195
1845,2143,2142
1856,2118,2114
1941,2147,2146
1941,2111,2015
1931,2123,2001
1979,2178,2106
1891,2119,2059
1861,2095,1920
1922,2109,1952
1978,2150,2078
1923,2139,2064
1861,2097,1935
1853,2080,1910
1904,2096,1983
1968,2128,2019
2018,2137,1987
1930,2112,1957
1893,2083,1952
1943,2075,1946
1908,2070,1910
1842,2041,1872
1872,2070,1910
1962,2109,1968
1947,2073,1895
1966,2087,1936
1945,2063,1941
1891,2002,1901
1885,2031,1846
1948,2091,1906
1986,2110,1951
1925,2037,1904
1941,2013,1869
1901,1975,1793
1910,2014,1883
1941,2013,1923
1929,2021,1873
1917,2042,1856
1907,2021,1862
1959,2005,1852
2016,2043,1829
1936,2021,1799
1877,1987,1764
1911,1986,1730
1947,2000,1685
1968,2028,1697
2015,2090,1747
1990,2021,1677
1894,1942,1535
1904,1957,1573
1903,1967,1611
1942,1978,1621
1951,1975,1584
1951,1986,1579
1984,1998,1630
1949,1969,1607
1950,1977,1577
1939,1961,1570
1970,1978,1639
1984,1968,1616
1968,1962,1530
1905,1942,1502
1911,1941,1599
1937,1949,1644
1958,1963,1584
1981,1989,1564
2006,2000,1593
2033,1977,1650
1920,1919,1575
1897,1947,1575
1909,1936,1595
1936,1925,1600
2032,2000,1644
2082,2039,1685
1945,1926,1615
1918,1867,1532
1905,1845,1509
1904,1906,1562
1936,1945,1648
2010,1968,1705
2098,1995,1648
1979,1919,1609
1917,1936,1651
1922,1915,1670
1983,1923,1667
1961,1927,1603
1986,1949,1647
1990,1935,1667
1975,1923,1642
1993,1947,1662
1973,1943,1687
1919,1874,1639
1936,1879,1648
1982,1927,1728
2094,1987,1725
2118,1965,1651
1895,1856,1585
1826,1840,1614
1936,1909,1692
1973,1904,1697
1989,1895,1707
2037,1953,1776
2042,1935,1761
1954,1872,1688
1968,1907,1712
1937,1888,1696
1942,1886,1724
1995,1911,1758
1982,1883,1683
2019,1921,1726
1989,1919,1766
1950,1889,1751
1991,1913,1723
1968,1887,1679
2000,1877,1696
1965,1858,1709
1997,1907,1750
2058,1955,1846
1941,1892,1759
1887,1847,1680
1936,1862,1699
1989,1904,1731
2064,1952,1856
2081,1945,1790
1939,1855,1648
1951,1872,1755
1959,1911,1776
1983,1911,1808
1959,1851,1653
1973,1872,1744
2004,1902,1776
1980,1877,1847
1967,1883,1778
1966,1893,1735
1984,1903,1810
2001,1894,1803
2017,1904,1776
1999,1890,1808
1977,1897,1795
1980,1886,1778
1985,1892,1762
1987,1898,1796
1975,1898,1829
2003,1892,1858
2061,1895,1836
1933,1843,1709
1881,1827,1740
1930,1840,1801
1963,1861,1808
1984,1889,1825
1971,1904,1836
1972,1886,1839
1989,1877,1827
1978,1869,1808
1963,1877,1846
1969,1879,1830
1973,1873,1779
1982,1890,1845
1989,1906,1904
1981,1893,1871
1971,1879,1807
1969,1876,1824
2032,1945,1914
2007,1905,1872
1936,1839,1802
1914,1819,1776
1946,1870,1854
1988,1889,1856
1972,1870,1840
1968,1882,1831
1997,1904,1853
2025,1913,1938
1951,1872,1841
1939,1874,1808
1969,1893,1882
1993,1903,1904
1987,1890,1795
1985,1919,1863
1959,1905,1897
1970,1894,1872
1974,1887,1875
1999,1923,1907
2028,1952,1954
1975,1884,1903
1953,1841,1821
1929,1846,1823
1947,1883,1863
1983,1898,1920
2009,1914,1893
1987,1915,1872
1959,1886,1895
1967,1875,1901
2032,1909,1884
2011,1920,1904
1933,1889,1885
1925,1870,1859
1952,1866,1852
1989,1911,1877
1995,1935,1920
1955,1878,1887
1949,1870,1838
1983,1892,1872
1997,1904,1915
1979,1888,1904
1970,1841,1879
1968,1900,1933
1975,1913,1913
1985,1903,1919
1985,1895,1963
1999,1918,1904
1984,1905,1887
1985,1903,1891
1989,1917,1885
1973,1913,1882
1981,1914,1906
2064,1965,1963
1987,1895,1886
1903,1840,1811
1941,1882,1895
1984,1895,1918
1973,1862,1859
1984,1905,1881
1984,1908,1930
1974,1886,1952
1984,1892,1881
1998,1907,1890
2000,1922,1936
1999,1915,1968
2001,1893,1921
2014,1917,1957
2006,1938,1951
1983,1895,1909
1949,1853,1815
2079,1949,1967
2128,1978,2026
1918,1846,1936
1879,1836,1837
1923,1854,1823
1982,1904,1943
2064,1941,1968
2098,1947,1955
1922,1856,1776
1872,1851,1849
1985,1901,1930
2107,1974,1925
2137,2075,1951
1927,1915,1904
1935,1813,1852
1922,1814,1808
1926,1852,1875
1968,1893,1930
2085,1953,1920
2202,2075,1974
2033,1989,1996
1975,1943,2055
1901,1838,1890
2002,1861,1869
2014,1901,1906
2017,1891,1893
1984,1857,1873
2033,1913,1943
2035,1915,1933
1999,1909,1842
2233,1973,1956
2515,2014,2000
2096,1879,1823
1939,1875,1879
2201,1982,2096
2647,2192,2238
2118,1837,1950
1768,1779,1728
2703,2096,2000
2254,1772,1552
1680,1884,1808
2439,2141,2269
2505,1986,2047
1867,1682,1504
1821,1871,1584
2753,2107,2282
1558,1620,1631
1273,1499,1216
1793,1734,1425
2348,1988,1811
2416,1760,1627
1837,1853,1579
2319,2039,1712
1883,1717,1535
1835,1717,1606
2142,1911,1869
2038,1831,1858
1467,1716,1606
1599,1760,1532
1985,1807,1451
2496,1872,1625
1916,1883,1423
1818,2064,1806
1970,1971,1691
1738,1749,1477
2102,1871,1813
2385,1899,1533
1919,1893,1535
2645,2222,1968
1633,1643,1408
1063,1586,1322
1639,1742,1407
1855,1741,1523
2243,1968,1665
2843,2177,1453
2128,1744,1149
752,1559,1217
1360,1840,1644
2262,1785,1755
2176,1906,1478
1509,1738,1081
2086,1998,1702
1650,1609,1264
1307,1567,999
1535,1709,1152
1955,1774,1248
1787,1680,1151
1473,1687,1451
1489,1685,1600
2198,2027,1746
2123,1695,1249
1118,1451,612
1182,1717,1095
1712,1722,1267
1373,1616,1367
1766,1687,1369
2299,1802,1278
1776,1523,912
760,1516,1037
1175,1670,1435
2305,1776,1439
1584,1690,1201
995,1688,1142
1968,1941,1431
2846,1714,1148
821,1371,886
758,1584,1437
1475,1703,1369
1459,1611,1158
1757,1739,1213
2649,1936,1761
1360,1573,1159
670,1472,862
1098,1682,1057
2064,1712,1233
1600,1506,1459
1008,1535,1232
1434,1693,1329
1942,1781,1424
1716,1783,1168
1486,1727,1253
1329,1654,1408
1719,1859,1503
2595,1796,1531
1917,1603,1229
564,1463,1131
546,1675,1104
2016,1841,1535
2339,1844,1714
1519,1753,1520
1897,1718,1021
2102,1846,1474
724,1424,1146
420,1586,1263
1520,1840,1789
1966,1771,1658
1159,1661,1200
1525,1872,1477
1915,1713,1264
1520,1735,1296
1213,1706,1584
1334,1831,1765
2507,2143,2037
1831,1557,1079
1137,1645,1097
1041,1728,1520
1522,1920,2064
1845,1757,1584
1504,1934,1480
1393,1779,1331
1461,1714,1488
1739,1814,1681
1463,1809,1646
1612,1934,1648
1841,1879,1520
1520,1881,1600
1845,1986,2132
2669,1968,1958
1611,1822,1362
849,1601,1489
819,1696,1489
1595,1967,1594
1946,1952,1792
1348,1695,1584
1381,1851,1787
1722,1929,2036
1829,1980,1771
1803,1765,1584
1314,1781,1643
1157,1907,1808
1664,1920,1771
1950,1943,1872
1680,1887,1709
1749,1953,1755
1376,1875,1809
1451,1683,1833
1923,1829,2032
1491,1915,1569
1332,1957,1578
1886,2046,1838
2495,2153,2114
1495,1855,1747
1034,1803,1776
1712,1865,1719
2058,1829,1955
1457,1945,2074
1462,2107,1980
1785,1933,1649
1490,1840,1646
1483,1866,1776
1678,1967,2013
1712,1924,1957
1713,1977,1951
2047,2066,1905
1917,1926,1868
1436,1917,2037
1518,1988,2045
1914,1952,1878
2064,1989,2074
1936,2021,2011
1599,1917,1806
1481,1904,1975
1791,1974,1984
2136,1980,1843
1834,1911,1994
1306,1936,2092
1422,1965,2157
1834,1941,1968
2091,1955,1833
1798,2109,2129
2110,2092,2210
1794,1847,1808
1679,1920,1939
1701,2021,2194
1882,2107,2284
1776,1952,1869
1759,1924,1815
1791,1969,2014
2017,2075,2230
1730,1914,1974
1904,2077,2209
2364,2134,2343
1855,2128,2089
2202,2095,1840
1459,1819,1885
1819,2013,2096
1669,2001,2145
1421,1953,2352
1839,2023,2303
2156,2035,1955
2016,2097,1855
2000,2115,2207
1638,1920,1999
2096,2207,2368
2013,1952,2134
1666,1945,1893
1667,2064,2210
1997,2197,2335
1849,2038,2077
1680,2016,2066
1771,2032,2171
1823,2038,2185
1914,1985,2089
1852,2061,2130
1866,2124,2159
1993,2157,2224
2320,2205,2357
1904,1989,1963
1776,2004,1884
1872,2041,2192
1863,2133,2247
1910,2125,2115
2115,2103,2161
2550,2246,2393
2251,2057,2144
1403,1949,1904
1453,2038,1999
1975,2140,2241
2095,2099,2231
2192,2139,2299
1942,2039,2146
1699,2081,2192
1929,2059,2113
2109,2094,2111
1990,2174,2133
2170,2134,2256
1996,2053,2242
1953,2156,2379
1808,2067,1931
1813,2022,1916
2163,2032,2021
2359,2183,2407
2338,2079,2255
1776,2082,2128
1591,2094,2192
1840,2090,2130
2135,2218,2161
2672,2158,2161
1756,2000,2117
1791,2058,2069
2452,2171,2182
1895,1983,2268
1381,1974,2069
1642,2065,2070
2223,2127,2124
2453,2176,2350
2207,2059,2109
1634,2064,2081
1713,2130,2255
1931,2075,2283
2028,2065,2061
2256,2041,1959
2229,2144,2234
2124,2186,2377
1933,2097,2230
2258,2112,2055
2067,2036,2085
2163,2133,2160
2318,2092,2241
1773,1981,2089
1559,1998,2058
2041,2139,2265
2800,2175,2157
2015,2006,2135
1731,1995,2194
1875,2041,1977
2145,2158,2066
2003,2102,2206
2275,2123,2224
2385,2096,2015
1866,1935,1966
1847,2109,2291
2262,2105,2138
2162,2047,2117
1707,2044,2110
1778,2067,2017
2475,2112,2177
2427,2159,2226
2289,2063,2094
1668,1919,1891
1761,2079,2067
2278,2151,2267
2497,2134,2503
2355,2027,2015
1675,1953,1793
1594,2059,2097
2009,2110,2177
2194,2046,2073
2086,2000,2125
1968,2042,2058
2160,2129,2251
2187,2028,2041
2090,2097,2091
2406,2121,2095
2141,1998,2110
1815,1958,2156
2374,2151,2133
2451,1969,2039
1776,1919,1994
1904,2095,2067
2206,2073,2096
2093,2118,2352
2001,2054,2271
2191,2010,1882
2376,1997,1851
1895,1998,2066
1791,1995,2100
2271,2096,2169
2211,1995,2063
1861,2018,1995
1912,2061,2081
2281,2126,2021
2724,2029,2099
2067,1909,2025
1488,2014,1974
1887,2032,2006
2544,2143,2240
2413,2042,2128
1740,1865,1949
1981,1987,2064
2307,2011,1901
2132,1973,1894
1890,2043,2175
2039,2022,2224
2027,2000,2045
2496,2159,2002
2691,2016,1979
1690,1947,2005
1558,1961,1981
1989,1973,2179
2503,2030,2165
2276,2027,1872
2151,2027,1887
1949,2070,2001
2057,2045,2043
2318,1988,2099
1849,1971,1975
1653,1981,2139
2147,2023,2043
2614,2098,2108
2101,1989,1872
1894,1968,1903
1922,1968,2067
2261,2067,2043
2541,2089,1927
1735,1905,1859
1697,1954,2030
2132,2038,2201
2384,2043,2101
2028,1936,1836
1787,2002,1870
2383,2058,1974
2595,2134,1954
2079,2013,2139
1667,1912,2258
1975,2082,2155
2192,1982,1822
1968,1934,1919
2215,2079,2063
2314,1968,1775
2303,2079,1975
2007,1967,2064
1816,1955,2027
2352,2024,1854
2301,1982,1950
2113,1952,1918
1837,1878,2097
1654,1962,2107
1918,1911,1809
2211,2068,1954
2806,2126,2329
1913,1866,1867
1521,1951,1878
2091,2130,2026
2447,1920,1911
2293,1898,1744
1853,1902,1917
1657,1973,2121
1968,1878,2147
2318,2011,1979
2160,1981,1723
1879,1968,1792
2319,2064,2161
2277,1983,2010
2067,2000,2094
1894,1938,1873
2123,2023,1899
2182,1973,1961
2068,1968,2033
2206,1973,1805
1871,1903,1828
1839,2045,2123
2288,1889,1984
1986,1873,1872
1963,2057,2053
1867,1978,1999
2282,2063,1981
2217,1909,1776
1860,1902,1835
1957,1953,1914
2115,1968,2003
1984,1989,2068
2258,2039,1943
2087,2022,1987
2309,1951,2098
2176,1877,1774
1670,1839,1609
2032,1942,1799
1904,1997,1997
2085,2067,2142
2003,1986,2065
2289,2052,2016
2263,1969,1951
2058,1874,1520
2064,1901,1862
1670,1939,1872
1903,2055,1981
2224,1989,1903
2085,1944,1990
2263,1983,2086
1973,1837,1936
1808,1898,1790
2176,2007,1735
2437,1968,1737
1975,1886,2031
1706,2045,2125
2399,2095,1879
2544,1933,1567
1838,1872,1776
1354,1851,1968
2088,1903,1803
2294,1931,1827
1941,2032,2150
2079,2062,2224
2359,2029,1991
2307,1996,1777
1799,1694,1761
1782,1871,1808
2347,2117,1918
2259,1997,1835
1599,1895,1879
1856,2017,1959
2643,2112,2160
2032,1805,1865
1565,1877,1768
1929,1911,1776
2256,2004,1978
2034,1963,1962
1949,1946,1793
2194,2055,1927
2363,2062,1983
2309,1962,1854
1867,1924,1776
2045,2041,2097
2101,1955,1789
1577,1802,1616
1633,1947,1777
2511,2074,2025
2416,1982,1985
1630,1871,1843
1590,1933,1968
2298,2051,1945
2629,1959,1793
2062,1831,1797
1491,1968,1909
1703,2075,1917
2126,2064,1969
2613,2073,1941
2240,1920,1879
1701,1931,1854
1744,1913,1713
2028,1919,1715
2311,2011,2006
2334,1947,1895
2020,1922,1865
2021,2037,2127
2633,1999,1754
2097,1858,1644
1137,1897,1937
1394,1983,2001
1938,1941,1963
2498,2159,2033
2625,1984,2006
1759,1876,1665
1614,1898,1714
2653,2112,2018
2118,1783,1661
1403,1909,1892
1606,2047,1953
2209,2067,1934
2585,2185,2157
2642,2064,2030
1820,1787,1563
1635,1894,1601
1798,1952,1889
2158,1942,1974
2134,2027,2012
1867,2047,2086
2171,2166,2153
2607,1918,1846
1869,1810,1460
1347,1878,1648
2096,2015,1886
2703,2019,1966
1857,1926,1900
1485,1967,2013
2186,2199,2211
2498,1904,1662
1637,1787,1630
1525,1920,1947
1968,1997,1906
2622,2093,1930
2519,2033,2078
2086,1977,1774
1697,1920,1776
1908,2019,1797
1919,1909,1827
1614,1809,1872
2275,1991,1874
2346,2001,1895
1726,1935,1812
1754,1999,1968
2300,2015,1981
2504,2096,1905
2289,1927,1766
1278,1840,1866
1360,1863,1789
1991,1987,1881
2378,2027,1866
2389,2044,1967
1917,1991,1808
1681,1936,1822
1983,1931,1819
2559,2032,2021
2210,1847,1775
1453,1807,1675
1684,2005,1822
2583,2221,2175
2534,1979,1875
1471,1861,1818
1563,1943,1789
2081,1978,1861
2014,1950,1933
1771,1961,1971
1911,2001,1855
2302,2112,1936
2176,1881,1886
1855,1879,1792
1872,2005,1802
2259,1946,1936
1985,1941,1915
1868,1998,1840
2072,2090,1827
2368,2021,1858
1824,1904,1778
1680,1969,1914
2080,1958,1900
2444,2023,1872
1889,1915,2013
1680,1942,1891
2101,2080,1681
1994,1951,1875
2023,1947,1972
2210,1921,1774
1941,1905,1876
2096,2086,1998
1819,1931,1815
1812,1931,1898
1971,2045,2029
1954,2007,1856
2125,1951,1856
2069,1909,1840
1851,1899,1808
2108,2001,2076
2122,1965,2058
1965,1963,1810
2147,2028,1714
2182,2023,2023
1941,1913,1886
2072,1872,1535
1891,1949,1877
1934,2032,2066
1853,1968,1967
2175,2032,1968
2044,1952,1870
1847,1893,1868
2253,2023,2021
1967,1879,1782
1614,1847,1773
1693,1911,1895
2102,2011,1970
2179,2008,1941
2173,2096,1987
2246,1988,1954
2015,1904,1798
2125,1905,1777
1818,1851,1764
1691,1927,1969
2054,2023,2057
2325,2015,2016
1818,1851,1808
1767,1873,1699
2032,1977,1776
1872,1939,1913
2173,2023,2135
2389,2005,1970
2218,1892,1776
1901,1845,1892
1792,1966,2083
2172,1925,1938
1998,1808,1601
1716,1983,1820
2139,2199,2082
2091,2055,2055
2031,1727,1675
1954,1727,1817
1901,1955,2013
1820,1917,1858
2225,1917,1690
2367,1906,1712
1905,2115,2202
1665,1927,1998
1968,1922,1963
2413,2031,1885
2043,1975,1985
1717,1860,1969
2112,1939,1797
2487,1932,1629
2477,1897,1815
1821,1905,1983
1578,1962,2165
1456,1842,1921
1863,1920,1805
2110,1955,1971
2114,1939,1871
2064,1925,1904
2090,1975,2000
2092,1970,1776
2320,1955,1795
2032,1831,1811
1698,1863,2033
1728,1904,1953
1898,1919,1816
2123,1882,1815
2143,1907,1891
2293,1959,1851
2304,2047,1904
2066,1872,1906
1749,1805,1792
1926,1982,2103
2116,2019,2127
2030,1850,1665
1951,1893,1804
1594,1812,1923
1898,1887,2014
2015,1920,2068
1966,1941,1983
2186,1862,1855
2326,1856,1819
1968,1839,1803
1723,1868,1859
2038,1931,1937
2041,1872,2016
1713,1805,1745
1831,1890,1778
2213,1939,1965
2096,1811,1819
2369,1840,1876
1751,1808,2069
1461,1866,1996
1949,1948,2013
2150,1776,1797
2151,1729,1819
2353,1798,1840
1837,1648,1860
1687,1739,1904
2037,1856,1965
2251,1904,2193
1755,1648,1890
1857,1603,1698
2176,1753,1968
2235,1757,2137
2131,1585,1740
1744,1650,1761
1756,1680,1786
2076,1710,1818
1885,1663,1984
1939,1648,2063
2174,1583,1849
2122,1637,1740
2045,1754,1919
1584,1654,1936
1914,1535,1909
2318,1723,2058
2351,1708,1961
1854,1581,1804
1529,1593,1869
1945,1719,2061
2330,1584,1969
1957,1472,1775
1785,1515,1795
2095,1633,1757
2195,1759,1957
1792,1671,2057
1680,1680,1968
2100,1703,1904
2185,1522,1842
1858,1479,1811
1993,1648,1781
