1665,1765,1669
1657,1779,1675
1653,1795,1671
1662,1787,1707
1678,1791,1716
1686,1808,1697
1677,1802,1680
1654,1783,1701
1641,1776,1693
1651,1765,1668
1665,1782,1687
1686,1799,1735
1719,1814,1765
1671,1787,1712
1635,1770,1666
1658,1775,1706
1654,1771,1712
1658,1779,1684
1679,1803,1698
1698,1829,1755
1680,1810,1750
1648,1767,1680
1666,1779,1696
1684,1803,1746
1701,1810,1759
1687,1808,1714
1665,1805,1707
1674,1811,1750
1646,1786,1733
1638,1793,1680
1663,1799,1728
1661,1791,1739
1674,1804,1746
1686,1809,1733
1676,1799,1725
1690,1810,1747
1683,1826,1770
1665,1795,1712
1659,1794,1719
1693,1814,1771
1710,1819,1778
1691,1813,1731
1697,1825,1745
1717,1840,1791
1723,1830,1815
1712,1832,1744
1697,1823,1734
1702,1827,1776
1705,1827,1785
1686,1808,1733
1681,1802,1715
1697,1808,1764
1716,1840,1797
1717,1840,1771
1677,1808,1728
1693,1813,1771
1692,1776,1776
1699,1835,1744
1710,1867,1754
1726,1877,1814
1750,1855,1814
1722,1886,1751
1722,1841,1770
1725,1827,1807
1729,1890,1822
1727,1853,1776
1728,1847,1767
1722,1872,1793
1723,1879,1808
1735,1841,1791
1689,1869,1757
1675,1824,1761
1690,1847,1776
1729,1856,1778
1754,1883,1806
1727,1851,1801
1690,1794,1776
1687,1827,1746
1734,1841,1776
1741,1839,1814
1728,1853,1824
1723,1831,1795
1763,1907,1806
1766,1879,1840
1715,1838,1807
1687,1807,1751
1733,1857,1791
1759,1889,1857
1728,1856,1826
1712,1824,1754
1744,1877,1781
1725,1856,1794
1726,1842,1808
1733,1847,1778
1747,1869,1790
1760,1856,1839
1761,1872,1841
1766,1853,1809
1771,1891,1809
1735,1868,1828
1744,1859,1833
1727,1841,1790
1726,1847,1782
1738,1807,1828
1757,1844,1851
1766,1884,1823
1752,1879,1799
1751,1857,1819
1747,1885,1829
1744,1867,1794
1727,1859,1791
1745,1859,1833
1751,1855,1840
1766,1882,1827
1775,1878,1829
1744,1915,1832
1751,1869,1820
1770,1878,1814
1760,1868,1815
1739,1911,1815
1739,1863,1822
1749,1892,1805
1789,1914,1836
1792,1910,1870
1776,1908,1862
1767,1904,1818
1726,1861,1779
1729,1851,1815
1750,1877,1825
1759,1878,1805
1796,1895,1840
1792,1874,1860
1751,1872,1846
1744,1882,1806
1775,1896,1823
1776,1891,1854
1791,1904,1877
1783,1899,1829
1779,1878,1810
1774,1890,1857
1793,1923,1877
1779,1927,1813
1751,1894,1797
1799,1930,1865
1744,1868,1823
1746,1868,1779
1791,1919,1828
1803,1913,1877
1782,1949,1872
1808,1942,1849
1815,1946,1853
1787,1917,1846
1755,1895,1821
1771,1911,1794
1802,1931,1826
1806,1953,1874
1807,1939,1885
1787,1949,1842
1803,1939,1844
1759,1889,1819
1762,1879,1819
1781,1904,1815
1808,1890,1842
1803,1951,1873
1801,1929,1875
1787,1906,1835
1785,1903,1834
1806,1922,1867
1801,1936,1865
1806,1941,1823
1817,1897,1841
1815,1904,1883
1798,1904,1882
1777,1911,1834
1837,1921,1851
1787,1918,1830
1744,1853,1817
1739,1878,1794
1783,1925,1823
1786,1885,1850
1803,1897,1855
1794,1902,1821
1799,1920,1839
1822,1934,1875
1805,1945,1865
1792,1969,1833
1814,1932,1866
1837,1939,1883
1819,1939,1862
1803,1886,1814
1811,1919,1831
1837,1922,1876
1821,1921,1878
1822,1937,1858
1808,1904,1841
1813,1904,1860
1808,1904,1857
1744,1840,1782
1786,1886,1808
1814,1927,1867
1803,1884,1844
1795,1893,1810
1809,1941,1823
1839,1904,1862
1828,1902,1873
1815,1915,1847
1833,1903,1843
1840,1923,1881
1835,1917,1893
1831,1871,1855
1839,2002,1863
1845,1930,1884
1825,1883,1872
1814,1920,1840
1839,1907,1863
1847,1971,1904
1872,1962,1922
1830,1919,1854
1781,1872,1813
1777,1863,1808
1819,1893,1846
1843,1926,1847
1835,1920,1840
1808,1910,1867
1798,1882,1849
1812,1886,1821
1834,1902,1831
1843,1911,1890
1840,1904,1892
1840,1913,1857
1856,1933,1864
1879,1954,1914
1810,1883,1879
1789,1868,1801
1808,1879,1829
1840,1903,1882
1845,1920,1903
1845,1920,1860
1856,1922,1851
1854,1910,1878
1853,1909,1877
1840,1914,1859
1840,1904,1845
1830,1888,1853
1819,1879,1851
1855,1919,1868
1853,1916,1856
1830,1893,1859
1845,1909,1889
1810,1873,1823
1820,1893,1826
1851,1905,1887
1851,1910,1872
1843,1914,1845
1861,1914,1858
1878,1909,1904
1873,1920,1905
1877,1922,1862
1857,1915,1851
1854,1910,1883
1849,1904,1903
1857,1921,1942
1870,1926,2019
1827,1888,2103
1834,1878,2142
1849,1919,2158
1902,1983,2239
1825,1891,2217
1809,1873,2218
1833,1886,2223
1847,1902,2242
1869,1922,2305
1841,1900,2301
1835,1906,2273
1839,1910,2268
1839,1890,2283
1847,1903,2309
1840,1913,2288
1856,1931,2271
1858,1925,2298
1829,1900,2286
1825,1885,2231
1851,1921,2256
1891,1955,2304
1833,1890,2240
1845,1890,2211
1839,1907,2214
1830,1901,2237
1834,1902,2239
1841,1905,2207
1850,1919,2193
1856,1921,2215
1854,1918,2208
1838,1898,2165
1837,1879,2147
1851,1885,2180
1851,1897,2210
1831,1885,2117
1835,1873,2080
1840,1891,2123
1849,1889,2145
1859,1904,2121
1870,1917,2112
1859,1901,2116
1872,1903,2122
1842,1894,2064
1855,1917,2064
1883,1923,2096
1859,1908,2083
1841,1897,2031
1847,1894,2041
1871,1913,2067
1873,1929,2062
1867,1930,2003
1884,1929,2016
1828,1857,1979
1819,1860,1974
1843,1895,1982
1859,1917,1998
1904,1943,2064
1856,1902,2004
1840,1874,1942
1871,1904,1956
1898,1923,2002
1898,1930,2000
1862,1908,1943
1867,1905,1936
1871,1910,1959
1869,1915,1971
1863,1904,1949
1872,1926,1917
1872,1919,1927
1839,1869,1903
1818,1854,1856
1867,1903,1887
1874,1917,1925
1872,1901,1921
1855,1899,1879
1861,1912,1876
1895,1927,1923
1858,1903,1897
1842,1889,1858
1872,1918,1877
1872,1922,1904
1889,1933,1920
1856,1895,1854
1819,1844,1793
1859,1881,1840
1871,1893,1855
1857,1891,1830
1872,1899,1840
1883,1889,1855
1872,1893,1851
1872,1910,1835
1883,1918,1829
1877,1918,1860
1836,1883,1827
1827,1877,1791
1878,1910,1808
1898,1945,1855
1869,1887,1821
1813,1842,1744
1871,1904,1791
1879,1898,1815
1867,1875,1804
1873,1890,1810
1859,1895,1776
1854,1898,1799
1871,1904,1814
1870,1901,1778
1874,1909,1783
1885,1914,1808
1888,1901,1853
1883,1905,1803
1839,1869,1749
1855,1876,1770
1859,1878,1781
1869,1899,1746
1899,1911,1797
1884,1891,1796
1856,1874,1770
1865,1886,1764
1894,1911,1795
1903,1923,1801
1894,1888,1777
1855,1858,1714
1840,1878,1706
1872,1902,1777
1890,1918,1794
1873,1899,1748
1894,1920,1749
1903,1908,1791
1850,1869,1743
1847,1878,1719
1900,1920,1759
1887,1901,1760
1887,1895,1763
1884,1897,1714
1882,1906,1760
1903,1927,1738
1891,1924,1779
1848,1877,1683
1849,1886,1709
1875,1914,1767
1884,1910,1775
1880,1920,1735
1904,1945,1762
1879,1927,1780
1865,1891,1760
1840,1898,1669
1854,1889,1707
1855,1878,1719
1858,1885,1742
1871,1909,1721
1888,1935,1733
1906,1936,1777
1883,1926,1785
1869,1923,1715
1879,1920,1718
1891,1936,1763
1882,1931,1754
1872,1925,1729
1894,1937,1744
1903,1949,1748
1886,1934,1734
1861,1910,1722
1893,1955,1702
1889,1931,1808
1872,1918,1789
1840,1886,1658
1852,1884,1663
1879,1921,1760
1888,1925,1804
1877,1919,1709
1886,1919,1714
1903,1934,1761
1900,1935,1796
1890,1938,1719
1904,1945,1722
1883,1919,1779
1874,1911,1773
1899,1927,1731
1922,1959,1755
1901,1963,1778
1855,1918,1747
1835,1891,1705
1874,1911,1718
1899,1927,1775
1897,1927,1776
1858,1905,1735
1872,1921,1740
1886,1904,1767
1877,1895,1749
1866,1900,1727
1886,1920,1740
1906,1943,1805
1894,1937,1814
1887,1915,1758
1887,1918,1727
1909,1936,1785
1920,1939,1808
1917,1932,1778
1852,1879,1657
1866,1895,1680
1873,1886,1776
1862,1883,1731
1889,1902,1744
1907,1918,1786
1913,1936,1821
1899,1926,1759
1911,1920,1751
1884,1917,1715
1850,1897,1761
1840,1874,1712
1883,1902,1754
1907,1917,1803
1905,1939,1785
1891,1925,1738
1862,1893,1725
1904,1910,1773
1901,1909,1838
1894,1923,1744
1874,1897,1758
1904,1891,1761
1889,1892,1838
1882,1907,1738
1904,1934,1814
1901,1908,1858
1904,1909,1811
1904,1918,1782
1895,1890,1757
1869,1874,1773
1863,1873,1818
1878,1889,1778
1887,1890,1726
1877,1872,1770
1881,1889,1790
1882,1886,1781
1900,1905,1771
1904,1916,1834
1903,1914,1785
1891,1894,1766
1879,1890,1759
1887,1894,1787
1893,1900,1808
1890,1902,1745
1893,1895,1771
1879,1887,1778
1887,1888,1821
1900,1904,1778
1904,1916,1754
1939,1939,1817
1895,1892,1810
1860,1866,1735
1888,1904,1786
1915,1905,1870
1899,1903,1801
1883,1894,1783
1884,1899,1794
1890,1892,1797
1887,1885,1798
1887,1902,1771
1890,1912,1823
1894,1901,1792
1894,1890,1806
1872,1883,1756
1876,1900,1773
1903,1920,1794
1923,1936,1874
1891,1905,1751
1820,1835,1735
1845,1846,1743
1878,1873,1822
1885,1898,1822
1898,1907,1808
1918,1906,1840
1903,1906,1834
1904,1908,1813
1903,1915,1806
1901,1919,1843
1901,1905,1851
1890,1902,1799
1888,1899,1787
1873,1878,1787
1889,1874,1799
1893,1887,1787
1900,1905,1786
1904,1906,1825
1896,1900,1840
1885,1897,1797
1911,1908,1806
1898,1901,1834
1889,1901,1835
1902,1920,1810
1893,1897,1791
1907,1911,1845
1904,1906,1855
1855,1866,1760
1863,1883,1761
1879,1882,1807
1890,1891,1827
1892,1899,1799
1917,1922,1808
1911,1922,1849
1881,1883,1825
1861,1865,1775
1899,1887,1776
1889,1900,1821
1919,1907,1839
1875,1913,1815
1891,1903,1806
1890,1899,1829
1874,1893,1839
1917,1904,1810
1939,1931,1815
1895,1906,1845
1869,1888,1840
1874,1899,1776
1885,1904,1781
1889,1916,1827
1898,1921,1839
1875,1916,1789
1855,1927,1794
1863,1961,1845
1860,1936,1836
1882,1935,1787
1869,1935,1780
1862,1922,1796
1876,1919,1825
1879,1936,1799
1859,1957,1790
1941,1967,1836
1904,1983,1862
1842,1967,1807
1858,1983,1814
1901,1979,1852
1883,1958,1853
1887,1963,1792
1861,1967,1794
1889,1968,1829
1842,1969,1844
1898,1980,1825
1892,1984,1808
1909,1987,1841
1904,1984,1851
1888,1985,1821
1904,2000,1811
1905,1989,1856
1905,1961,1841
1873,1965,1799
1885,1978,1808
1904,1985,1840
1875,1949,1822
1893,1952,1808
1903,1973,1809
1903,2005,1853
1891,1973,1840
1830,1982,1813
1881,2000,1829
1901,2026,1851
1933,2030,1856
1914,2026,1818
1910,2022,1806
1879,2034,1860
1859,2009,1845
1874,2022,1808
1892,2032,1794
1877,2080,1844
1853,2096,1859
1876,2128,1835
1904,2169,1846
1927,2192,1879
1899,2190,1874
1862,2181,1809
1872,2226,1827
1950,2256,1854
1913,2224,1824
1881,2231,1792
1891,2267,1817
1936,2306,1872
1915,2304,1871
1904,2310,1830
1890,2315,1808
1899,2314,1853
1893,2309,1862
1889,2307,1833
1921,2345,1862
1927,2337,1865
1870,2302,1835
1887,2326,1826
1900,2322,1836
1883,2320,1851
1888,2336,1882
1907,2330,1839
1935,2341,1827
1847,2271,1819
1862,2279,1834
1859,2310,1831
1834,2320,1838
1865,2274,1860
1872,2263,1854
1894,2272,1823
1912,2281,1831
1942,2291,1878
1913,2289,1884
1899,2288,1856
1907,2290,1846
1920,2275,1870
1919,2272,1875
1933,2288,1876
1911,2287,1846
1887,2244,1846
1892,2244,1851
1871,2245,1818
1887,2235,1813
1856,2210,1840
1977,2209,1869
1917,2225,1840
1936,2240,1841
1984,2247,1879
1879,2175,1840
1805,2150,1772
1859,2183,1822
1909,2219,1882
1877,2189,1849
1993,2213,1825
1971,2197,1834
1859,2159,1829
1847,2174,1861
1891,2223,1870
1858,2172,1814
1853,2159,1822
1948,2193,1861
1906,2167,1814
1822,2175,1819
1886,2177,1877
1870,2151,1854
1879,2133,1823
1886,2186,1841
1945,2192,1872
1943,2192,1873
1920,2199,1840
1971,2243,1837
1974,2221,1889
1811,2096,1810
1782,2087,1761
2011,2182,1811
2145,2206,1904
1871,2107,1835
1810,2082,1697
1889,2139,1827
2105,2224,1892
2403,2322,2021
1867,2032,1825
1453,1920,1676
1511,2007,1818
1853,2153,1921
2277,2233,1887
2226,2157,1774
2091,2112,1833
2047,2064,1859
2197,2099,1647
2085,2023,1616
1841,1968,1857
2078,2168,2177
2178,2225,2064
2256,2190,1943
1943,2065,1780
1482,1821,1523
1689,1935,1707
1659,1964,1897
1776,2075,1782
2119,2215,1999
2551,2201,1951
1661,1840,1413
1310,1805,1326
2149,2160,1914
2405,1891,1783
1047,1726,1507
975,1836,1425
2065,2073,1602
2841,2037,1874
1559,1629,1329
646,1669,1424
1628,1995,1876
2603,2165,1535
1776,1483,1168
858,1443,1200
1623,1701,1281
2222,1614,1139
1344,1297,740
489,1375,770
475,1319,848
1006,1328,953
2291,1364,570
1937,1310,820
799,1018,956
62,1130,691
819,1173,509
1191,1086,528
1587,1604,1311
2438,1313,1168
855,1038,445
0,701,0
0,877,322
656,1093,1040
1552,1221,1270
1959,1298,1220
601,960,575
284,1072,348
1617,1192,363
1077,1117,811
818,1232,1383
675,1059,1143
645,1042,558
679,993,581
925,996,1008
1261,976,923
913,1120,801
676,1242,942
1342,1387,1249
1506,1255,1065
914,1054,793
752,979,837
784,1081,1058
898,1104,1186
1088,1200,1097
2970,1651,1445
1613,961,875
0,916,911
225,1070,1062
841,1057,965
1665,1425,1447
1329,1269,1317
1479,1361,1389
2067,1154,1277
1633,1202,1296
606,1159,1107
826,1085,1125
959,1115,1203
737,1247,1446
1056,1397,1505
1198,1309,1473
1451,1175,1535
924,1104,1322
1239,1360,1311
1479,1429,1495
1325,1120,1212
1053,1166,1327
1178,1325,1535
1675,1405,1943
1509,1305,1767
1173,1208,1295
1080,1264,1358
1746,1435,1488
1456,1265,1450
912,1350,1699
1130,1457,1863
1315,1254,1474
2304,1416,1581
1958,1281,1610
774,1195,1603
819,1438,1882
2227,1535,2035
1056,1237,1357
930,1425,1523
2306,1535,1482
1209,1265,1749
578,1279,1858
1235,1423,1827
2249,1535,1744
2063,1403,1755
1091,1289,1961
896,1332,1693
1586,1418,1837
1698,1360,1867
1375,1473,1733
1709,1535,1653
1709,1426,1857
1471,1494,2010
2663,1472,1872
1103,1172,1712
903,1389,2064
1975,1394,2158
1366,1239,1632
1100,1323,1603
1261,1408,1871
2267,1455,2144
1767,1243,1878
1115,1367,1887
1510,1393,1879
1867,1332,2127
1851,1259,1841
1681,1344,2061
1805,1300,2079
1527,1255,1898
1670,1299,1915
1773,1239,1845
2192,1471,2234
3155,1456,2191
599,1039,1678
31,1078,1857
1232,1295,2146
2253,1322,2036
1910,1361,1959
1870,1444,2029
2464,1511,2159
1877,1319,2032
854,1218,2064
1361,1359,2096
2007,1248,1931
1904,1381,2084
1675,1350,2099
1782,1386,2055
2315,1430,1984
1702,1413,2093
1223,1360,2320
1613,1374,2192
1977,1477,2239
1998,1505,2189
1743,1366,1799
2320,1432,1847
1870,1431,2129
1984,1578,2529
1628,1315,2128
1411,1419,1895
1715,1526,1963
1879,1471,2102
2145,1635,2283
2193,1618,2268
1807,1461,2100
1439,1335,1953
1376,1479,2237
1953,1664,2229
2139,1473,1915
1946,1659,2165
2174,1713,2339
1873,1600,2182
1810,1479,1931
1670,1530,2038
1655,1535,2230
1744,1659,2305
2181,1744,2280
1987,1615,2197
1907,1685,2222
2300,1739,2263
2096,1673,1830
1680,1555,1874
1566,1600,2256
1674,1627,2250
1950,1706,2224
2297,1776,2173
2081,1787,2115
1868,1733,2278
2349,1872,2351
2021,1628,2154
1365,1533,1967
1721,1713,2084
2315,1764,2000
1895,1714,2082
1817,1793,2321
2037,1799,2129
2304,1777,2278
1831,1706,2096
1708,1790,2205
2069,1914,2259
2447,1813,2174
2010,1648,2098
1700,1834,2108
1887,1812,2087
2007,1814,2101
2069,1777,2005
1735,1896,2164
2224,1921,2287
2055,1812,2020
1808,1878,2174
2006,1907,2359
2054,1819,2162
2002,1951,2061
2053,1889,2178
2175,1840,2187
2313,1835,2015
1818,2003,2275
1875,1947,2352
2554,1983,2189
2342,1943,2005
1899,1887,2136
2068,1843,1985
2071,1865,2107
1831,1840,2263
1843,1869,2135
2113,1875,2256
2141,1949,2202
1981,1952,2143
1844,2021,2006
2096,1985,2038
2183,1899,2149
2059,1982,2256
2106,1968,2167
1862,1951,2125
2093,1966,2192
2353,2011,2132
2368,2128,2256
2215,1927,1870
1639,1839,1942
1569,1859,2141
2038,2013,2181
2219,2017,2257
2518,2112,2372
2503,2032,1926
1643,1963,2003
1500,1882,2299
2223,2111,2320
3155,2295,2493
2521,1878,2025
1140,1839,2110
1328,1985,2259
2022,2047,2087
2338,2002,2130
2384,2096,2477
2064,2033,2320
1665,2065,2203
2095,2139,2336
2653,2133,2333
1949,1952,2111
2032,2013,2130
2347,2058,2145
2113,2015,2320
2337,2054,2320
2276,2096,2229
1826,2064,2319
1694,2032,2517
2096,2002,2359
2113,2018,2338
2305,2082,2369
1981,2071,2466
2003,2129,2507
2293,2093,2249
2000,1971,2214
1813,1875,2450
2041,2007,2437
1958,1949,2247
2110,2075,2335
2131,2063,2559
2019,1998,2425
2139,2005,2337
1755,1877,2359
1753,1986,2531
2388,1984,2391
2259,2046,2384
1872,2090,2397
1748,2001,2448
2366,2060,2586
2447,1889,2288
1758,2019,2382
1827,2000,2513
1953,1987,2454
2238,2000,2371
2071,2089,2241
1958,1792,1987
1650,1838,2396
1827,2080,2692
2073,2143,2559
1913,1965,2263
1977,1968,2215
2011,1988,2469
1981,2014,2307
2304,2112,2397
2064,2032,2503
1905,2047,2243
2029,1990,2238
2098,1987,2226
2055,2086,2315
2022,1969,2258
2033,1871,2181
2047,2041,2384
2107,2160,2434
1857,1946,2246
1749,1957,2351
2454,2046,2366
2302,2016,2131
1662,1991,2182
1505,2006,2256
2244,2183,2348
2519,2022,2261
1786,1987,2353
1695,2025,2249
2276,2081,2256
3027,2127,2061
1614,1906,1984
1072,1907,2180
1695,2064,2356
3177,2141,2284
2559,1876,1885
1276,1923,2221
1360,2014,2373
1854,2089,2233
2271,2112,2261
2275,2043,2101
1899,2025,2058
2067,2069,2318
3326,2064,2032
1838,1806,1774
974,1942,2203
1702,2064,2339
2320,2119,2158
1919,2096,2197
1903,2086,2202
2322,2087,2161
3171,2025,1818
2117,1920,1936
1102,1925,2162
1566,2081,2321
2415,2125,2150
2034,1856,1808
1617,1984,1989
2102,2103,2122
2722,2209,2066
1952,1925,1902
1375,1954,2115
1793,2027,2064
2410,2153,2063
2436,2124,2112
1842,2026,2125
1964,1970,2021
2103,1920,1812
1752,1986,1927
1754,2013,2030
2646,2180,2102
3306,2148,1839
1466,1892,1904
934,1894,2112
1761,1978,2173
2384,2128,2162
2718,2128,1808
1804,1938,1763
1683,2018,2017
1789,1965,1888
2099,2090,2101
2384,2137,2041
2061,1968,1858
2000,1990,1838
1985,2043,1920
2370,1989,1753
1718,2053,2075
1863,2065,2030
2096,2086,1959
2833,2227,2113
2113,1867,1743
1391,1863,1665
1855,1981,1866
1950,1993,2109
1947,2011,2034
2160,2096,1954
2117,2125,1924
1793,1951,1749
1863,1945,1753
2111,1985,1811
2224,2096,2033
2553,2075,1872
2215,1973,1801
1571,1947,1904
1819,1911,1823
1978,2010,1747
2496,2224,1846
2610,2030,1797
1573,1842,1751
1124,1885,1812
1973,2066,1965
2416,2032,1709
2010,1973,1703
2881,2272,1925
1936,1851,1680
1019,1777,1863
1555,1933,1634
2243,2003,1636
2014,1980,1847
1773,1981,1878
2386,2059,1829
2210,1957,1680
1946,2001,1845
2269,1978,1936
1511,1936,1731
1563,2033,1776
2005,2000,1715
2283,1937,1667
2400,2030,1882
1916,2118,1866
1872,2065,1856
2431,1920,1481
1474,1680,1520
1125,1819,1748
1807,1938,1843
2609,2027,1662
2387,2112,1781
1879,2031,1808
1616,1947,1968
2020,1903,1694
1835,1904,1493
1821,1927,1561
2624,2058,1776
2511,1887,1715
1951,1922,1791
1462,2000,1859
1891,2089,1971
1911,2000,1874
1935,2002,1610
1677,1737,1424
1975,1823,1648
2101,1893,1535
1796,2020,1872
1664,2053,1887
1840,1952,1840
2098,1863,1762
2489,1966,1575
2162,1937,1581
2045,2016,1842
1657,1845,1600
1751,1895,1741
1694,1797,1648
2212,2070,2139
2311,2095,1825
1987,1990,1575
2307,1866,1331
1757,1834,1599
1411,1907,1872
1874,1893,1969
3088,2032,1815
2153,1871,1498
1072,1858,1693
1324,1952,1849
1878,1905,1746
2181,1885,1571
2375,1858,1445
1521,1915,1917
1591,1968,1806
2810,2064,1687
2067,1985,1709
1398,1869,1735
1867,1977,1803
2414,1873,1772
1799,1719,1569
1994,1949,1535
2126,2000,1755
1669,1914,1748
1647,1858,1798
1573,1866,1777
1889,2006,1906
1988,1969,1811
2322,1952,1756
2178,1887,1507
1738,1927,1679
1712,1944,1879
2617,1920,1674
1801,1813,1425
1323,1919,1832
2087,2065,1956
2256,1806,1579
2211,1809,1690
1280,1798,1808
1290,1936,1891
2064,2003,1677
2640,2028,1694
1774,1826,1679
1489,1837,1739
2047,1886,1600
2422,1990,1947
1929,1876,1810
1588,1919,1730
2401,1940,1561
1808,1797,1626
1535,1937,1866
1877,2032,1963
1953,1915,1812
2130,1906,1478
1935,1783,1587
2381,1866,1571
1852,1869,1660
1413,1970,1946
1914,2031,1830
2850,2128,2080
1488,1776,1757
1225,1747,1588
1999,1830,1532
2549,1991,1818
1904,1910,1709
1365,1857,1573
2045,1959,1619
2832,2001,1922
2187,1891,1808
1040,1774,1686
1427,1835,1825
2347,1892,1738
2138,1898,1394
2509,2198,2046
2009,1826,1616
1219,1785,1824
1810,2082,1985
3366,2199,1744
3954,1955,1258
1315,1625,1623
371,1824,2317
1759,2090,2199
2528,1877,1583
1666,1680,1511
1373,1795,1718
1887,1926,1651
2320,2091,1819
2243,1991,1780
1839,1842,1839
2406,1980,2149
2211,1964,1801
1626,1744,1500
1254,1765,1508
1414,1806,1625
2059,1936,1928
2471,1936,1723
2414,1997,1715
1699,1878,1766
1568,1935,1858
1680,1881,1798
2311,1918,1925
1748,1735,1391
1899,1879,1739
1731,1889,1904
1910,1857,1746
2115,2002,2010
1792,1994,1846
1671,1849,1825
1858,1830,1755
1837,1810,1613
1990,1936,1698
2591,2034,1759
1849,1886,1743
1454,1817,1803
1721,1793,1776
1659,1839,1939
1591,1842,1808
1875,1913,1793
1993,1953,1680
1909,1945,1990
2023,1936,1767
2352,1932,1757
2527,1866,1741
1527,1796,1757
1291,1924,2006
1557,1851,1713
2384,1950,1915
2093,1839,1584
1618,1872,1701
2067,1904,1787
1890,1887,1824
1671,1862,1739
1778,1837,1709
1952,1801,1786
1622,1872,1871
1959,2033,1744
3146,2103,1519
1866,1807,2074
847,1696,1951
1941,2070,1949
2390,1850,1669
1791,1773,1651
1507,1813,1866
1713,2006,2142
2270,2069,1965
2000,1856,1667
2265,1858,1824
1773,1805,1647
1933,2019,1845
2455,1984,1856
2119,1821,1936
1952,1991,2089
1616,1858,1811
1865,1886,1914
2019,1901,1774
2498,1903,1535
1957,1810,1797
1023,1712,1841
1419,1843,2012
1739,1859,1938
2224,1923,1871
2297,1911,1806
1817,1811,1485
1386,1851,1760
2122,2112,2017
2558,1906,1728
1840,1751,1817
1886,2070,2107
2368,1968,1759
1626,1733,1783
1131,1775,1757
1440,1807,1764
2039,1774,1589
2457,1885,1834
1795,1872,1849
1714,1968,1904
2035,1886,1685
1838,1823,1690
1447,1858,1852
1850,1982,1991
2450,1983,1997
1769,1763,1585
1409,1813,1764
2368,2129,1968
2506,1900,1857
1354,1766,1781
1535,1745,1670
2042,1905,1827
2880,1907,1809
1826,1751,1655
1072,1808,2101
1642,1930,1963
1867,1871,1499
1790,1763,1701
2131,1917,1938
2282,1917,1887
1814,1917,1854
1521,1716,1600
1662,1883,2037
1821,1771,1805
2350,1879,1627
1968,1849,1743
1457,1906,2074
1770,1915,1943
2234,2004,1874
1777,1734,1535
1598,1829,1786
1701,1826,1795
2041,1965,1918
1974,1833,1915
1801,1847,1728
1554,1819,1749
2069,1919,1971
2559,1904,1791
1755,1827,2053
2124,2006,1855
1574,1783,1571
1183,1874,1833
1915,1955,1907
2215,1780,1654
1849,1776,1819
1452,1858,2034
1920,1892,1712
3085,2160,2111
2176,1751,1805
949,1659,1535
1166,1839,1758
2318,1959,1774
1777,1731,1732
1535,1905,1966
1973,1999,2021
3017,2054,1782
2001,1766,1870
1093,1808,2113
1274,1885,1931
1861,1872,1739
2451,1824,1383
1646,1782,1767
1726,1933,2014
1936,1941,1979
2099,1794,1585
2189,1827,1427
1584,1731,2083
1414,1952,2195
2451,2134,1936
2171,1762,1557
1277,1715,1607
1462,1957,1845
2145,2029,1929
2356,1865,1831
1779,1712,1765
1296,1785,1793
1808,1842,1743
2163,2054,1840
2416,1910,1920
2062,1923,1834
1426,1786,1691
1535,1853,1905
2099,1801,1615
1527,1795,1809
1629,1968,2141
2131,2000,1904
2416,1842,1399
1882,1791,1554
1808,1805,1803
1973,1959,2160
1600,1936,2032
1639,1922,1926
1968,2000,1799
2006,1846,1681
1681,1742,1666
2274,1952,1755
2199,1817,1709
1457,1750,1807
1265,1806,1937
2162,2019,1959
3376,2003,1712
1614,1661,1506
719,1835,1886
1397,1962,1999
2432,2064,1871
2384,2011,1968
1577,1831,1846
1581,1973,1853
1936,1812,1506
1983,1747,1469
1989,1915,1847
1789,1900,2111
2005,2043,2180
1727,1792,1584
1749,1825,1795
2082,1795,1745
2076,1826,1681
2385,2018,1883
1863,1996,1822
1497,1922,1811
1851,1895,1790
2121,1877,2016
2143,1839,1848
1296,1767,1530
1535,1894,1693
2101,2059,1842
2192,1875,1840
1968,1798,1809
2383,2064,1984
2631,2015,1957
2000,1855,1895
1681,1580,1453
1198,1835,1776
1553,2046,2042
2032,1873,1669
1962,1849,1808
1754,1822,1791
2192,1920,1809
2682,2213,2146
2679,1986,1829
1416,1701,1712
1239,1840,1823
1982,1925,1741
1907,1946,1968
1926,1875,1865
1843,1727,1686
1621,1834,1763
2227,2107,2099
2409,1921,1831
1494,1730,1637
1711,1805,1814
2041,1911,1862
1989,1951,1918
2479,2112,2139
1817,1909,1871
1484,1866,1787
1907,1936,1942
1911,1823,1682
2135,1831,1529
2747,2082,1947
1771,1787,2061
1258,1763,1850
1961,1872,1611
2127,1755,1586
1970,1935,2017
2217,2058,1983
1653,1779,1691
1418,1802,1843
1648,1829,1829
2126,1859,1583
2641,2032,2000
2021,1953,2085
1671,1821,1859
2144,2030,1968
2081,1904,1827
1664,1711,1591
1949,1929,1936
2255,1906,1830
1857,1808,1851
1380,1750,1791
1526,1823,1731
2442,1936,1570
2939,2096,1968
1265,1652,1742
1107,1734,1763
2654,2041,1831
2386,1860,1826
1265,1731,2085
1229,1874,1936
2091,2003,1899
2125,1943,1714
1597,1920,1950
2304,2039,1917
2559,1963,1719
1694,1740,1727
1230,1755,1884
1686,1815,1948
2389,1798,1698
1792,1749,1674
1447,1907,1961
1727,1969,1969
2076,2000,1954
3491,1983,1637
1904,1697,1563
743,1711,1787
1535,2032,2140
2309,1941,1887
2226,1926,1839
1795,1902,2038
1648,1877,1927
2212,2064,1943
2895,1980,1630
1623,1620,1535
1005,1723,1872
1878,1959,1970
2064,1878,1797
1997,1939,1901
1581,1837,1837
1664,1856,1858
2000,1917,1919
2045,1890,1796
2004,1958,1970
1809,1899,1979
2157,2055,2035
2772,2073,2015
1840,1939,1776
1338,1776,1648
1399,1712,1669
1763,1810,1879
1902,1753,1712
2143,1878,1799
2987,2291,2064
2251,1773,1831
878,1639,1775
1561,1913,1979
2266,2031,2117
2237,1902,1754
1490,1757,1605
1424,1902,1936
1899,1948,2070
2110,2004,2175
2039,1995,1933
2295,1927,1762
1639,1662,1609
