1858,1866,1776
1872,1886,1808
1894,1920,1851
1891,1904,1843
1885,1891,1805
1877,1895,1802
1888,1910,1836
1914,1928,1866
1888,1900,1819
1867,1905,1803
1859,1903,1833
1851,1875,1830
1868,1875,1799
1883,1903,1808
1911,1933,1879
1911,1918,1872
1891,1900,1807
1919,1936,1834
1883,1908,1831
1857,1872,1807
1843,1865,1787
1859,1899,1809
1890,1923,1858
1913,1933,1888
1883,1904,1818
1851,1886,1776
1875,1911,1827
1896,1914,1856
1879,1904,1845
1870,1914,1810
1885,1930,1842
1913,1936,1872
1920,1942,1847
1872,1904,1787
1854,1898,1810
1875,1905,1840
1895,1921,1837
1916,1958,1845
1873,1936,1840
1840,1882,1809
1856,1900,1803
1887,1923,1836
1909,1941,1872
1894,1915,1842
1851,1892,1785
1860,1904,1788
1875,1919,1843
1887,1910,1847
1899,1926,1827
1902,1942,1846
1872,1934,1853
1855,1900,1838
1874,1893,1805
1903,1927,1818
1857,1903,1822
1819,1869,1834
1853,1888,1791
1884,1909,1786
1910,1953,1863
1878,1919,1859
1863,1897,1808
1859,1902,1807
1863,1920,1835
1879,1916,1854
1894,1909,1823
1893,1926,1834
1898,1937,1888
1903,1927,1872
1901,1923,1827
1889,1924,1797
1894,1942,1834
1867,1899,1818
1857,1873,1786
1855,1891,1795
1850,1903,1827
1868,1936,1855
1890,1925,1840
1898,1939,1849
1886,1921,1865
1865,1939,1818
1852,1862,1779
1847,1904,1778
1872,1922,1834
1877,1902,1865
1899,1935,1859
1901,1936,1839
1874,1926,1839
1895,1892,1866
1859,1870,1793
1853,1901,1787
1862,1904,1840
1872,1909,1853
1873,1886,1829
1868,1907,1811
1883,1936,1840
1893,1937,1865
1903,1949,1851
1883,1936,1815
1860,1920,1824
1883,1923,1851
1906,1955,1816
1922,1967,1840
1905,1916,1850
1872,1913,1849
1840,1889,1798
1841,1872,1794
1856,1907,1846
1886,1914,1865
1904,1904,1848
1881,1943,1819
1872,1925,1842
1890,1933,1868
1902,1930,1836
1899,1921,1823
1894,1941,1856
1907,1935,1888
1918,1933,1862
1921,1945,1850
1854,1904,1811
1868,1901,1838
1895,1939,1843
1907,1942,1856
1885,1952,1857
1843,1893,1820
1841,1872,1786
1877,1882,1809
1917,1922,1872
1934,1954,1898
1908,1865,1839
1857,1936,1808
1872,1968,1853
1888,1904,1869
1904,1920,1852
1875,1901,1813
1877,1941,1857
1897,1920,1902
1910,1951,1866
1911,1905,1835
1910,1942,1861
1881,1910,1857
1872,1909,1829
1895,1925,1840
1907,1936,1872
1886,1957,1885
1902,1954,1855
1920,1988,1867
1942,1963,1894
1897,1929,1865
1845,1878,1796
1867,1890,1803
1889,1915,1851
1885,1917,1872
1899,1913,1841
1916,1936,1841
1919,1949,1874
1911,1950,1889
1877,1904,1818
1865,1891,1783
1879,1915,1840
1892,1890,1879
1871,1888,1838
1873,1882,1801
1893,1887,1863
1920,1936,1895
1914,1995,1862
1920,1925,1839
1927,1968,1887
1889,1942,1859
1876,1879,1803
1866,1886,1788
1878,1927,1858
1906,1921,1895
1907,1914,1849
1920,1920,1837
1900,1920,1842
1906,1926,1865
1871,1885,1808
1872,1895,1806
1901,1922,1866
1914,1908,1872
1917,1888,1814
1904,1929,1831
1904,1920,1890
1895,1925,1890
1931,1889,1875
1904,1900,1815
1859,1967,1829
1872,1943,1865
1927,1938,1871
1906,1947,1837
1875,1980,1870
1887,1922,1893
1841,1839,1808
1861,1879,1808
1888,1939,1851
1920,1962,1889
1879,1811,1829
1883,1868,1815
1889,1891,1842
1886,1907,1885
1899,1904,1873
1904,1924,1849
1883,1907,1854
1871,1951,1854
1878,1888,1823
1927,1926,1862
1920,1953,1893
1882,1889,1871
1867,1885,1817
1868,1968,1808
1891,1905,1869
1906,1910,1886
1891,1889,1827
1893,1892,1798
1872,1920,1863
1898,1958,1925
1873,1907,1845
1840,1871,1776
1847,1899,1813
1904,1947,1879
1966,1937,1894
1872,1893,1814
1829,1943,1830
1853,1867,1860
1875,1840,1831
1887,1905,1831
1916,1916,1879
1922,1918,1878
1897,1856,1837
1883,1919,1833
1871,1905,1844
1937,1935,1897
1955,1920,1845
1855,1869,1803
1810,1856,1824
1867,1889,1857
1869,1899,1815
1904,1907,1849
1937,1931,1893
1919,1905,1883
1869,1879,1808
1865,1891,1803
1841,1886,1817
1858,1901,1842
1915,1915,1856
1984,1947,1874
1855,1882,1818
1817,1868,1806
1853,1890,1798
1907,1942,1858
1950,1953,1904
1935,1911,1859
1853,1885,1810
1806,1883,1781
1838,1911,1830
1872,1911,1866
1901,1921,1846
1942,1952,1831
1904,1942,1891
1869,1921,1875
1827,1876,1791
1809,1867,1789
1851,1889,1823
1914,1898,1837
1919,1914,1858
1877,1915,1863
1847,1902,1851
1885,1930,1907
1875,1905,1875
1841,1888,1824
1870,1911,1843
1999,1925,1878
2023,1922,1866
1806,1845,1776
1754,1855,1777
1873,1895,1833
1906,1901,1846
1856,1877,1838
1851,1916,1881
1869,1904,1872
1856,1846,1808
1846,1858,1789
1878,1895,1862
1874,1875,1873
1875,1868,1838
1891,1867,1809
1957,1929,1905
1883,1873,1874
1837,1858,1808
1870,1885,1792
1927,1891,1814
1922,1867,1795
1783,1827,1808
1766,1834,1794
1898,1907,1856
1952,1903,1936
1858,1823,1798
1829,1825,1745
1837,1856,1823
1841,1872,1909
1865,1891,1871
1883,1914,1850
1937,1936,1899
1895,1887,1879
1868,1837,1808
1904,1854,1776
1907,1885,1840
1838,1859,1845
1833,1859,1834
1863,1874,1808
2014,1958,1936
1904,1867,1885
1776,1830,1791
1808,1858,1796
1885,1904,1879
1936,1904,1927
1869,1840,1823
1853,1845,1789
1863,1879,1849
1883,1885,1872
1881,1882,1834
1904,1897,1843
1904,1902,1875
1902,1889,1879
1965,1908,1819
1983,1903,1847
1778,1819,1830
1776,1841,1862
1862,1871,1844
1917,1887,1845
1931,1904,1854
1880,1883,1876
1853,1862,1845
1891,1888,1809
1957,1915,1874
1852,1868,1877
1818,1841,1821
1899,1895,1842
2017,1974,1940
1904,1856,1858
1877,1843,1771
1947,1907,1856
1889,1854,1831
1849,1874,1881
1852,1881,1837
1898,1904,1834
1975,1941,1915
1979,1923,1925
1845,1835,1810
1809,1858,1786
1854,1895,1867
1903,1915,1904
1929,1920,1872
1951,1945,1888
1930,1925,1888
1927,1904,1877
1906,1897,1850
1854,1887,1808
1867,1897,1840
1908,1885,1837
2054,1969,1917
1905,1895,1857
1759,1847,1806
1777,1855,1825
1850,1869,1822
1904,1901,1847
1924,1923,1895
1933,1919,1904
1967,1939,1877
2000,1951,1887
1867,1891,1863
1849,1894,1875
1895,1906,1866
1904,1899,1848
1917,1923,1888
1953,1920,1926
1941,1895,1852
1927,1922,1831
1899,1936,1881
1901,1929,1899
1894,1903,1850
1904,1920,1854
1930,1939,1891
1970,1959,1904
1952,1932,1861
1936,1938,1851
1886,1917,1875
1894,1907,1889
1879,1882,1841
1881,1906,1835
1901,1927,1849
1936,1937,1905
1918,1913,1899
1911,1929,1828
1943,1968,1920
1909,1936,1920
1908,1923,1829
1919,1921,1821
1911,1926,1857
1920,1919,1872
1939,1941,1845
1927,1933,1859
1939,1937,1872
1941,1933,1892
1935,1934,1822
1936,1943,1886
1921,1939,1909
1936,1936,1905
1930,1930,1883
1910,1922,1857
1923,1950,1905
1941,1946,1920
1911,1921,1834
1895,1919,1834
1914,1949,1912
1923,1936,1909
1935,1939,1873
1914,1937,1854
1890,1929,1830
1919,1935,1856
1936,1943,1869
1968,1965,1856
1924,1945,1895
1920,1938,1855
1933,1932,1857
1905,1927,1827
1917,1945,1874
1941,1951,1899
1946,1947,1872
1947,1952,1854
1954,1979,1901
2001,2005,1975
1934,1923,1869
1907,1925,1826
1920,1937,1872
1917,1936,1894
1942,1937,1875
1947,1955,1856
1961,1985,1936
1930,1940,1906
1918,1923,1850
1949,1943,1856
1981,1980,1931
1963,1957,1886
1906,1906,1810
1878,1908,1846
1893,1941,1898
1949,1967,1930
2005,1971,1884
1936,1943,1861
1895,1942,1837
1940,1981,1933
2099,2014,1944
1967,1927,1863
1834,1906,1813
1840,1920,1856
1913,1933,1837
1943,1959,1847
1990,1979,1923
1982,1954,1909
1919,1936,1863
1913,1934,1825
1955,1951,1866
1960,1980,1934
1934,1950,1902
1902,1931,1847
1915,1958,1872
1913,1956,1865
1894,1942,1813
1971,2002,1869
2057,2010,1933
1943,1948,1904
1895,1935,1838
1873,1937,1827
1906,1968,1910
1936,1958,1887
1936,1949,1862
1943,1971,1863
1953,1997,1882
1997,2000,1917
1945,1943,1822
1937,1961,1842
1913,1978,1885
1903,1984,1905
1968,2006,1914
1963,1993,1871
1909,1981,1877
1904,1968,1903
1938,1974,1872
1929,1959,1823
1946,1999,1913
1921,1977,1890
1967,1997,1882
1927,1968,1840
1967,1998,1879
1979,1982,1895
1911,1938,1817
1968,2006,1894
1973,2009,1904
1927,1959,1843
1916,1967,1813
1911,1980,1888
1905,1978,1886
1902,1957,1882
1963,1971,1903
1931,1975,1904
1919,1984,1877
1943,1994,1935
1943,1991,1820
1933,1969,1815
1907,1961,1803
1906,1967,1840
1955,1977,1835
1972,1959,1849
1920,1963,1841
1915,1981,1950
1904,1963,1849
1918,1974,1829
1968,2016,1926
1963,1997,1937
1945,1962,1830
1965,1994,1831
1959,2017,1921
1857,1941,1867
1862,1925,1808
1901,1950,1836
1921,1968,1873
2007,2000,1936
2119,2043,2001
1887,1899,1802
1783,1867,1765
1863,1915,1838
1955,1974,1921
1952,1974,1891
1991,1984,1907
1985,1973,1968
1908,1908,1797
1921,1935,1819
1985,1994,1941
1962,1968,1961
1911,1907,1861
1887,1901,1782
1934,1973,1887
1981,1971,1920
1949,1953,1902
1989,1989,1903
1983,1943,1890
1855,1870,1817
1851,1893,1804
1936,1927,1943
1968,1935,1940
1921,1946,1899
1906,1910,1839
1980,1937,1904
1904,1919,1903
1897,1951,1904
2060,1962,1877
2017,1899,1831
1871,1890,1852
1813,1893,1915
1904,1963,1919
1890,1914,1810
1933,1946,1872
1945,1905,1857
2037,1921,1825
1926,1923,1872
1853,1933,1951
1903,1908,1946
1879,1872,1822
1930,1923,1847
2159,1973,1935
2026,1917,1888
1781,1854,1729
1851,1904,1834
1774,1907,1973
1887,1941,2030
1923,1901,1889
1975,1938,1855
1969,1937,1904
1841,1871,1847
1826,1894,1861
1891,1929,1878
1841,1881,1856
1870,1851,1875
1888,1890,1876
1840,1840,1765
1845,1862,1810
1969,1934,1910
1918,1834,1779
1840,1859,1822
1810,1871,1926
1845,1865,1824
1876,1872,1805
1901,1881,1886
2021,1893,1922
1983,1858,1861
1751,1770,1782
1731,1809,1776
1879,1862,1875
1865,1869,1840
1789,1814,1771
1846,1853,1839
1890,1873,1906
1946,1843,1917
1790,1814,1808
1773,1825,1754
1822,1774,1842
1805,1805,1801
1779,1824,1723
1878,1799,1801
1877,1818,1904
1842,1791,1770
1798,1799,1778
1825,1790,1839
1872,1855,1856
1882,1824,1818
1841,1765,1774
1732,1821,1870
1874,1801,1898
1856,1765,1789
1885,1850,1805
1901,1836,1825
1815,1850,1904
1759,1775,1801
1814,1776,1811
1806,1834,1837
1808,1850,1840
1808,1819,1827
1863,1774,1807
1840,1795,1810
1872,1818,1898
2057,1872,1959
1907,1794,1758
1732,1785,1751
1604,1776,1754
1854,1837,1843
1936,1817,1851
1925,1844,1901
1714,1833,1931
1807,1781,1856
1992,1815,1840
1838,1821,1705
1840,1841,1785
1997,1840,1818
2032,1797,1762
1663,1744,1750
1601,1824,1807
1822,1877,1876
2079,1870,1775
1947,1829,1755
1694,1798,1706
1729,1767,1702
1857,1759,1683
2160,1845,1827
1963,1857,1893
1656,1775,1707
1718,1780,1703
1954,1827,1755
1904,1823,1667
1696,1799,1723
1860,1847,1823
2093,1822,1829
1811,1759,1683
1694,1818,1799
1897,1847,1770
2001,1840,1782
1872,1834,1765
1855,1835,1747
1890,1856,1776
2010,1825,1728
1782,1819,1817
1609,1797,1826
1970,1835,1778
1963,1837,1765
2030,1830,1698
1795,1798,1743
1806,1796,1771
2094,1872,1848
2121,1874,1838
1535,1737,1726
1590,1813,1758
2012,1914,1922
2096,1793,1819
1846,1781,1702
1725,1843,1770
1840,1854,1786
1875,1847,1845
1952,1887,1937
2098,1871,1875
1827,1809,1757
1589,1803,1718
1823,1845,1817
2190,1915,1873
2077,1876,1845
1763,1893,1910
1863,1855,1771
2018,1863,1841
1929,1819,1797
1759,1806,1734
1773,1911,1936
1783,1847,1857
1890,1826,1727
2065,1919,1909
1938,1927,1981
1774,1842,1857
1738,1833,1759
2057,1931,1933
2225,1937,1929
1762,1815,1791
1597,1855,1795
1877,1942,1856
2006,1892,1763
1902,1931,1900
1808,1892,1925
1801,1871,1819
2224,1988,1982
2197,1953,1884
1854,1859,1849
1690,1841,1818
1654,1820,1774
1806,1902,1872
1999,2004,1942
2270,2054,2127
2021,1890,1865
1680,1815,1726
1783,1879,1821
2069,2014,1957
2057,1930,1882
1891,1840,1867
1732,1867,1833
1732,1914,1842
1995,1984,2014
2209,1987,1942
2091,1904,1696
1731,1883,1893
1722,1879,1870
1872,1869,1965
1885,1927,1851
2191,2011,1879
1955,1923,1955
1604,1872,1851
1823,1891,1820
1904,1936,1918
2094,1977,1994
2130,1925,1914
1914,1905,1903
1808,1914,1936
1947,1936,1967
2054,1943,1971
1867,1874,1768
1970,1968,1890
2060,1957,1966
2064,1954,1915
1890,1895,1854
2000,1935,1955
1743,1898,1976
1693,1901,1856
1889,1936,1795
2100,1971,1923
2133,1952,1935
1953,1914,1902
1899,1917,1953
1993,1981,2037
1917,1945,2001
1983,1869,1853
1805,1825,1671
1807,1938,1930
2079,1946,2064
2203,1964,2032
1840,1919,1877
1856,1921,1877
1932,1934,1887
1818,1891,1918
1936,1939,1899
2131,1942,1872
2128,1906,1870
1968,1938,2030
2160,2006,2074
1751,1872,1958
1627,1862,1825
1872,1840,1735
2075,1994,1878
1893,1913,1982
1882,1906,2000
2112,1951,1920
2224,1936,1781
1830,1950,1998
1839,1961,2093
2033,1946,2025
1938,1904,1974
1917,1887,1838
2085,1941,1948
2150,1941,2027
1787,1869,1806
1851,1925,1903
2010,1902,1889
2036,1927,1949
1965,2019,1855
1979,2000,2019
1937,1822,1849
1968,1773,1803
1973,1899,1982
1828,1999,1965
1840,1954,1902
1935,1885,1879
2129,1897,1932
2003,1936,1855
1915,1963,1984
1942,1958,1971
2043,1981,1890
2004,1947,1890
2030,1951,2075
2082,1856,2070
1866,1865,1799
1791,1964,1808
1875,1956,1849
1985,1922,1882
1951,1873,1953
1915,1904,1904
2090,1969,2014
2256,1952,2095
2000,1937,1957
1809,1931,1920
1834,1889,1907
1810,1889,1826
1923,1953,1923
2161,1970,2015
2613,2023,2013
1887,1840,1815
1474,1898,1942
1849,1963,2032
2257,2015,1959
2016,1910,1776
1657,1867,1824
1810,1921,2019
2253,1968,2101
2369,1923,1931
1840,1858,1877
1744,1927,1805
1840,1928,1971
1954,1930,2064
2025,1916,1883
2112,1935,1806
2101,1962,1957
1797,1941,1898
1875,1925,1846
1860,1916,1867
1889,1918,1945
2106,1905,1878
2192,1963,1957
1905,1923,2128
1889,1910,1939
2379,1986,1909
2061,1936,2000
1525,1902,1968
1693,1929,1945
2143,1913,1856
2074,1899,1893
1855,1905,2011
1776,1878,2014
2027,1963,1927
2121,1933,1801
2268,2035,2083
2226,1917,1963
1643,1737,1558
1479,1831,1778
1778,1919,2002
2158,1968,2169
2096,1888,1876
1964,1894,1835
1910,1987,2034
2064,2003,2104
2246,1949,1922
1961,1745,1808
1552,1789,1743
1680,1942,1885
1977,1947,1936
2128,1904,1983
2062,1993,2023
1971,1968,1878
2261,2007,2002
1987,1829,1968
1535,1807,1820
1797,1925,1826
2129,1893,1828
1917,1875,1936
1840,1927,1956
2045,1982,1971
2256,1975,1967
2036,1955,1933
1712,1841,1899
1806,1872,1877
1898,1863,1790
1811,1863,1873
2173,2002,2096
2113,1906,2000
1936,1921,1994
2023,1884,1791
1979,1921,1766
1805,1823,1877
1751,1863,1869
1903,1888,1919
2021,1947,1955
2035,1995,2100
1899,1943,1968
2091,1935,1852
2211,1903,1927
1654,1904,1919
1758,1901,1907
1923,1968,1883
1943,1895,1886
2043,1939,1917
1994,1871,1960
1829,1914,2013
2127,2017,2082
2242,1915,1839
1681,1877,1643
1735,1900,1775
2462,2096,2039
2116,1836,2013
1665,1889,1891
1845,1955,1834
1926,1958,1990
1965,1957,1998
2055,1942,1943
2066,1819,1849
1691,1885,1811
1744,1941,1916
2031,1974,2003
2062,1907,1845
1873,1856,1850
1823,1929,1934
2251,1963,1922
2355,1898,1891
1685,1866,1856
1494,1934,1894
1783,1942,1872
2286,2029,2000
2329,1851,1863
2020,1861,1845
1616,1840,2014
1649,1911,1887
1956,1946,1927
2160,2000,1989
2032,1935,1776
2099,1929,1873
2224,1837,1881
1505,1805,1757
1532,1867,1831
2069,1929,1837
2190,1904,1942
2010,1986,2042
1959,1917,1961
2096,1954,1882
1823,1813,1693
1670,1826,1792
1934,2016,2071
2118,1985,2035
2094,1904,1809
1936,1870,1872
1962,1938,1952
1779,1930,1830
1846,1891,1872
2038,1895,1952
1993,1883,1909
1829,1865,1805
1906,1867,1881
1986,1942,1910
2053,1938,1872
2042,1918,1873
2043,1941,1998
1965,1936,1979
1865,1858,1813
1898,1936,1890
2052,2002,2032
2055,1833,1757
1777,1811,1789
1766,1854,1849
2095,1985,1978
2151,1963,2027
2027,1938,1845
1730,1837,1659
1756,1910,1895
2031,1910,2101
2105,1937,1931
2069,1947,1840
1883,1890,1826
1756,1896,1882
1857,1902,1885
2025,1943,1818
2005,1953,1922
1997,1968,2034
1975,1950,1938
1872,1921,1829
1998,1925,1872
2087,1949,1920
2100,1973,1936
2291,1873,1954
1779,1837,1821
1607,1917,1841
1751,1922,1850
2160,1952,1847
2246,1952,1843
1805,1900,1904
1801,1951,2000
1967,1935,1917
2153,1936,1845
1865,1886,1858
1874,1904,1925
1985,1946,1905
1998,1930,1811
1936,1904,1859
1872,1914,1988
1941,1947,1914
2076,1968,1965
2003,1882,1818
1837,1845,1751
1837,1889,1927
2032,2005,1965
2266,1950,1887
2003,1899,1873
1734,1936,1872
1765,1903,1870
1985,1973,2019
2043,1940,1957
1959,1954,1732
1933,1867,1819
1899,1936,1878
1886,1847,1843
2041,1872,1783
1918,1854,1830
1849,1920,1946
2207,1970,1978
2088,1937,1872
1787,1924,1797
1869,1936,1962
2159,1908,1927
1897,1831,1808
1716,1910,1829
1901,1935,1872
2000,1943,1913
2002,1957,1871
1937,1907,1815
2096,1939,1870
2177,1915,1892
1840,1903,1802
1767,1909,1796
1702,1899,1857
2235,1924,1833
2007,1926,1829
1687,1899,1818
1975,2013,1977
2129,1964,1929
1693,1836,1809
1648,1925,1841
2031,1899,1904
2042,1987,1863
2047,2016,1979
2112,1891,1968
1883,1925,1834
1799,1901,1712
1865,1924,1792
1921,1937,1948
1883,1909,1965
1783,1915,1870
1858,1947,1842
2014,1987,1890
2176,1966,1872
2169,1923,1735
2093,1911,1793
1738,1871,1837
1701,1926,2011
1925,1937,1947
2114,1969,1855
2129,1955,1893
1870,1904,1849
1702,1869,1820
1849,1906,1843
2077,1998,1945
2015,1911,1909
1835,1887,1776
1890,1939,1789
2299,2076,2003
2025,1966,1971
1693,1873,1860
1761,1903,1818
2112,1948,1872
2384,1936,1920
1932,1883,1851
1487,1854,1743
1606,1889,1823
2211,1957,1949
2277,1943,1859
1680,1863,1801
1589,1931,1881
1893,1957,1991
2193,1939,1929
2196,1894,1751
1952,1968,1875
1703,1927,1905
1716,1879,1789
1979,1950,1798
2327,2043,2064
1995,1938,1952
1775,1856,1760
1810,1854,1762
1853,1915,1834
2244,2043,2043
2236,1885,1997
1623,1765,1776
1710,1927,1712
2055,1995,1839
2064,1931,1861
1854,1898,1874
1629,1856,1830
1817,1917,1898
2105,1973,1865
2071,1934,1801
1816,1898,1942
1799,1902,1935
1814,1931,1808
1965,1923,1785
1904,1904,1859
1910,1862,1871
1920,1925,1907
2001,1975,1882
2242,1962,1879
2122,1935,1966
1785,1836,1806
1678,1872,1788
1922,2018,2027
1967,1936,1922
1875,1935,1877
1882,1910,1754
1919,1902,1776
2102,1945,1931
2154,1922,1931
1856,1907,1835
1750,1964,1947
1818,1862,1882
2179,1959,1953
2096,1943,1904
1834,1917,1830
1872,1891,1779
1791,1889,1821
1776,1939,1872
1874,1937,1856
2032,1957,1968
2250,1931,1915
1978,1863,1769
2054,1936,1954
1996,1991,1971
1674,1865,1808
1611,1852,1764
1774,1907,1809
2062,1971,1842
2324,1982,1841
1905,1900,1871
1712,1877,1973
1750,1891,1956
1995,1911,1950
2112,1936,1822
2128,2000,1857
2058,1963,1979
1693,1841,1810
1727,1856,1759
1871,1906,1855
2125,1981,1903
2150,1917,1861
1697,1847,1802
1786,1885,1922
1947,1968,2002
2194,1975,1872
2137,1965,1799
1697,1846,1813
1747,1867,1850
1902,1904,1989
1911,1882,1857
1993,1878,1734
1872,1876,1786
1970,1931,1916
1914,1897,1876
1839,1936,2007
1937,1941,1931
2350,2059,1968
2224,1862,1775
1637,1795,1794
1535,1813,1831
1834,1882,1904
1959,1920,1968
1968,1938,1835
2015,1920,1867
2160,1927,1968
1850,1902,1816
1729,1933,1809
1809,1936,1870
1935,1899,1904
2003,1894,1856
2067,1898,1850
1872,1840,1904
1765,1803,1840
1853,1892,1870
1967,1946,1850
2131,1999,1951
2001,1934,1936
1760,1778,1792
1821,1831,1744
2077,1983,1983
1984,1863,1957
1932,1840,1850
1933,1881,1776
1905,1922,1905
1875,1867,1872
2097,1946,1831
2151,1907,1869
1842,1856,1865
1678,1799,1872
1851,1792,1808
2161,1859,1808
1856,1831,1803
1716,1887,1983
2010,1954,2039
1958,1904,1893
1765,1835,1828
1846,1840,1905
2086,1872,1861
1915,1904,1841
1796,1841,1843
1955,1881,1854
2006,1904,1903
1915,1926,1925
1939,1904,1923
1909,1883,1871
1935,1872,1842
1963,1885,1875
1857,1869,1845
2019,1886,1920
2290,1936,2000
2000,1803,1697
1691,1840,1802
1681,1863,1951
1842,1924,1907
2066,1936,1899
1967,1876,1831
1994,1863,1872
1912,1836,1758
1822,1857,1907
1763,1856,1945
1923,1904,1882
2128,1931,1873
2043,1906,1845
1749,1863,1925
1780,1855,1881
1973,1849,1716
2047,1906,1819
2115,1951,2103
1754,1803,1840
1739,1830,1730
1873,1926,1983
1984,1891,1947
2143,1871,1855
2112,1946,1798
1747,1872,1889
1725,1885,1936
1853,1882,1949
1961,1871,1885
1966,1873,1879
2015,1887,1886
1998,1870,1840
1959,1872,1863
2015,1941,1931
1968,1894,1930
1872,1793,1821
1839,1847,1898
1961,1924,1972
1936,1900,1902
1941,1779,1808
1936,1801,1781
1893,1870,1909
1832,1901,1990
1917,1882,1813
1828,1836,1761
1917,1918,1949
2064,1955,2025
1927,1872,1939
1883,1872,1776
1872,1869,1859
1904,1862,1887
2160,1935,1921
2175,1863,1802
1776,1809,1851
1721,1769,1837
1945,1853,1861
1876,1885,1861
1971,1891,1912
1967,1861,1869
1845,1837,1858
1835,1831,1821
2094,1872,1932
1926,1818,1808
1882,1872,1926
1790,1904,1955
2015,1960,1937
2002,1857,1806
1765,1786,1697
1808,1858,1887
1827,1873,1968
1846,1811,1808
1773,1759,1728
1966,1875,1840
1991,1901,1938
2113,1889,1993
1949,1874,1889
2030,1919,1890
1902,1890,1890
1766,1840,1798
1856,1787,1792
1861,1776,1858
1808,1829,1823
1842,1840,1867
1962,1875,1901
1961,1888,1881
1889,1863,1915
2029,1882,1957
1914,1843,1877
2001,1895,1968
1890,1834,1904
1813,1859,1904
2047,1909,1893
1993,1887,1968
1829,1767,1831
1712,1697,1713
1815,1779,1826
2115,1847,1776
2075,1811,1834
1835,1838,2015
1788,1810,1875
1826,1785,1780
1921,1808,1847
2013,1840,1923
1943,1776,1867
1918,1757,1783
1859,1792,1873
1982,1852,2057
1969,1757,1919
1790,1713,1679
1826,1771,1885
1938,1759,1983
1920,1725,1890
2023,1767,1807
2130,1838,1855
1889,1767,1953
1718,1671,1922
1885,1666,1750
2016,1702,1712
1965,1758,1988
1853,1715,2026
1790,1635,1775
1851,1680,1795
2029,1798,1923
2083,1770,1947
1861,1635,1704
1653,1680,1856
1744,1740,2046
1877,1746,1953
1990,1739,1824
2167,1795,1911
1987,1747,1989
1824,1728,1821
1854,1733,1749
1920,1776,1946
1820,1725,1945
1872,1742,1917
1920,1744,1842
1903,1769,1917
1878,1744,1930
2032,1735,1856
2017,1743,1776
1854,1730,1819
1776,1749,1873
1965,1791,1969
1922,1771,1932
1843,1744,1903
1839,1747,1879
2110,1762,1901
1996,1744,1797
1751,1766,1856
1807,1792,1851
1920,1785,1853
1994,1797,1853
1998,1819,1859
1981,1792,1863
1906,1763,1858
2032,1808,1893
1920,1807,1949
1776,1778,1941
1887,1751,1855
1877,1713,1650
1921,1808,1818
1953,1857,1929
1871,1822,1921
1936,1858,1909
1991,1845,1869
1883,1792,1974
1843,1791,1871
2085,1860,1811
2045,1870,1875
1911,1819,1953
1876,1808,1908
1883,1831,1821
1821,1776,1744
2106,1888,1872
2123,1867,1840
1877,1779,1744
1680,1766,1803
1829,1839,1977
1972,1829,1895
1736,1831,1774
1904,1904,1979
2241,1910,1905
2078,1838,1755
1637,1777,1744
1622,1798,1843
1982,1871,1935
2139,1875,1891
1963,1883,1934
1840,1872,1863
1821,1867,1873
2035,1929,1892
1984,1920,1831
2036,1904,1879
2110,1859,1823
1597,1808,1839
1717,1853,1839
2079,1984,1882
2194,1950,1892
1694,1841,1839
1653,1847,1829
1929,1873,1817
1951,1889,1895
1949,1920,1936
1885,1882,1847
1847,1872,1799
1907,1929,1909
1966,1930,1853
1936,1937,1840
2025,1979,1913
1904,1936,1919
1978,1937,1907
2053,1980,1897
1771,1903,1840
1770,1927,1850
1873,1905,1773
1947,1945,1886
1905,1923,1871
2066,1950,1914
1893,1913,1885
1713,1905,1776
1789,1904,1872
2103,1985,1954
2157,1951,1840
1723,1927,1767
1674,1970,1919
1904,1970,1943
1936,1913,1797
1923,1937,1833
2121,2011,1904
2074,1963,1803
1713,1957,1870
1712,1959,1946
1913,1968,1931
2046,1983,1829
2102,1997,1863
1840,1966,1851
1783,1935,1883
2063,1936,1935
1960,1937,1821
1863,1939,1730
1863,1936,1793
1763,1962,1934
1834,1976,1936
1894,2026,1885
2224,2011,1842
1904,1861,1750
1687,1921,1846
1818,2005,1881
1941,1977,1869
1929,1989,1890
2064,2023,1936
2096,2019,1953
1894,1962,1997
1648,1910,1770
1863,1962,1733
1788,1968,1779
1852,1991,1845
2142,1977,1904
1920,1975,1906
1867,1959,1935
2218,2030,1927
1874,1950,1791
1649,1926,1793
1751,1974,1822
1939,1981,1879
1893,1945,1851
1938,1983,1862
1936,1983,1857
2080,2064,1918
2039,2002,1870
1851,1955,1877
1916,1985,1904
1775,1973,1884
1893,1974,1850
2015,2005,1906
1931,1950,1850
1776,1972,1830
1860,1968,1875
1894,1941,1776
1939,1968,1769
1993,2015,1872
2187,2043,1973
2005,2017,1866
1697,1961,1839
1750,1973,1858
1956,2027,1939
2095,2027,1898
1967,1980,1853
1934,2011,1840
1707,1927,1813
1824,1919,1809
1899,1971,1854
2161,2065,1961
2258,2031,1856
2021,2010,1872
1784,1985,1874
1821,2004,1872
1863,1926,1825
1712,1917,1837
1899,1947,1847
1984,2018,1879
2044,2009,1907
1958,1974,1855
1921,1920,1762
1789,1931,1767
1899,2007,2020
1969,2014,1932
2089,2015,1872
1915,1973,1803
1921,1968,1823
1861,1978,1878
1805,1966,1861
1954,2000,1870
1968,1971,1902
1877,1947,1833
1805,1934,1753
1841,1984,1889
2016,2007,1941
2021,1997,1927
1984,2006,1865
1872,1923,1680
1904,1975,1821
1984,1971,1925
1870,1927,1843
1886,1968,1897
2005,2017,1887
1837,1964,1825
1831,1966,1813
2063,2011,1869
1936,1982,1872
1840,1997,1888
1915,1979,1830
1961,2016,1879
1891,1975,1879
1993,2005,1851
2017,2002,1808
1981,2014,1904
1786,1942,1903
1743,1869,1785
1842,1889,1744
2003,1975,1855
1789,1968,1888
1914,2001,1953
2098,1997,1892
1861,1930,1818
1793,1973,1827
1794,1961,1788
1945,1969,1812
2046,1989,1919
1991,1998,2039
1830,1941,1842
1816,1968,1760
1876,1968,1775
1920,1971,1878
1883,1951,1936
1982,1978,1885
2033,2009,1866
1974,1935,1795
1770,1927,1794
1797,1935,1776
1729,1847,1733
1789,1904,1801
1915,1931,1968
