1901,1776,1807
1936,1790,1808
1872,1845,1926
1839,1830,1935
1887,1775,1808
1932,1786,1808
1879,1833,1926
1861,1829,1939
1907,1780,1823
1936,1791,1808
1873,1840,1926
1847,1833,1938
1904,1779,1818
1950,1801,1820
1889,1847,1933
1867,1840,1937
1924,1786,1827
1950,1794,1813
1895,1840,1934
1870,1838,1936
1927,1789,1833
1957,1797,1819
1895,1846,1931
1872,1846,1938
1938,1793,1836
1968,1798,1830
1901,1856,1938
1868,1851,1943
1936,1807,1838
1965,1817,1834
1898,1870,1938
1882,1858,1957
1946,1808,1841
1970,1818,1835
1904,1862,1933
1863,1850,1927
1936,1808,1825
1983,1818,1840
1925,1879,1962
1893,1871,1963
1950,1814,1845
1983,1831,1838
1918,1882,1953
1887,1882,1958
1939,1827,1835
1978,1834,1839
1919,1883,1950
1885,1879,1962
1947,1829,1838
1973,1840,1834
1913,1887,1945
1885,1881,1963
1953,1829,1850
1968,1843,1840
1911,1891,1942
1898,1879,1955
1969,1829,1856
2003,1847,1857
1926,1904,1962
1887,1892,1955
1957,1838,1840
1984,1840,1829
1904,1892,1942
1881,1891,1963
1951,1835,1847
1984,1845,1840
1922,1900,1950
1904,1898,1963
1963,1850,1842
1997,1856,1840
1933,1861,1946
1904,1881,1949
1968,1837,1838
1994,1841,1826
1919,1888,1930
1899,1883,1942
1966,1808,1837
2001,1900,1843
1930,1936,1943
1898,1899,1949
1961,1858,1838
1999,1902,1836
1927,1941,1950
1904,1942,1949
1968,1879,1842
1999,1847,1839
1925,1898,1951
1894,1949,1955
1959,1857,1840
1987,1863,1840
1931,1919,1953
1904,1909,1957
1961,1854,1841
1993,1872,1843
1926,1933,1955
1892,1901,1954
1946,1867,1829
1981,1889,1823
1920,1931,1942
1897,1925,1958
1954,1865,1833
1977,1863,1835
1916,1904,1943
1875,1904,1941
1940,1830,1831
1981,1872,1837
1917,1919,1943
1890,1906,1947
1949,1854,1831
1969,1839,1835
1903,1909,1946
1893,1910,1950
1942,1855,1827
1967,1869,1831
1905,1917,1948
1879,1903,1933
1936,1827,1818
1970,1865,1823
1919,1936,1936
1883,1902,1936
1936,1855,1819
1965,1866,1809
1909,1928,1936
1891,1966,1942
1951,1847,1826
1969,1841,1825
1908,1936,1946
1887,1918,1939
1935,1890,1808
1979,1893,1815
1920,1931,1939
1889,1882,1941
1942,1856,1820
1974,1885,1822
1918,1931,1952
1888,1923,1953
1942,1825,1825
1969,1873,1823
1908,1895,1930
1874,1907,1934
1936,1904,1819
1968,1867,1829
1904,1915,1939
1862,1921,1933
1918,1846,1805
1936,1840,1792
1874,1905,1918
1840,1887,1918
1895,1833,1791
1926,1838,1789
1859,1889,1901
1834,1870,1898
1883,1811,1792
1914,1838,1878
1845,1801,2192
1806,1995,2032
1846,1769,1731
1872,1815,1694
1807,1797,1829
1774,1845,1837
1831,1746,1717
1867,1763,1721
1818,1851,1855
1820,1863,1879
1895,1819,1776
1937,1855,1867
1901,1948,2113
1863,1906,1968
1925,1849,1823
1943,1870,1796
1893,1921,1811
1860,1911,1828
1923,1860,1829
1941,1866,1830
1886,1922,1830
1861,1914,1825
1920,1795,1824
1943,1871,1827
1882,1823,1827
1851,1947,1825
1905,1831,1829
1940,1786,1827
1885,1930,1832
1859,1887,1826
1923,1855,1827
1941,1857,1829
1872,1881,1830
1854,1915,1827
1924,1866,1825
1951,1847,1829
1886,1968,1829
1849,1888,1830
1906,1813,1829
1926,1843,1828
1872,1904,1827
1857,1865,1829
1919,1882,1830
1942,1761,1829
1874,1907,1831
1849,1888,1808
1911,1859,1744
1937,1874,1774
1875,1897,1890
1857,1888,1885
1911,1847,1757
1935,1872,1766
1874,1882,1883
1854,1900,1875
1920,1853,1764
1936,1863,1763
1872,1926,1884
1846,1904,1885
1913,1847,1763
1936,1871,1776
1872,1903,1881
1841,1911,1872
1911,1837,1761
1939,1853,1773
1871,1913,1878
1840,1872,1872
1903,1856,1749
1910,1842,1758
1855,1870,1866
1826,1809,1859
1890,1805,1744
1907,1905,1742
1833,1903,1854
1798,1903,2687
1847,1782,2323
1855,1778,2941
1138,1245,4095
848,976,2767
1168,1090,1733
1451,1296,1570
1503,1474,1935
1426,1430,4095
0,0,4095
0,0,4095
0,0,4095
0,0,4095
0,0,3816
16,0,2268
670,573,1606
1082,945,1639
1250,1070,1806
1298,1166,1863
1298,1298,1852
1353,1361,1831
1498,1395,1826
1601,1495,1829
1595,1619,1833
1616,1665,1830
1712,1654,1825
1772,1706,1826
1743,1792,1831
1744,1813,1829
1834,1796,1827
1882,1840,1828
1848,1931,1829
1849,1945,1826
1929,1911,1825
1976,1953,1833
1929,2029,1831
1922,2036,1827
1999,1999,1824
2038,2032,1831
1991,2109,1831
1984,2110,1827
2062,2079,1825
2090,2101,1828
2032,2160,1829
2013,2154,1750
2091,2112,1631
2126,2135,1642
2057,2193,1763
2032,2178,1740
2099,2128,1614
2131,2146,1627
2075,2203,1741
2055,2190,1726
2113,2144,1600
2131,2160,1607
2067,2211,1715
2036,2195,1696
2113,2141,1576
2135,2161,1586
2075,2208,1702
2058,2230,1686
2118,2141,1562
2140,2146,1569
2065,2200,1675
2045,2190,1674
2135,2139,1562
2153,2155,1535
2059,2192,1657
2030,2190,1671
2090,2125,1534
2112,2139,1535
2047,2178,1654
2037,2170,1648
2097,2118,1521
2112,2123,1527
2046,2160,1638
2012,2141,1642
2077,2115,1521
2103,2119,1531
2022,2146,1642
1995,2131,1619
2063,2071,1501
2070,2082,1511
1996,2115,1616
1985,2107,1619
2061,2059,1505
2080,2064,1514
2000,2109,1635
1972,2087,1623
2029,2022,1491
2044,2031,1503
1984,2085,1665
1949,2059,2817
1973,1963,2110
1954,1919,1535
1904,1968,1393
1872,1932,1687
1920,1857,1763
1977,1904,1834
1954,1990,1844
1961,2010,1828
2030,1970,1822
2063,1997,1825
2002,2062,1829
1985,2062,1825
2039,2003,1827
2068,2010,1831
1999,2064,1831
1973,2034,1827
2022,1975,1828
2047,1989,1838
1986,2055,1831
1962,2026,1830
2021,1968,1824
2037,1985,1830
1997,2055,1833
1965,2022,1825
2003,1955,1831
2025,1951,1834
1947,1980,1828
1901,1939,1826
1933,1877,1827
1948,1889,1826
1894,1935,1834
1887,1906,1828
1937,1858,1818
1968,1897,2099
1909,1959,2841
1877,1906,1971
1920,1834,1629
1965,1873,1712
1935,1954,1823
1923,1957,1852
1968,1899,1829
2002,1922,1829
1982,2003,1824
1973,2000,1823
2041,1954,1826
2083,1981,1830
2037,2045,1831
2016,2047,1826
2062,1974,2032
2082,1985,1719
2038,2057,1730
2023,2041,1808
2070,1963,1840
2112,2011,1840
2059,2084,1831
2017,2034,1826
2065,1970,1826
2098,2000,1834
2055,2054,1827
2023,2021,1829
2061,1966,1826
2078,1984,1826
2030,2041,1829
2015,2029,1833
2061,1960,1835
2077,1968,1821
2021,2022,1840
1999,2008,1825
2046,1953,1749
2077,1970,1763
2027,2032,1935
1998,2006,1901
2032,1939,1719
2064,1967,1725
2017,2019,1853
1983,2000,1882
2023,1938,1719
2057,1947,1761
2023,2007,1871
1986,1979,1854
2018,1915,1746
2039,1947,1733
1997,1995,1883
1959,1974,1829
2005,1904,1685
2037,1929,1690
1982,1983,1845
1939,1953,1821
1985,1895,1680
2015,1916,1712
1996,1982,1877
1962,1957,1792
1985,1885,2085
2011,1918,2071
1984,1981,2255
1965,1954,1940
1997,1887,1625
2019,1913,1651
1982,1968,1822
1965,1935,1822
2000,1895,1682
2017,1929,1723
1989,1990,1856
1968,1954,1818
2015,1901,1658
2064,1920,1701
1968,1968,1839
1918,1957,1809
1987,1901,1731
2031,1923,1721
1974,1970,1842
1952,1949,1845
2003,1904,1693
2042,1919,1721
1999,1969,1842
1968,1941,1853
1994,1881,1662
2023,1918,1723
1954,1961,1824
1950,1931,1859
1999,1872,1693
2029,1916,1722
1977,1968,1872
1938,1932,1807
1983,1865,1671
2002,1895,1750
1959,1961,1879
1936,1930,1840
1983,1859,1713
2010,1889,1749
1968,1941,1867
1937,1918,1851
1990,1851,1695
2010,1871,1712
1963,1934,1821
1951,1904,1805
1995,1845,1700
2017,1862,1744
1940,1915,1854
1919,1895,1793
1952,1838,1680
2002,1871,1721
2007,1888,1808
2064,1888,1823
2031,1844,1727
1885,1840,1792
1853,1875,1869
1903,1873,1859
2000,1823,1717
2000,1840,1731
1909,1891,1859
1857,1859,1840
1915,1805,1741
1975,1839,1742
1935,1885,1839
1860,1856,1783
1918,1790,1696
2031,1826,1782
1968,1891,1922
1861,1855,1850
1872,1779,1691
1933,1813,1745
1906,1887,1839
1881,1846,1834
1917,1779,1710
1955,1815,1763
1933,1885,1906
1898,1858,1878
1914,1788,1685
1955,1805,1771
1938,1867,1868
1890,1845,1868
1917,1793,1739
1939,1817,1763
1925,1888,1881
1887,1850,1879
1940,1787,1793
1984,1821,1765
1918,1878,1882
1903,1840,1825
1940,1776,1723
1941,1813,1787
1880,1858,1942
1858,1832,1872
1934,1770,1705
1963,1798,1761
1909,1860,1892
1879,1827,1881
1936,1771,1715
1959,1808,1771
1933,1861,1903
1959,1824,1871
1890,1770,1696
1879,1799,1778
1861,1852,1935
1849,1831,1877
1908,1774,1739
1947,1791,1763
1895,1841,1872
1840,1820,1887
1878,1751,1753
1905,1786,1763
1877,1856,1904
1855,1830,1872
1904,1773,1744
1936,1803,1783
1885,1870,1914
1869,1838,1873
1904,1775,1728
1936,1805,1767
1886,1855,1927
1872,1831,1916
1920,1783,1744
1945,1813,1863
1904,1872,1929
1883,1845,1901
1913,1775,1723
1926,1795,1792
1871,1846,1968
1851,1823,1791
1909,1762,1723
1946,1808,1785
1883,1866,1920
1860,1840,1872
1905,1779,1765
1939,1808,1786
1890,1872,1914
1857,1850,1872
1903,1785,1742
1934,1815,1775
1885,1887,1914
1856,1849,1883
1919,1786,1744
1946,1825,1786
1872,1865,1888
1840,1833,1844
1910,1776,1745
1933,1814,1795
1863,1871,1905
1843,1827,1839
1883,1777,1744
1874,1783,1766
1809,1840,1872
1808,1818,1842
1878,1760,1728
1905,1798,1762
1845,1869,1882
1823,1831,1844
1888,1776,1732
1902,1808,1776
1844,1878,1902
1821,1847,1856
1869,1777,1731
1904,1803,1773
1865,1872,1901
1850,1857,1873
1902,1792,1739
1893,1828,1781
1843,1893,1904
1791,1863,1856
1850,1802,1730
1905,1843,1793
1833,1899,1919
1846,1859,1878
1887,1795,1747
1905,1840,1799
1843,1897,1922
1789,1872,1877
1842,1801,1744
1900,1839,1786
1861,1905,1919
1850,1861,1863
1874,1794,1739
1915,1825,1806
1879,1887,1936
1792,1859,1873
1874,1780,1744
1891,1822,1793
1844,1887,1919
1840,1862,1885
1887,1805,1754
1877,1829,1802
1817,1897,1935
1799,1857,1893
1841,1779,1730
1869,1819,1762
1893,1883,1915
1806,1855,1895
1845,1795,1746
1857,1829,1759
1868,1881,1931
1809,1846,1872
1834,1777,1728
1872,1808,1782
1826,1879,1920
1791,1840,1845
1818,1779,1712
1819,1824,1776
1822,1870,1904
1776,1835,1853
1798,1783,1733
1851,1834,1808
1834,1894,1917
1775,1859,1863
1818,1798,1723
1858,1830,1776
1823,1878,1925
1787,1849,1881
1837,1789,1744
1831,1827,1784
1798,1877,1921
1840,1842,1875
1807,1792,1738
1904,1837,1785
1847,1893,1905
1822,1858,1872
1861,1794,1744
1835,1834,1785
1891,1895,1904
1840,1851,1870
1842,1783,1749
1840,1824,1818
1795,1876,1922
1783,1849,1869
1813,1786,1744
1855,1824,1807
1848,1869,1935
1765,1814,1855
1807,1760,1727
1851,1805,1793
1822,1869,1929
1791,1824,1872
1787,1767,1726
1858,1808,1791
1827,1872,1936
1783,1831,1879
1810,1764,1730
1859,1815,1787
1846,1873,1919
1808,1836,1872
1815,1777,1744
1849,1824,1807
1871,1887,1941
1814,1849,1883
1840,1793,1758
1913,1825,1839
1776,1890,1959
1775,1868,1879
1853,1811,1750
1928,1861,1837
1805,1924,1991
1815,1885,1923
1838,1814,1779
1946,1855,1841
1871,1920,1982
1838,1888,1932
1899,1840,1824
1915,1879,1869
1871,1925,1963
1856,1894,1925
1921,1841,1811
1933,1884,1865
1873,1945,1990
1856,1918,1957
1898,1845,2200
1887,1867,2006
1830,1920,1934
1808,1885,1844
1917,1821,1750
1926,1854,1809
1853,1911,1957
1815,1872,1909
1855,1809,1787
1804,1850,1825
1799,1921,1951
1855,1882,1899
1904,1810,1780
1855,1843,1826
1789,1913,1936
1776,1881,1881
1787,1795,1739
1904,1824,1776
1790,1891,1904
1786,1851,1866
1824,1779,1732
1862,1823,1773
1823,1883,1883
1823,1840,1835
1809,1779,1712
1834,1814,1779
1806,1894,1907
1777,1851,1841
1840,1795,1729
1841,1855,1781
1808,1919,1925
1796,1881,1888
1858,1814,1773
1910,1878,1811
1852,1943,1949
1814,1915,1914
1887,1855,1785
1893,1904,1854
1872,1957,1961
1783,1910,1909
1891,1872,1790
1904,1906,1835
1850,1963,1965
1827,1926,1949
1872,1862,1814
1901,1889,1853
1871,1949,1955
1816,1901,1886
1872,1843,1776
1906,1889,1840
1872,1938,1950
1834,1882,1890
1829,1826,1756
1870,1869,1829
1840,1931,1958
1813,1876,1891
1872,1810,1744
1887,1853,1806
1826,1915,1934
1774,1874,1863
1827,1830,1747
1862,1858,1812
1841,1903,1943
1808,1874,1882
1841,1819,1735
1858,1855,1796
1811,1913,1935
1821,1862,1893
1847,1820,1767
1853,1858,1815
1835,1926,1947
1851,1875,1871
1864,1835,1779
1874,1865,1813
1821,1921,1937
1794,1894,1904
1872,1834,1776
1899,1878,1809
1844,1923,1942
1839,1873,1869
1855,1825,1792
1889,1863,1850
1865,1936,1970
1847,1920,1894
1889,1840,1766
1933,1874,1829
1879,1936,1963
1851,1907,1926
1965,1843,1807
1905,1914,1872
1842,1968,1968
1859,1915,1907
1950,1861,1791
1958,1903,1840
1870,1948,2001
1813,1903,1949
1889,1837,1775
2016,1861,1792
1951,1933,1962
1792,1901,1947
1807,1841,1808
1938,1882,1824
1904,1943,1966
1853,1894,1894
1884,1827,1749
1921,1853,1831
1856,1923,1959
1799,1872,1888
1829,1794,1748
1974,1864,1810
1870,1935,1979
1780,1882,1904
1879,1821,1758
2000,1863,1800
1962,1926,1938
1782,1892,1933
1795,1840,1806
1844,1872,1838
1840,1915,1921
1899,1899,1907
1961,1831,1788
2017,1881,1854
1936,1946,1956
1806,1911,1936
1771,1839,1798
1870,1858,1812
1903,1920,1946
1891,1911,1914
1858,1837,1797
1846,1845,1778
1879,1962,2035
1886,1913,1968
1874,1814,1741
2047,1891,1818
2001,1957,1943
1723,1876,1917
1775,1819,1808
1868,1872,1844
1870,1957,1974
1889,1915,1966
1893,1830,1763
1979,1867,1797
1919,1931,1982
1863,1922,2000
1840,1838,1843
1847,1889,1841
1840,1939,1963
1888,1910,1905
1904,1821,1749
1872,1862,1820
1920,1951,2000
1840,1900,1956
1872,1847,1827
1933,1904,1894
1844,1957,1929
1885,1890,1807
1985,1837,1733
1934,1870,1884
1807,1924,2001
1802,1905,1951
1855,1857,1821
1924,1883,1859
1904,1949,1981
1882,1892,1919
1888,1808,1755
1872,1872,1862
1861,1942,1968
1889,1840,1787
1905,1837,1809
1875,1892,1950
1840,1915,2020
1853,1876,1920
1914,1827,1747
1920,1863,1791
1842,1910,1915
1886,1899,1918
1902,1831,1828
1877,1865,1890
1868,1925,1979
1921,1899,1894
1902,1833,1782
1860,1840,1833
1863,1933,1968
1830,1891,1899
1899,1831,1825
1891,1840,1827
1918,1905,1927
1936,1877,1905
1851,1821,1858
1812,1867,1892
1824,1924,1973
1920,1840,1875
1936,1812,1758
1875,1903,1863
1813,1920,2011
1792,1842,1898
1878,1793,1792
1942,1872,1860
1873,1940,1963
1849,1849,1884
2034,1804,1723
2016,1844,1772
1776,1882,1938
1807,1856,1967
1872,1799,1822
1937,1840,1821
1821,1869,1920
1805,1881,1867
1895,1840,1739
1915,1831,1849
1845,1872,1972
1847,1827,1881
1881,1837,1781
1946,1794,1807
1900,1875,1932
1840,1843,1910
1901,1815,1663
1878,1787,1776
1808,1878,2031
1783,1886,1951
1856,1829,1783
1883,1847,1845
1840,1852,1913
1883,1862,1877
1895,1794,1778
1897,1775,1825
1890,1853,1904
1817,1808,1829
1872,1782,1677
1915,1815,1855
1834,1874,2007
1786,1825,1842
1943,1733,1735
1898,1805,1847
1786,1877,1982
1819,1889,1873
1918,1803,1723
1891,1770,1763
1901,1898,1971
1895,1831,1874
1842,1763,1770
1844,1824,1813
1839,1874,1921
1839,1845,1869
1919,1840,1809
1904,1851,1837
1883,1872,1898
1829,1812,1867
1862,1723,1775
1904,1809,1840
1861,1887,1951
1809,1878,1837
1865,1774,1767
1903,1808,1836
1936,1888,1927
1857,1850,1877
1814,1763,1754
1873,1859,1831
1851,1834,1875
1937,1836,1828
1953,1776,1767
1866,1840,1884
1763,1862,1947
1799,1813,1858
1888,1791,1723
1958,1887,1835
1968,1894,1906
1812,1872,1850
1776,1791,1772
1839,1844,1823
1861,1905,1962
1846,1846,1890
1860,1762,1772
1887,1772,1753
1953,1855,1904
1846,1866,1858
1875,1834,1759
1898,1802,1826
1858,1835,1943
1821,1865,1841
1938,1844,1739
1938,1846,1851
1808,1904,1967
1774,1853,1857
1851,1808,1776
1904,1856,1850
1855,1879,1951
1840,1873,1863
1945,1814,1719
1923,1881,1813
1817,1923,1933
1806,1862,1870
1915,1805,1729
1948,1882,1789
1829,1936,1895
1777,1879,1847
1893,1827,1763
1905,1839,1813
1798,1803,1954
1795,1992,1872
1879,1843,1731
1962,1863,1781
1831,1910,1936
1778,1902,1863
1866,1825,1760
1900,1883,1840
1843,1911,1929
1894,1862,1853
1898,1819,1705
1951,1840,1805
1878,1904,1904
1767,1907,1906
1818,1840,1750
1857,1872,1821
1865,1904,1925
1875,1904,1876
1893,1872,1746
1917,1895,1814
1846,1900,1946
1853,1845,1877
1883,1846,1771
1907,1939,1813
1879,1903,1920
1829,1930,1842
1873,1858,1776
1905,1861,1832
1872,1903,1912
1840,1907,1857
1875,1847,1748
1937,1872,1863
1861,1946,1932
1819,1912,1853
1901,1790,1713
1904,1841,1824
1856,1929,1910
1840,1883,1895
1839,1829,1789
1853,1886,1847
1872,1977,1951
1886,1890,1834
1921,1817,1706
1863,1877,1823
1808,1914,1937
1829,1892,1879
1889,1840,1744
1935,1895,1805
1947,1941,1934
1902,1881,1863
1889,1828,1774
1825,1873,1842
1799,1970,1959
1871,1873,1841
1913,1804,1729
1904,1879,1815
1834,1936,1940
1858,1904,1836
1927,1851,1774
1877,1858,1823
1811,1908,1904
1827,1850,1841
1931,1820,1752
1968,1863,1794
1874,2019,1958
1867,1904,1878
1917,1839,1742
1900,1858,1840
1825,1935,1923
1790,1926,1869
1871,1863,1747
1916,1866,1795
1873,1911,1890
1805,1906,1810
1871,1855,1773
1968,1900,1838
1931,1937,1936
1839,1902,1888
1853,1838,1775
1862,1885,1821
1843,1915,1935
1857,1882,1890
1969,1856,1770
1931,1903,1815
1826,1952,1931
1791,1843,1819
1889,1845,1747
1931,1917,1863
1902,1943,1949
1855,1893,1863
1891,1827,1735
1914,1891,1809
1856,1936,1890
1856,1885,1840
1874,1859,1799
1904,1903,1862
1861,1939,1883
1869,1891,1843
1923,1823,1739
1904,1863,1792
1815,1939,1921
1802,1893,1874
1877,1855,1781
1936,1891,1837
1915,1919,1927
1884,1883,1859
1887,1840,1731
1894,1890,1760
1886,1909,1886
1823,1879,1867
1856,1843,1805
1895,1892,1844
1871,1936,1945
1851,1903,1840
1878,1850,1747
1907,1887,1842
1887,1950,1975
1901,1895,1872
1964,1829,1710
1936,1872,1751
1837,1936,1931
1808,1892,1927
1917,1857,1776
1935,1877,1787
1855,1923,1936
1855,1910,1916
1872,1866,1749
1929,1909,1791
1914,1922,1919
1888,1871,1872
1902,1844,1730
1864,1881,1839
1841,1919,1911
1920,1876,1842
1907,1838,1771
1845,1907,1854
1834,1959,1945
1860,1904,1829
1927,1842,1776
1926,1890,1861
1873,1924,1939
1842,1872,1857
1863,1839,1718
1898,1891,1827
1843,1941,1975
1831,1904,1875
1922,1841,1714
1999,1890,1818
1870,1926,1931
1826,1879,1806
1873,1840,1723
1861,1881,1839
1815,1925,1969
1840,1875,1872
1909,1812,1738
1957,1879,1829
1940,1920,1907
1885,1893,1854
1840,1848,1763
1840,1888,1840
1823,1915,1926
1840,1879,1857
1898,1838,1739
1963,1888,1823
1907,1927,1934
1871,1882,1873
1843,1843,1759
1893,1894,1827
1872,1922,1937
1843,1869,1838
1882,1842,1745
1917,1891,1840
1891,1937,1943
1877,1886,1880
1921,1831,1744
1986,1870,1792
1851,1950,1942
1799,1886,1847
1866,1833,1757
1898,1887,1827
1865,1924,1965
1829,1875,1855
1905,1834,1761
1897,1886,1853
1868,1937,1951
1878,1889,1857
1918,1835,1747
1890,1863,1824
1863,1902,1907
1806,1875,1854
1872,1854,1758
1911,1898,1813
1890,1895,1907
1922,1872,1855
1904,1847,1737
1872,1875,1871
1837,1949,1950
1939,1901,1783
1931,1833,1755
1835,1857,1897
1847,1954,1978
1882,1889,1840
1897,1853,1739
1878,1899,1851
1845,1945,1961
1867,1891,1871
1936,1843,1712
1923,1886,1870
1885,1935,1972
1833,1850,1869
1895,1811,1765
1968,1906,1839
1870,1931,1902
1839,1899,1870
1890,1840,1758
1919,1858,1790
1888,1927,1938
1855,1891,1887
1883,1854,1762
1879,1891,1835
1856,1933,1936
1862,1863,1871
1968,1836,1732
1926,1899,1808
1829,1936,1922
1923,1876,1873
1946,1815,1725
1853,1857,1872
1830,1933,1917
1856,1888,1802
1895,1823,1770
1901,1877,1850
1856,1918,1920
1872,1873,1871
1927,1815,1765
1919,1872,1858
1906,1906,1986
1835,1869,1852
1904,1826,1782
1922,1872,1831
1833,1909,1898
1823,1857,1856
1911,1825,1770
1919,1882,1844
1905,1904,1909
1894,1888,1844
1891,1829,1754
1887,1872,1866
1846,1918,1949
1854,1861,1830
1909,1809,1774
1893,1871,1859
1857,1891,1936
1863,1834,1866
1884,1776,1747
1941,1808,1813
1853,1833,1949
1808,1790,1863
1849,1735,1763
1936,1805,1840
1930,1839,1936
1837,1792,1814
1840,1719,1767
1879,1760,1840
1861,1803,1874
1855,1754,1819
1904,1709,1691
1886,1763,1867
1854,1792,1930
1881,1738,1845
1884,1685,1713
1902,1751,1827
1851,1776,1933
1827,1719,1814
1909,1670,1698
1878,1731,1831
1791,1762,1977
1795,1701,1865
1904,1648,1749
1921,1751,1814
1857,1786,1936
1796,1709,1831
1843,1658,1747
1865,1714,1817
1872,1776,1885
1887,1712,1826
1875,1660,1712
1840,1702,1827
1801,1758,1895
1834,1699,1814
1883,1648,1749
1885,1717,1794
1857,1746,1853
1817,1712,1820
1873,1659,1744
1887,1703,1814
1872,1755,1899
1811,1712,1843
1839,1664,1759
1890,1726,1808
1823,1776,1879
1807,1730,1846
1863,1666,1702
1904,1743,1817
1823,1763,1918
1808,1701,1830
1872,1651,1715
1888,1718,1753
1835,1774,1918
1807,1712,1762
1867,1648,1669
1882,1728,1811
1857,1776,1901
1813,1717,1850
1861,1666,1657
1821,1706,1788
1772,1759,2011
1839,1723,1870
1901,1680,1714
1860,1728,1808
1781,1757,1894
1776,1693,1732
1857,1651,1723
1850,1734,1787
1847,1769,1870
1871,1719,1761
1855,1667,1684
1835,1715,1795
1795,1755,1857
1808,1717,1798
1872,1663,1725
1849,1714,1798
1805,1775,1887
1799,1703,1773
1841,1664,1693
1827,1715,1785
1778,1767,1904
1778,1712,1808
1851,1674,1678
1895,1712,1713
1857,1733,1750
1817,1711,1808
1799,1665,1681
1795,1729,1811
1781,1766,1856
1803,1695,1777
1839,1648,1679
1836,1682,1760
1786,1744,1830
1790,1700,1747
1858,1669,1671
1830,1719,1746
1773,1741,1808
1760,1710,1734
1814,1654,1648
1863,1703,1747
1814,1758,1829
1760,1683,1782
1795,1631,1666
1833,1731,1737
1791,1758,1823
1753,1675,1714
1776,1637,1647
1789,1712,1733
1808,1745,1834
1791,1690,1694
1794,1653,1651
1799,1687,1798
1743,1718,1901
1763,1690,1720
1834,1652,1622
1808,1691,1732
1749,1729,1789
1783,1695,1735
1804,1647,1622
1775,1680,1716
1727,1733,1854
1748,1693,1725
1794,1617,1585
1799,1677,1710
1763,1733,1821
1766,1681,1702
1855,1617,1571
1837,1678,1628
1797,1740,1795
1783,1669,1712
1765,1617,1589
1729,1662,1699
1745,1712,1789
1791,1691,1712
1821,1638,1621
1773,1655,1715
1716,1701,1793
1734,1637,1680
1785,1607,1584
1807,1667,1703
1765,1712,1749
1758,1642,1666
1819,1587,1570
1769,1645,1679
1718,1695,1777
1749,1634,1682
1840,1581,1535
1798,1647,1664
1767,1705,1776
1797,1635,1646
1793,1595,1554
1840,1657,1654
1760,1693,1775
1708,1638,1679
1744,1575,1535
1802,1648,1648
1771,1691,1764
1748,1631,1659
1873,1578,1483
1865,1622,1643
1686,1691,1783
1682,1629,1673
1824,1567,1555
1838,1641,1629
1793,1691,1731
1810,1623,1653
1826,1578,1535
1786,1621,1646
1781,1641,1699
1735,1613,1619
1831,1584,1566
1815,1637,1647
1713,1664,1738
1781,1600,1638
1827,1562,1535
1781,1600,1641
1750,1645,1703
1792,1606,1638
1826,1558,1535
1815,1615,1648
1778,1642,1712
1811,1583,1595
1874,1513,1531
1798,1600,1649
1771,1675,1744
1769,1579,1628
1872,1532,1505
1879,1585,1556
1780,1614,1705
1802,1570,1659
1853,1534,1509
1870,1593,1598
1781,1611,1695
1741,1582,1634
1863,1522,1535
1850,1598,1625
1822,1618,1698
1794,1535,1625
1851,1511,1529
1840,1580,1633
1792,1635,1747
1791,1582,1623
1845,1523,1502
1858,1575,1623
1821,1616,1728
1829,1561,1601
1872,1506,1473
1863,1572,1621
1793,1622,1739
1809,1535,1597
1906,1521,1490
1914,1593,1640
1867,1619,1773
1766,1535,1616
1869,1481,1475
1914,1584,1597
1856,1611,1731
1808,1535,1631
1892,1502,1520
1866,1565,1601
1811,1634,1723
1859,1578,1648
1872,1514,1535
1845,1578,1630
1906,1589,1723
1872,1535,1617
1882,1504,1532
1845,1568,1633
1889,1603,1723
1877,1535,1600
1909,1506,1503
1898,1581,1648
1865,1598,1741
1904,1535,1625
1927,1535,1533
1894,1579,1609
1825,1585,1723
1817,1535,1623
1962,1511,1533
1964,1570,1618
1872,1623,1736
1849,1535,1627
1903,1509,1510
1920,1554,1595
1877,1607,1709
1863,1535,1652
1936,1514,1591
1938,1565,1639
1887,1569,1697
1911,1535,1616
1899,1515,1521
1929,1577,1643
1888,1626,1741
1879,1561,1623
1931,1502,1535
2011,1579,1648
1873,1623,1718
1904,1565,1623
1943,1519,1553
1927,1584,1663
1897,1595,1744
1969,1535,1596
2011,1531,1513
1920,1612,1685
1855,1628,1776
1883,1535,1641
1968,1515,1569
1979,1593,1657
1930,1623,1758
1919,1557,1632
1943,1523,1532
2010,1605,1648
1952,1642,1746
1933,1584,1650
1968,1529,1578
2031,1595,1695
1953,1637,1762
1872,1559,1637
1951,1505,1535
2009,1606,1651
1937,1645,1737
1994,1588,1648
1968,1531,1575
1967,1610,1681
1968,1648,1776
1971,1584,1648
2047,1535,1554
1953,1616,1671
1865,1648,1786
1934,1589,1706
1982,1535,1600
2007,1615,1673
2009,1648,1731
1946,1605,1658
1988,1579,1590
1981,1632,1695
1971,1661,1754
1933,1598,1675
1977,1559,1606
1969,1618,1680
1924,1657,1725
2001,1596,1655
2096,1535,1569
1950,1619,1664
1929,1675,1811
1884,1609,1713
1967,1561,1595
1959,1600,1642
1945,1639,1729
1915,1584,1675
1975,1535,1614
1903,1616,1636
1890,1647,1728
1911,1570,1676
1967,1535,1594
1904,1600,1651
1872,1628,1738
1936,1556,1643
2016,1499,1522
1895,1584,1645
1863,1610,1733
1858,1535,1618
1889,1510,1535
1906,1575,1629
1878,1597,1682
1881,1506,1610
1929,1471,1499
1963,1535,1601
1872,1552,1617
1826,1503,1581
1841,1457,1491
1827,1535,1594
1810,1559,1694
1790,1456,1557
1840,1450,1488
1859,1531,1591
1857,1557,1661
1799,1477,1515
1815,1445,1451
1818,1495,1591
1765,1509,1648
1857,1460,1535
1808,1419,1438
1798,1488,1535
1846,1486,1598
1787,1440,1535
1744,1427,1488
1726,1477,1535
1717,1518,1638
1728,1439,1558
1815,1415,1476
1787,1450,1535
1735,1493,1638
1808,1463,1535
1794,1420,1451
1726,1461,1535
1639,1484,1648
1707,1446,1567
1787,1405,1485
1739,1471,1558
1667,1517,1627
1676,1424,1535
1729,1375,1488
