1890,1808,1767
1889,1892,1872
1843,1921,1955
1871,1856,1845
1951,1838,1776
1910,1872,1874
1851,1904,1973
1847,1855,1867
1854,1808,1744
1857,1872,1857
1843,1891,1947
1890,1853,1862
1904,1810,1746
1904,1872,1870
1900,1902,1936
1931,1841,1781
1908,1839,1744
1872,1861,1894
1821,1905,1959
1815,1861,1879
1898,1835,1786
1939,1872,1854
1966,1895,1928
1872,1860,1847
1841,1830,1783
1837,1869,1859
1826,1883,1934
1853,1847,1840
1921,1833,1753
1985,1877,1829
1923,1895,1905
1862,1869,1866
1854,1839,1764
1840,1874,1874
1840,1901,1939
1871,1856,1859
1898,1840,1771
1875,1872,1857
1856,1904,1945
1872,1870,1872
1909,1838,1783
1875,1873,1856
1834,1902,1916
1854,1856,1840
1911,1827,1778
1910,1873,1865
1845,1900,1935
1841,1846,1843
1906,1821,1759
1887,1871,1847
1845,1900,1932
1851,1850,1853
1913,1829,1772
1905,1871,1850
1856,1888,1917
1854,1851,1849
1895,1831,1776
1883,1875,1857
1834,1894,1921
1846,1847,1833
1901,1819,1755
1891,1861,1855
1843,1889,1937
1856,1840,1843
1899,1813,1768
1886,1860,1854
1843,1889,1933
1855,1840,1847
1910,1812,1774
1898,1856,1861
1840,1877,1937
1847,1826,1849
1891,1798,1773
1886,1842,1861
1834,1856,1935
1840,1805,1836
1886,1782,1760
1876,1826,1851
1842,1850,1938
1851,1808,1846
1904,1783,1770
1884,1828,1844
1829,1854,1921
1845,1808,1840
1899,1776,1769
1894,1823,1853
1846,1846,1921
1850,1792,1840
1899,1776,1762
1887,1829,1855
1840,1859,1936
1846,1810,1843
1894,1784,1768
1879,1836,1852
1842,1861,1936
1841,1815,1852
1904,1793,1772
1898,1845,1859
1853,1872,1937
1861,1827,1847
1919,1798,1775
1910,1853,1859
1854,1872,1931
1859,1827,1840
1911,1783,1763
1904,1840,1858
1860,1890,1934
1870,1840,1839
1920,1808,1763
1917,1857,1851
1866,1886,1929
1872,1839,1878
1935,1814,1782
1925,1866,1859
1873,1889,1936
1882,1829,1840
1943,1818,1769
1950,1872,1849
1898,1913,1921
1904,1863,1821
1967,1823,1760
1965,1872,1874
1907,1911,1915
1920,1872,1834
1979,1834,1721
1971,1893,1854
1936,1927,1955
1955,1872,1834
2006,1837,1733
2002,1901,1872
1960,1934,1968
1967,1885,1839
2029,1859,1713
2031,1905,1842
1983,1936,1909
1990,1889,1829
2059,1858,1785
2045,1909,1863
1998,1933,1935
1999,1878,1835
2062,1858,1766
2064,1909,1856
2023,1936,1927
2029,1885,1840
2086,1857,1776
2090,1916,1845
2032,1939,1911
2043,1888,1830
2095,1871,1757
2098,1920,1888
2054,1947,1931
2057,1893,1830
2099,1868,1741
2090,1902,1830
2053,1939,1916
2071,1898,1841
2123,1871,1759
2117,1925,1851
2060,1949,1927
2071,1906,1846
2126,1889,1779
2128,1943,1871
2079,1968,1946
2077,1915,1856
2128,1884,1745
2128,1936,1869
2075,1961,1945
2071,1898,1837
2113,1858,1745
2091,1905,1777
2033,1936,1872
2026,1872,1841
2066,1836,1712
2054,1873,1793
1986,1891,1869
1984,1839,1824
2036,1811,1685
2036,1873,1829
1988,1895,1845
1998,1851,1779
2063,1827,1708
2061,1883,1819
2000,1910,1842
2011,1872,1808
2071,1854,1731
2068,1906,1831
2006,1930,1903
2016,1877,1822
2065,1851,1746
2042,1895,1855
1984,1913,1887
1985,1856,1783
2035,1826,1714
2020,1874,1824
1960,1899,1870
1959,1843,1775
2000,1801,1698
1984,1853,1776
1936,1876,1856
1936,1821,1757
1980,1786,1680
1965,1834,1721
1904,1853,1822
1906,1785,1728
1948,1766,1650
1929,1814,1738
1875,1840,1799
1878,1785,1707
1930,1761,1600
1919,1807,1825
1868,1830,1791
1856,1781,1797
1904,1750,1598
1904,1808,1660
1850,1834,1789
1850,1776,1918
1893,1746,1801
1886,1808,1735
1834,1831,1742
1839,1778,1677
1883,1746,1601
1872,1802,1681
1808,1825,1757
1808,1763,1670
1851,1739,1601
1840,1792,1675
1790,1815,1745
1795,1760,1587
1838,1729,1584
1827,1788,1652
1781,1822,1758
1802,1763,1614
1840,1734,1691
1811,1789,1717
1769,1808,1762
1769,1754,1680
1810,1728,1614
1792,1783,2035
1754,1815,2029
1763,1755,1662
1803,1734,1498
1791,1776,1616
1729,1811,1702
1745,1751,1648
1808,1743,1583
1799,1793,1703
1744,1822,1741
1746,1763,1651
1795,1735,1581
1782,1787,1673
1728,1818,1695
1735,1759,1636
1787,1729,1535
1757,1776,1651
1702,1805,1718
1712,1751,1638
1754,1712,1535
1730,1761,1639
1666,1779,1701
1662,1724,1598
1700,1684,1514
1679,1730,1639
1617,1746,1659
1603,1682,1561
1626,1646,1461
1600,1696,1553
1534,1715,1604
1531,1654,1526
1577,1626,1430
1572,1680,1501
1520,1722,1627
1523,1674,1561
1559,1642,1451
1559,1696,1522
1516,1737,1632
1527,1682,1535
1589,1665,1458
1582,1730,1587
1522,1765,1659
1526,1707,1562
1581,1684,1488
1565,1747,1573
1495,1776,1642
1499,1709,1571
1535,1674,1482
1520,1721,1577
1472,1744,1648
1482,1675,1535
1524,1634,1466
1502,1682,1557
1444,1715,1630
1457,1655,1535
1501,1629,1471
1488,1680,1563
1424,1710,1638
1435,1648,1535
1479,1615,1468
1466,1668,1535
1409,1712,1622
1426,1655,1535
1481,1627,1471
1475,1684,1562
1423,1727,1639
1425,1675,1535
1483,1646,1465
1471,1694,1535
1424,1734,1611
1459,1697,1553
1521,1679,1485
1495,1725,1557
1410,1739,1603
1399,1663,1489
1417,1611,1414
1328,1648,1489
1319,1653,1535
1290,1581,1438
1397,1568,1389
1431,1667,1521
1406,1733,1648
1429,1694,1585
1522,1680,1523
1488,1746,1619
1424,1786,1711
1504,1743,1639
1625,1727,1585
1616,1792,1685
1472,1824,1744
1519,1777,1664
1586,1758,1635
1615,1829,1733
1598,1872,1815
1631,1818,1733
1678,1790,1674
1657,1840,1755
1616,1871,1827
1648,1815,1753
1683,1774,1680
1641,1802,1742
1564,1797,1777
1535,1711,1661
1599,1711,1627
1653,1840,1806
1719,1921,1947
1759,1906,1900
1814,1903,1846
1816,1979,1951
1799,2031,2043
1830,1984,1973
1921,1968,1914
1887,2032,2011
1851,2074,2101
1859,2019,2005
1849,1986,1936
1886,2041,2008
1810,2066,2067
1836,2005,1987
1872,1978,1933
1869,2023,2014
1823,2059,2082
1840,2000,1983
1875,1973,1909
1903,2031,1998
1829,2063,2078
1797,2004,1986
1931,1989,1922
1915,2047,2006
1805,2089,2078
1860,2032,1984
1891,2022,1922
1871,2091,2027
1863,2121,2100
1863,2066,2000
1914,2031,1931
1923,2103,2031
1927,2148,2119
1921,2103,2045
1918,2082,1984
1983,2135,2077
1921,2176,2149
1964,2130,2059
2007,2111,1987
2039,2181,2099
1957,2223,2197
1995,2161,2112
2035,2141,2043
2077,2206,2140
2055,2247,2225
2074,2198,2148
2099,2177,2086
2106,2240,2171
2046,2275,2249
2062,2231,2168
2122,2209,2107
2114,2260,2192
2077,2301,2270
2098,2256,2192
2165,2241,2135
2125,2302,2228
2084,2343,2299
2170,2311,2209
2219,2305,2151
2167,2385,2245
2259,2453,2336
2171,2417,2259
2225,2416,2202
2227,2481,2288
2176,2529,2352
2201,2475,2261
2211,2457,2199
2269,2519,2289
2206,2551,2367
2214,2500,2271
2269,2467,2193
2251,2533,2277
2194,2559,2347
2203,2494,2252
2256,2459,2181
2246,2514,2271
2186,2534,2326
2181,2459,2224
2238,2416,2160
2196,2467,2234
2160,2487,2288
2176,2414,2195
2267,2371,2119
2194,2417,2192
2154,2431,2245
2158,2351,2147
2197,2306,2070
2141,2349,2141
2077,2365,2183
2081,2291,2092
2160,2250,2012
2107,2304,2096
2037,2321,2160
2096,2247,2067
2032,2198,1982
2035,2241,2043
1983,2258,2096
2006,2192,2000
2015,2156,1922
2087,2196,1996
2008,2211,2058
1985,2145,1957
2015,2107,1887
2010,2159,1971
1949,2186,2033
1965,2125,1950
1984,2087,1885
2034,2129,1953
1931,2144,2011
1943,2082,1925
1994,2063,1857
1979,2112,1933
1919,2133,2000
1889,2071,1919
1983,2035,1849
1965,2093,1929
1936,2118,2000
1927,2062,1920
1949,2016,1849
1952,2070,1926
1905,2101,2000
1907,2035,1909
2046,2002,1840
1942,2063,1923
1936,2086,1998
1923,2019,1912
2023,1986,1846
1975,2037,1927
2000,2065,2000
1995,2001,1914
1968,1968,1850
1983,2029,1933
1940,2054,2001
1967,1984,1916
2003,1958,1849
1987,2007,1926
1949,2035,1999
1961,1968,1914
2000,1924,1845
1980,1988,1924
1935,2009,1987
1947,1946,1902
2000,1917,1836
1979,1969,1920
1939,1993,1989
1947,1931,1903
1995,1903,1835
1974,1939,1911
1930,1969,1984
1953,1906,1900
2000,1883,1840
1985,1937,1921
1935,1957,1985
1947,1890,1898
2000,1862,1835
1981,1910,1917
1934,1931,1972
1950,1872,1891
2000,1840,1835
1979,1899,1917
1923,1913,1983
1933,1856,1888
1981,1825,1821
1970,1871,1904
1926,1897,1968
1938,1835,1879
1987,1810,1820
1979,1861,1906
1930,1886,1968
1941,1824,1885
1984,1802,1808
1972,1846,1893
1926,1867,1962
1949,1808,1888
1999,1779,1823
1984,1831,1904
1926,1851,1956
1933,1794,1871
1982,1765,1805
1957,1820,1894
1911,1843,1957
1920,1781,1869
1969,1751,1805
1957,1803,1879
1911,1826,1951
1931,1766,1862
1981,1740,1791
1960,1800,1874
1919,1831,1952
1930,1765,1859
1975,1738,1780
1962,1786,1872
1914,1809,1936
1925,1751,1858
1983,1728,1792
1959,1779,1861
1904,1796,1923
1913,1744,1845
1965,1712,1786
1959,1775,1876
1914,1799,1951
1929,1738,1858
1968,1698,1787
1953,1750,1866
1904,1777,1927
1919,1716,1845
1968,1680,1782
1947,1734,1871
1904,1757,1942
1920,1693,1843
1964,1657,1777
1954,1702,1860
1904,1731,1932
1918,1680,1847
1971,1648,1785
1949,1701,1867
1904,1725,1930
1924,1657,1842
1971,1618,1782
1965,1675,1872
1906,1699,1932
1907,1639,1840
1968,1614,1780
1953,1664,1870
1909,1693,1936
1923,1642,1851
1971,1612,1786
1949,1661,1869
1904,1685,1927
1925,1632,1847
1971,1605,1793
1954,1652,1872
1896,1680,1930
1917,1634,1855
1971,1605,1789
1958,1657,1872
1913,1685,1930
1935,1626,1840
1983,1601,1789
1961,1657,1877
1915,1687,1953
1933,1634,1865
1982,1616,1797
1963,1670,1885
1915,1697,1955
1939,1635,1871
1984,1613,1808
1959,1675,1885
1911,1697,1946
1931,1638,1861
1978,1615,1792
1957,1667,1879
1911,1697,1952
1933,1640,1863
1975,1616,1795
1963,1675,1872
1905,1699,1939
1914,1638,1841
1953,1611,1773
1932,1667,1854
1886,1695,1920
1904,1641,1835
1947,1616,1761
1920,1671,1840
1871,1690,1894
1872,1635,1805
1915,1606,1734
1895,1664,1809
1831,1695,1862
1840,1649,1767
1875,1637,1693
1841,1703,1765
1791,1737,1810
1783,1686,1712
1794,1659,1621
1771,1712,1680
1712,1744,1741
1709,1683,1627
1717,1648,1531
1669,1689,1586
1593,1705,1632
1579,1629,1506
1587,1587,1405
1523,1672,1451
1424,1603,1471
1421,1535,1360
1478,1525,1323
1487,1651,1441
1470,1701,1535
1509,1637,1476
1591,1638,1451
1609,1803,1567
1588,1837,1661
1622,1746,1616
1696,1834,1586
1718,1906,2064
1684,1984,2017
1715,1857,1710
1778,1941,1673
1776,2023,2210
1745,2032,2098
1775,1970,1858
1853,2031,1787
1876,2077,1814
1891,2120,1871
1840,1999,1814
1815,2027,2770
1680,1960,2005
1619,1947,767
1738,1940,1337
1845,1967,1869
1854,2038,1973
1819,2121,1858
1841,2029,1802
1904,2033,1787
1897,2079,1838
1853,2069,1834
1872,2026,1808
1936,2036,1819
1931,2098,1827
1887,2122,1834
1904,2090,1829
1953,2073,1831
1934,2123,1830
1892,2159,1829
1911,2134,1829
1963,2082,1826
1953,2128,1833
1920,2165,1827
1933,2112,1826
1968,2093,1825
1963,2155,1833
1950,2162,1819
1930,2125,1712
1943,2095,1651
1961,2090,1745
1985,2194,1806
1966,2112,1714
2018,2032,1648
2011,2127,1695
1904,2147,1791
1899,2101,1724
1957,2102,1655
1967,2147,1733
1936,2215,1791
1965,2141,1706
2001,2079,1634
1988,2122,1721
1962,2154,1778
2004,2097,1650
2010,2094,1629
1981,2181,1751
1936,2161,1792
1975,2065,1702
2086,2086,1630
2032,2147,1708
1981,2142,1794
1977,2107,2036
1990,2064,1856
1982,2103,1760
1937,2142,1794
1947,2096,1828
2021,2065,1837
2122,2096,1829
2019,2128,1829
1938,2064,1831
1947,2038,1831
1973,2108,1833
1965,2121,1831
1975,2071,1826
2035,1927,1829
2014,2057,1835
1959,2086,1830
1993,2017,1827
2081,1988,1829
1998,2093,1829
1920,2031,1828
1968,1997,1829
2015,1979,1830
1964,1946,1835
2004,1841,1834
2023,1879,1827
2039,1921,1831
1971,1872,1830
1911,1843,1827
1975,1795,1824
2134,1751,1829
2100,1777,1831
1866,1776,1827
1872,1722,1826
1942,1679,1840
2000,1671,1898
1979,1695,1924
1981,1751,1783
2061,1600,1744
1973,1605,1883
1908,1650,1904
1991,1632,1839
2019,1565,1791
1958,1618,1840
1915,1590,1920
2031,1567,1821
2099,1520,1798
2059,1616,1823
1981,1699,1909
1965,1463,1879
2019,1535,1809
2032,1606,1815
1936,1532,1894
2057,1520,1869
2139,1504,1846
1965,1559,1942
1904,1650,1973
2078,1511,1846
2054,1520,1840
2032,1562,1937
2127,1574,1939
2021,1535,1899
2032,1519,1863
2021,1521,1875
2021,1482,1954
2095,1456,1873
2032,1408,1796
2079,1535,1952
2003,1535,2047
1982,1470,1939
2096,1463,1850
2059,1488,1905
2029,1530,1964
1990,1487,1913
2015,1456,1788
2142,1498,1929
2112,1586,2015
1883,1414,1783
1962,1469,1839
2029,1487,1954
1982,1557,1997
1986,1520,1886
2033,1472,1822
2014,1535,1958
1991,1535,1984
2153,1462,1731
2228,1462,1782
1902,1514,1996
1792,1517,1950
1935,1487,1887
2034,1493,1904
2019,1554,1983
2124,1535,1974
2064,1488,1833
1935,1456,1794
1895,1527,1907
1904,1570,1994
2019,1502,1843
2064,1472,1794
2060,1535,1893
1921,1573,1987
1903,1520,1889
1962,1529,1856
1931,1535,1887
1889,1507,1869
2077,1523,1843
2131,1535,1887
1950,1617,1980
1820,1578,1907
2012,1535,1815
2027,1571,1927
1919,1614,1979
1859,1585,1945
1899,1535,1811
1963,1566,1851
1988,1616,1926
1991,1653,1949
2097,1607,1818
1889,1575,1796
1872,1658,1951
1887,1667,1968
1930,1647,1908
1960,1595,1846
1939,1615,1841
1894,1648,1869
1911,1648,1951
1928,1625,1874
1915,1664,1859
1970,1730,1975
1936,1669,1872
2004,1648,1806
1967,1685,1877
1891,1719,1965
1902,1641,1846
1933,1626,1716
1895,1703,1897
1871,1742,1991
1949,1692,1862
1935,1643,1765
1936,1731,1915
1998,1771,1959
1879,1665,1781
1825,1662,1762
1947,1773,1955
1871,1774,1974
1911,1707,1807
1890,1663,1721
1887,1769,1888
1905,1813,1983
1873,1757,1875
1935,1718,1776
1936,1779,1877
1851,1793,1940
1893,1746,1808
1979,1713,1748
1888,1790,1841
1842,1818,1935
1845,1753,1837
1893,1715,1744
2014,1802,1871
1851,1847,1976
1793,1783,1865
1897,1738,1733
1953,1822,1863
1841,1808,1887
1808,1756,1757
1907,1775,1793
1894,1818,1875
1894,1861,1930
1874,1819,1884
1895,1760,1786
1866,1808,1853
1870,1840,1862
1881,1791,1808
1843,1765,1745
1847,1838,1872
1829,1872,1949
1905,1840,1855
1911,1819,1761
1893,1879,1885
1794,1863,1891
1893,1808,1799
1858,1777,1763
1829,1863,1885
1809,1895,1965
1833,1846,1867
1879,1815,1750
1860,1866,1833
1840,1911,1893
1859,1865,1834
1900,1840,1793
1882,1885,1883
1831,1906,1926
1847,1857,1837
1893,1835,1754
1871,1891,1861
1825,1921,1917
1840,1867,1817
1849,1806,1711
1857,1875,1787
1856,1919,1899
1903,1872,1872
1897,1868,1805
1840,1897,1855
1773,1914,1902
1843,1877,1806
1983,1842,1712
1911,1863,1711
1719,1938,1943
1693,1878,1872
1802,1819,1701
1936,1911,1815
1826,1942,1911
1733,1865,1826
1774,1838,1694
1840,1934,1847
1840,1966,1905
1857,1887,1838
1870,1861,1757
1883,1906,1807
1876,1935,1873
1822,1904,1837
1808,1867,1782
1831,1936,1871
1822,1958,1921
1824,1862,1777
1875,1840,1620
1839,1904,1806
1765,1962,1984
1798,1918,1885
1869,1903,1766
1855,1953,1810
1861,1943,1869
1886,1875,1811
1862,1845,1744
1753,1927,1839
1757,1976,1897
1838,1919,1821
1859,1867,1722
1893,1936,1801
1879,1968,1931
1791,1914,1821
1771,1875,1733
1802,1906,1788
1837,1958,1856
1847,1915,1831
1793,1875,1718
1808,1962,1856
1814,1987,1921
1857,1935,1869
1930,1909,1743
1881,1943,1787
1776,1971,1931
1783,1919,1833
1813,1894,1776
1789,1935,1830
1818,1948,1853
1801,1935,1818
1841,1891,1764
1872,1931,1855
1807,1962,1933
1791,1916,1843
1825,1919,1787
1827,1962,1878
1825,1985,1920
1815,1918,1809
1885,1889,1764
1833,1930,1847
1777,1983,1872
1805,1919,1771
1853,1914,1789
1822,1959,1853
1765,1939,1890
1802,1888,1795
1885,1903,1757
1891,1959,1850
1773,1968,1901
1781,1895,1783
1874,1893,1761
1854,1955,1871
1810,1968,1875
1887,1908,1791
1851,1898,1782
1810,1967,1870
1749,1969,1883
1830,1925,1790
1859,1886,1775
1842,1951,1893
1765,1975,1935
1775,1926,1802
1840,1899,1783
1851,1951,1872
1843,1991,1941
1865,1938,1818
1833,1904,1776
1825,1957,1838
1817,1983,1983
1806,1909,1814
1809,1888,1808
1860,1936,1858
1842,1954,1840
1808,1904,1795
1815,1905,1804
1787,1958,1915
1790,1968,1934
1847,1929,1773
1894,1917,1777
1851,1945,1833
1808,1939,1857
1780,1904,1861
1809,1879,1755
1808,1934,1863
1781,1945,1852
1851,1902,1809
1895,1889,1774
1854,1950,1846
1789,1975,1898
1869,1920,1776
1905,1903,1787
1850,1925,1826
1791,1947,1878
1772,1895,1843
1825,1900,1799
1825,1943,1873
1803,1952,1915
1886,1914,1807
1904,1914,1756
1809,1946,1855
1776,1972,2064
1808,1904,1881
1826,1874,1779
1841,1911,1821
1853,1951,1903
1869,1932,1840
1861,1904,1783
1787,1933,1880
1739,1937,1919
1819,1909,1838
1938,1879,1773
1872,1943,1867
1772,1955,1946
1765,1899,1829
1859,1887,1764
1859,1923,1878
1822,1953,1920
1839,1878,1793
1872,1867,1758
1847,1920,1857
1845,1941,1926
1840,1895,1830
1843,1878,1835
1840,1936,1873
1776,1950,1908
1827,1886,1808
1927,1869,1824
1875,1930,1888
1750,1934,1970
1829,1888,1794
1868,1889,1740
1808,1921,1834
1776,1945,1982
1855,1899,1829
1913,1851,1718
1850,1937,1785
1776,1948,1905
1803,1892,1887
1872,1861,1753
1842,1906,1846
1784,1919,1884
1834,1875,1808
1877,1849,1757
1834,1887,1881
1875,1936,1892
1872,1882,1806
1819,1855,1776
1805,1907,1883
1835,1937,1943
1870,1871,1849
1877,1856,1746
1805,1911,1851
1776,1926,1925
1817,1871,1815
1872,1861,1759
1853,1930,1839
1804,1935,1917
1815,1872,1808
1871,1863,1732
1866,1920,1831
1841,1941,1929
1824,1878,1789
1874,1857,1816
1822,1890,1837
1797,1929,1920
1937,1885,1862
1878,1859,1748
1782,1907,1858
1779,1925,1895
1841,1858,1805
1890,1840,1812
1861,1932,1887
1786,1932,1935
1810,1865,1817
1891,1856,1754
1856,1906,1840
1807,1915,1931
1839,1874,1859
1884,1872,1779
1875,1919,1868
1841,1919,1886
1867,1855,1791
1975,1853,1744
1834,1923,1873
1773,1921,1936
1795,1866,1812
1877,1858,1767
1873,1911,1866
1799,1933,1914
1823,1872,1821
1870,1859,1776
1862,1903,1847
1884,1931,1901
1906,1865,1791
1842,1837,1807
1829,1925,1892
1850,1951,1908
1813,1872,1819
1906,1858,1776
1916,1905,1872
1806,1936,1942
1804,1869,1808
1861,1830,1712
1859,1915,1853
1845,1934,1938
1853,1860,1826
1887,1860,1781
1855,1910,1885
1855,1936,1905
1886,1874,1808
1863,1853,1778
1774,1926,1898
1817,1935,1936
1797,1862,1792
1938,1856,1743
1874,1904,1834
1839,1910,1911
1841,1876,1827
1892,1853,1776
1855,1900,1866
1870,1915,1929
1859,1861,1842
1860,1867,1773
1861,1900,1829
1840,1926,1914
1809,1875,1838
1851,1860,1781
1862,1901,1837
1843,1913,1872
1864,1871,1813
1856,1869,1789
1866,1911,1869
1871,1899,1915
1856,1847,1785
1939,1861,1744
1818,1919,1873
1769,1906,1910
1864,1843,1809
1865,1851,1776
1880,1908,1875
1836,1914,1934
1825,1860,1816
1870,1848,1743
1934,1916,1869
1789,1931,1949
1842,1856,1810
1856,1838,1741
1862,1904,1875
1849,1922,1947
1829,1853,1817
1910,1843,1753
1926,1875,1839
1844,1919,1968
1795,1857,1872
1861,1829,1737
1861,1883,1838
1849,1917,1921
1879,1856,1805
1878,1839,1786
1869,1890,1889
1821,1911,1925
1902,1861,1776
1950,1840,1776
1842,1872,1875
1845,1903,1933
1934,1838,1789
1941,1835,1776
1808,1887,1885
1758,1898,1941
1868,1857,1813
1920,1833,1767
1856,1882,1861
1807,1904,1905
1880,1840,1831
1937,1833,1766
1902,1904,1883
1759,1894,1921
1808,1851,1831
1861,1835,1776
1846,1888,1877
1873,1909,1910
1847,1846,1803
1919,1827,1762
1854,1885,1892
1813,1904,1934
1866,1839,1830
1887,1832,1773
1838,1878,1872
1813,1907,1934
1851,1857,1818
1966,1829,1745
1846,1895,1867
1808,1894,1891
1839,1847,1809
1907,1850,1786
1911,1891,1889
1821,1902,1911
1861,1841,1817
1891,1839,1799
1921,1878,1866
1760,1897,1922
1722,1850,1831
1933,1839,1776
1859,1888,1854
1734,1895,1921
1870,1851,1835
1911,1834,1746
1869,1895,1845
1823,1890,1936
1859,1844,1840
1904,1819,1776
1845,1878,1850
1839,1903,1944
1921,1853,1867
1891,1813,1795
1799,1863,1834
1728,1870,1861
1822,1812,1793
1933,1830,1794
1808,1863,1883
1792,1872,1903
1808,1817,1808
1897,1806,1771
1887,1867,1859
1850,1893,1936
1806,1835,1840
1930,1796,1776
1870,1873,1875
1864,1889,1920
1876,1805,1794
1873,1808,1782
1776,1875,1871
1744,1872,1904
1844,1819,1797
1915,1811,1750
1929,1866,1872
1807,1885,1924
1921,1831,1813
1872,1815,1779
1887,1872,1873
1818,1893,1891
1774,1815,1793
1841,1811,1782
1891,1872,1875
1904,1866,1893
1883,1811,1776
1899,1822,1771
1808,1835,1826
1808,1878,1936
1885,1850,1867
1877,1808,1808
1915,1871,1873
1836,1871,1921
1851,1802,1808
1875,1810,1777
1846,1863,1872
1841,1872,1924
1834,1798,1852
1865,1789,1807
1927,1856,1884
1855,1887,1937
1836,1821,1834
1898,1789,1755
1904,1847,1865
1867,1872,1961
1874,1794,1850
1972,1793,1783
1821,1857,1863
1810,1874,1947
1808,1819,1854
1866,1804,1804
1858,1860,1896
1853,1865,1927
1875,1827,1826
1929,1840,1808
1910,1862,1893
1855,1861,1906
1844,1832,1817
1873,1831,1791
1871,1874,1899
1885,1886,1933
1910,1831,1792
1853,1804,1767
1830,1869,1906
1830,1902,1933
1936,1837,1786
1898,1834,1787
1856,1874,1902
1851,1898,1943
1882,1826,1818
1897,1811,1781
1871,1882,1873
1888,1888,1904
1866,1825,1823
1872,1823,1814
1845,1885,1901
1840,1906,1936
1869,1840,1806
1902,1815,1783
1871,1872,1891
1863,1891,1904
1888,1856,1845
1904,1840,1810
1862,1873,1884
1831,1883,1911
1859,1840,1823
1973,1824,1770
1898,1878,1904
1804,1891,1954
1819,1837,1839
1949,1809,1771
1968,1879,1875
1801,1904,1950
1837,1838,1855
1919,1838,1771
1913,1904,1888
1829,1908,1939
1844,1853,1829
1936,1839,1770
1939,1881,1863
1818,1907,1943
1823,1844,1845
1887,1823,1769
1957,1910,1873
1904,1915,1906
1859,1850,1845
1862,1856,1808
1872,1906,1872
1855,1907,1911
1891,1856,1836
1898,1853,1813
1871,1893,1893
1850,1909,1922
1863,1827,1822
1922,1812,1791
1891,1903,1905
1852,1916,1938
1835,1863,1825
1882,1849,1810
1903,1904,1875
1851,1906,1898
1863,1851,1840
1917,1847,1828
1869,1910,1902
1845,1895,1919
1849,1842,1801
1925,1836,1745
1886,1901,1879
1847,1887,1925
1887,1857,1834
1921,1858,1792
1913,1905,1881
1842,1915,1904
1855,1857,1827
1907,1843,1809
1861,1904,1904
1876,1920,1934
1903,1856,1835
1920,1851,1792
1879,1909,1885
1827,1929,1930
1872,1871,1817
1936,1841,1777
1891,1902,1875
1831,1906,1929
1886,1861,1830
1936,1850,1773
1874,1895,1860
1863,1906,1915
1904,1857,1837
1921,1854,1780
1883,1910,1917
1840,1915,1930
1895,1840,1791
1910,1853,1791
1886,1918,1911
1831,1907,1945
1872,1855,1836
1949,1856,1789
1903,1903,1861
1808,1904,1911
1839,1857,1856
1943,1872,1819
1897,1908,1879
1866,1919,1936
1895,1839,1822
1929,1839,1809
1882,1891,1903
1833,1907,1914
1841,1847,1811
1910,1855,1795
1879,1906,1863
1898,1911,1923
1921,1856,1855
1939,1853,1806
1898,1922,1882
1825,1920,1920
1850,1859,1817
1950,1846,1770
1904,1907,1893
1840,1933,1954
1853,1853,1787
1916,1834,1748
1899,1904,1887
1851,1931,1926
1857,1842,1811
1918,1840,1773
1936,1905,1878
1842,1930,1952
1862,1866,1839
1915,1861,1808
1901,1907,1891
1861,1902,1917
1903,1856,1814
1901,1844,1779
1869,1899,1891
1898,1893,1889
1927,1838,1773
1920,1855,1783
1840,1904,1904
1808,1915,1954
1878,1851,1840
1914,1837,1776
1904,1878,1859
1915,1927,1907
1901,1872,1821
1911,1793,1767
1871,1866,1889
1827,1893,1937
1859,1832,1828
1901,1839,1777
1920,1882,1861
1890,1946,1904
1837,1861,1791
1898,1900,1798
1860,1942,1907
1831,1946,1931
1883,1837,1833
1935,1850,1776
1904,1907,1856
1818,1900,1929
1859,1889,1851
1936,1829,1787
1872,1906,1886
1838,1914,1936
1872,1867,1808
1931,1842,1758
1889,1951,1865
1837,1897,1925
1872,1883,1812
1915,1845,1770
1915,1954,1877
1867,1917,1922
1840,1840,1805
1884,1840,1785
1901,1933,1905
1883,1868,1957
1895,1873,1858
1901,1891,1751
1849,1898,1841
1831,1926,1907
1841,1840,1840
1933,1851,1808
1883,1926,1901
1837,1906,1917
1883,1856,1808
1920,1856,1797
1904,1920,1904
1839,1907,1895
1866,1839,1782
1904,1849,1782
1901,1915,1904
1858,1907,1932
1844,1847,1821
1920,1833,1789
1905,1885,1868
1842,1920,1918
1835,1870,1792
1887,1849,1773
1883,1917,1899
1842,1946,1927
1844,1787,1783
1929,1874,1752
1894,1941,1878
1808,1978,1919
1841,1862,1820
1910,1851,1776
1899,1903,1871
1861,1893,1912
1879,1847,1822
1919,1856,1790
1865,1868,1857
1819,1967,1918
1871,1840,1826
1965,1840,1766
1968,1887,1859
1807,1909,1901
1790,1853,1818
1888,1855,1803
1873,1920,1889
1836,1912,1927
1875,1842,1831
1919,1852,1808
1905,1907,1883
1815,1904,1872
1839,1843,1797
1872,1840,1751
1847,1873,1857
1860,1908,1934
1936,1841,1781
2021,1776,1743
1827,1900,1893
1723,1905,1946
1818,1841,1845
1918,1808,1757
1916,1895,1853
1875,1942,1885
1850,1840,1786
1888,1854,1815
1848,1886,1875
1806,1851,1909
1869,1840,1824
1917,1835,1732
1949,1893,1830
1841,1903,1904
1837,1856,1809
1901,1861,1808
1901,1863,1871
1827,1893,1927
1859,1862,1838
1935,1843,1761
1859,1915,1872
1815,1933,1952
1854,1791,1819
1945,1872,1775
1903,1935,1883
1805,1901,1941
1895,1813,1841
1947,1869,1801
1858,1966,1911
1793,1865,1933
1890,1863,1783
1932,1776,1726
1865,1869,1872
1782,1891,1945
1865,1831,1850
1915,1826,1763
1870,1883,1872
1807,1879,1923
1872,1872,1831
1953,1858,1776
1885,1872,1820
1805,1906,1907
1815,1819,1760
1959,1823,1779
1870,1882,1949
1825,1850,1941
1841,1871,1793
1888,1803,1745
1841,1868,1840
1844,1902,1922
1840,1835,1825
1884,1776,1727
1873,1897,1877
1859,1965,1891
1879,1807,1839
1887,1818,1799
1849,1871,1918
1815,1863,1936
1893,1775,1763
1923,1815,1744
1854,1935,1874
1840,1853,1884
1904,1847,1791
1875,1793,1825
