1859,1821,1862
1922,1791,1771
1906,1839,1872
1882,1879,1962
1830,1831,1814
1871,1791,1787
1921,1840,1904
1893,1882,1934
1868,1819,1841
1910,1799,1810
1888,1869,1872
1823,1887,1934
1840,1828,1840
1885,1797,1744
1909,1841,1862
1895,1885,1962
1873,1833,1856
1867,1776,1745
1877,1842,1875
1854,1867,1905
1873,1829,1829
1915,1807,1735
1936,1852,1863
1910,1881,1978
1822,1808,1872
1878,1777,1773
1885,1855,1889
1813,1872,1911
1858,1808,1795
1905,1808,1795
1869,1865,1891
1819,1883,1966
1840,1799,1837
1887,1785,1758
1919,1871,1883
1918,1891,1943
1887,1806,1807
1815,1790,1739
1829,1856,1878
1837,1863,1967
1846,1809,1829
1928,1805,1753
1918,1830,1835
1842,1879,1963
1836,1837,1835
1878,1808,1791
1862,1867,1904
1845,1889,1950
1855,1830,1841
1919,1814,1783
1965,1863,1853
1843,1867,1883
1807,1824,1839
1881,1830,1803
1884,1866,1903
1840,1877,1941
1872,1803,1787
1938,1807,1728
1879,1870,1886
1819,1885,1968
1824,1837,1858
1877,1807,1794
1887,1878,1884
1840,1901,1933
1862,1847,1832
1887,1814,1746
1900,1872,1856
1846,1904,1974
1849,1854,1850
1903,1825,1777
1915,1874,1892
1851,1899,1933
1842,1840,1804
1908,1821,1769
1903,1865,1883
1862,1891,1937
1810,1839,1840
1857,1823,1789
1919,1903,1905
1858,1918,1948
1845,1843,1822
1842,1797,1744
1872,1869,1883
1867,1928,1956
1856,1846,1849
1883,1821,1771
1884,1869,1888
1846,1902,1961
1921,1839,1838
1947,1814,1747
1870,1856,1873
1791,1891,1967
1792,1849,1829
1937,1830,1746
1894,1883,1866
1831,1885,1927
1817,1844,1877
1858,1822,1742
1879,1883,1904
1873,1903,1898
1867,1857,1859
1873,1822,1791
1883,1869,1929
1840,1922,1922
1831,1856,1857
1920,1813,1727
1925,1867,1897
1840,1904,1933
1827,1863,1858
1890,1837,1784
1865,1886,1825
1840,1878,1905
1807,1830,1823
1872,1823,1786
1917,1905,1904
1846,1917,1943
1859,1860,1815
1893,1831,1769
1874,1890,1868
1857,1935,1968
1831,1857,1844
1842,1829,1735
1921,1881,1840
1971,1894,1895
1809,1861,1830
1810,1819,1781
1845,1879,1886
1851,1901,1966
1833,1855,1837
1839,1840,1776
1863,1905,1860
1874,1921,1968
1876,1855,1861
1859,1833,1770
1840,1897,1920
1834,1919,1968
1834,1866,1801
1918,1824,1726
1904,1879,1843
1840,1904,1930
1808,1840,1804
1840,1829,1774
1891,1904,1877
1881,1911,1936
1882,1843,1819
1899,1840,1789
1855,1891,1841
1799,1911,1904
1825,1846,1801
1868,1826,1743
1867,1894,1860
1857,1916,1899
1840,1848,1801
1908,1858,1825
1887,1904,1895
1802,1894,1952
1831,1840,1759
1875,1831,1770
1920,1914,1867
1872,1929,1917
1835,1855,1828
1891,1842,1774
1877,1908,1875
1797,1949,1955
1806,1857,1847
1879,1845,1771
1894,1916,1835
1910,1942,1935
1831,1861,1842
1872,1840,1774
1857,1895,1898
1826,1921,1954
1872,1869,1802
1927,1822,1715
1946,1897,1828
1859,1926,1914
1808,1868,1904
1819,1844,1800
1833,1891,1935
1831,1925,1949
1857,1873,1812
1887,1847,1757
1875,1904,1846
1831,1920,1934
1847,1872,1840
1914,1853,1801
1882,1899,1902
1853,1926,1920
1849,1872,1781
1854,1856,1737
1856,1913,1887
1840,1916,1946
1936,1878,1830
1904,1847,1759
1808,1909,1879
1808,1919,1919
1858,1870,1836
1913,1854,1777
1886,1927,1932
1823,1929,1953
1853,1870,1821
1885,1841,1792
1913,1891,1866
1856,1933,1932
1838,1871,1862
1927,1865,1765
1902,1906,1851
1794,1915,1952
1809,1873,1904
1869,1859,1795
1899,1913,1917
1872,1909,1931
1877,1860,1872
1933,1853,1740
1867,1903,1835
1807,1937,2032
1849,1884,1874
1923,1860,1797
1909,1910,1872
1832,1925,1958
1821,1872,1840
1894,1850,1741
1887,1901,1895
1867,1928,1919
1900,1857,1790
1960,1860,1758
1826,1923,1911
1804,1941,1965
1840,1881,1802
1917,1855,1777
1911,1910,1862
1861,1947,1972
1874,1869,1841
1870,1840,1759
1846,1874,1858
1853,1930,1934
1856,1873,1840
1879,1843,1776
1878,1904,1866
1885,1919,1971
1861,1852,1797
1872,1827,1708
1904,1897,1921
1831,1941,1994
1837,1861,1859
1874,1825,1761
1921,1909,1943
1867,1920,1938
1897,1866,1797
1887,1856,1785
1835,1918,1899
1819,1936,1895
1843,1859,1826
1921,1849,1798
1910,1905,1844
1911,1925,1904
1844,1854,1807
1847,1840,1776
1872,1903,1901
1826,1940,1961
1842,1858,1808
1902,1849,1769
1911,1909,1908
1863,1921,1974
1840,1869,1814
1881,1855,1744
1891,1920,1872
1869,1936,1936
1841,1860,1827
1891,1853,1777
1887,1904,1879
1836,1897,1923
1856,1846,1804
1938,1845,1770
1919,1890,1888
1826,1922,1926
1831,1862,1844
1863,1840,1791
1863,1903,1882
1873,1915,1920
1891,1841,1805
1864,1838,1776
1841,1890,1877
1849,1919,1927
1904,1850,1785
1889,1840,1785
1853,1904,1917
1812,1919,1955
1774,1869,1815
1929,1835,1758
1919,1906,1898
1837,1938,1938
1815,1859,1827
1857,1829,1775
1909,1897,1898
1897,1918,1936
1828,1859,1840
1872,1822,1776
1875,1883,1859
1857,1904,1947
1783,1865,1859
1889,1854,1764
1868,1904,1867
1810,1894,1916
1837,1839,1834
1882,1839,1779
1872,1903,1895
1839,1912,1957
1840,1852,1838
1878,1840,1754
1879,1901,1872
1841,1915,1921
1873,1839,1813
1846,1839,1771
1872,1905,1863
1811,1920,1903
1883,1853,1826
1898,1827,1808
1887,1903,1904
1840,1922,1947
1845,1841,1819
1874,1830,1773
1898,1931,1872
1856,1918,1905
1808,1824,1815
1882,1840,1783
1955,1904,1878
1916,1920,1911
1806,1847,1794
1802,1813,1773
1817,1886,1899
1852,1908,1967
1888,1874,1835
1898,1845,1762
1867,1901,1872
1882,1904,1884
1827,1841,1795
1827,1822,1783
1842,1904,1910
1843,1918,1953
1826,1840,1832
1936,1811,1765
1936,1893,1835
1843,1917,1952
1829,1840,1852
1834,1812,1786
1910,1889,1858
1831,1927,1961
1794,1870,1824
1793,1840,1783
1825,1891,1911
1835,1894,1943
1883,1828,1793
1933,1818,1769
1925,1903,1878
1857,1908,1958
1834,1835,1829
1879,1834,1769
1862,1897,1874
1855,1910,1915
1851,1857,1837
1868,1828,1798
1861,1907,1914
1830,1919,1953
1854,1850,1821
1904,1812,1744
1899,1891,1885
1831,1915,1958
1822,1845,1824
1873,1834,1791
1873,1904,1901
1894,1915,1914
1926,1858,1794
1840,1818,1784
1815,1898,1922
1803,1923,1958
1938,1845,1827
1878,1827,1763
1901,1910,1882
1894,1904,1936
1856,1873,1820
1873,1834,1755
1894,1891,1898
1818,1905,1949
1856,1845,1821
1919,1841,1797
1935,1910,1886
1841,1892,1872
1835,1833,1808
1872,1843,1790
1860,1904,1911
1824,1936,1951
1829,1841,1798
1867,1827,1735
1968,1871,1875
1861,1904,1973
1792,1855,1839
1869,1838,1762
1844,1901,1882
1893,1930,1955
1867,1863,1843
1834,1808,1770
1894,1889,1874
1831,1915,1930
1935,1850,1814
1875,1849,1784
1808,1902,1891
1842,1917,1949
1838,1850,1825
1879,1839,1771
1884,1911,1925
1932,1925,1945
1840,1852,1786
1907,1835,1744
1909,1904,1886
1923,1891,1950
1909,1843,1867
1957,1852,1786
1927,1904,1872
1834,1907,1941
1840,1839,1808
1820,1842,1795
1883,1898,1890
1817,1915,1942
1830,1846,1816
1867,1829,1779
1866,1889,1899
1843,1918,1942
1872,1825,1825
1917,1827,1765
1871,1929,1887
1762,1924,1908
1871,1840,1823
1974,1825,1791
1873,1892,1920
1787,1914,1934
1807,1845,1789
1865,1827,1740
1914,1904,1888
1802,1905,1949
1890,1837,1829
1872,1811,1742
1878,1867,1883
1839,1913,1933
1827,1872,1801
1921,1840,1782
1854,1889,1889
1823,1909,1941
1831,1858,1826
1890,1841,1757
1889,1904,1894
1869,1927,1953
1847,1854,1790
1882,1815,1745
1868,1882,1856
1822,1887,1936
1904,1872,1858
1926,1859,1775
1899,1905,1860
1818,1916,1923
1828,1855,1835
1901,1840,1771
1894,1893,1873
1874,1904,1927
1884,1851,1795
1890,1814,1775
1854,1891,1904
1819,1911,1951
1861,1840,1805
1924,1833,1730
1870,1903,1878
1819,1904,1929
1862,1835,1810
1934,1837,1759
1893,1892,1857
1827,1904,1936
1840,1830,1819
1902,1805,1778
1919,1889,1883
1894,1937,1931
1839,1860,1808
1859,1831,1769
1863,1885,1897
1855,1909,1938
1911,1823,1767
1981,1840,1738
1872,1891,1881
1797,1905,1936
1883,1839,1789
1934,1827,1760
1885,1901,1878
1831,1911,1948
1835,1851,1840
1863,1840,1763
1860,1876,1887
1851,1905,1942
1872,1843,1810
1930,1824,1773
1936,1907,1871
1870,1901,1922
1843,1835,1795
1914,1810,1728
1968,1914,1904
1866,1936,1958
1788,1855,1824
1817,1830,1770
1903,1885,1904
1885,1899,1941
1836,1855,1803
1868,1867,1759
1881,1892,1894
1877,1872,1902
1903,1829,1769
1903,1834,1741
1882,1919,1910
1849,1906,1907
1878,1834,1838
1911,1827,1809
1878,1903,1902
1906,1909,1922
1825,1827,1791
1870,1838,1770
1856,1904,1904
1831,1905,1931
1856,1827,1791
1902,1831,1728
1930,1908,1874
1872,1914,1932
1844,1814,1805
1868,1833,1796
1883,1895,1902
1850,1904,1910
1900,1830,1751
1958,1833,1728
1886,1881,1907
1821,1890,1967
1872,1835,1797
1877,1837,1757
1836,1902,1894
1861,1915,1977
1866,1840,1792
1877,1803,1714
1871,1895,1883
1834,1907,1946
1831,1834,1808
1911,1825,1763
1951,1904,1858
1833,1910,1905
1807,1844,1807
1908,1823,1778
1919,1906,1898
1845,1915,1938
1829,1843,1808
1875,1828,1761
1874,1902,1889
1893,1924,1922
1872,1840,1807
1858,1821,1789
1846,1888,1904
1839,1915,1930
1946,1846,1763
1939,1827,1735
1824,1901,1891
1803,1908,1962
1930,1837,1804
1945,1833,1762
1920,1904,1860
1825,1897,1936
1767,1862,1837
1841,1857,1789
1889,1902,1885
1847,1895,1914
1872,1842,1808
1922,1840,1767
1893,1882,1925
1855,1904,1966
1891,1842,1823
1920,1847,1770
1904,1904,1891
1840,1884,1928
1850,1830,1813
1921,1850,1760
1951,1892,1855
1837,1895,1927
1823,1838,1804
1920,1840,1791
1901,1909,1930
1834,1905,1925
1839,1828,1802
1887,1831,1744
1943,1898,1874
1872,1892,1934
1881,1826,1789
1952,1821,1823
1951,1907,1892
1829,1894,1909
1787,1854,1833
1849,1829,1808
1872,1890,1929
1835,1914,1956
1854,1843,1801
1923,1795,1766
1907,1852,1903
1856,1897,1952
1861,1814,1792
1888,1819,1757
1982,1856,1869
1869,1915,1885
1853,1805,1814
1851,1815,1811
1871,1915,1891
1874,1854,1936
1843,1830,1833
1885,1854,1807
1915,1873,1904
1871,1856,1919
1842,1802,1783
1867,1777,1767
1843,1887,1889
1817,1919,1943
1842,1803,1834
1890,1874,1789
1890,1932,1875
1883,1905,1929
1872,1844,1824
1909,1809,1792
1872,1933,1918
1840,1904,1942
1840,1822,1790
1935,1826,1750
1922,1872,1879
1856,1930,1923
1840,1834,1789
1867,1846,1797
1857,1896,1905
1840,1902,1954
1830,1854,1806
1883,1857,1808
1910,1919,1924
1847,1901,1929
1843,1837,1787
1912,1856,1770
1873,1905,1895
1823,1881,1941
1847,1827,1831
1898,1800,1793
1883,1914,1901
1841,1966,1921
1856,1833,1807
1896,1837,1787
1873,1890,1907
1840,1899,1931
1855,1843,1806
1890,1811,1778
1872,1946,1902
1840,1951,1934
1863,1865,1814
1899,1877,1779
1878,1878,1893
1849,1906,1929
1858,1808,1821
1897,1812,1783
1882,1926,1902
1846,1939,1936
1855,1822,1813
1890,1815,1783
1887,1863,1907
1856,1906,1936
1857,1861,1808
1902,1827,1782
1875,1891,1907
1840,1893,1936
1854,1797,1801
1891,1814,1772
1879,1936,1899
1841,1875,1935
1851,1799,1813
1893,1799,1779
1887,1871,1910
1855,1863,1936
1870,1799,1791
1907,1795,1749
1893,1872,1904
1865,1878,1951
1873,1777,1802
1926,1789,1760
1917,1858,1901
1886,1828,1929
1899,1826,1801
1939,1771,1767
1938,1836,1882
1919,1923,1923
1927,1684,1792
1968,1763,1756
1968,1892,1878
1938,1889,1906
1958,1788,1787
1994,1779,1763
1981,1845,1899
1965,1903,1933
1982,1793,1795
2027,1782,1770
2019,1841,1888
1979,1887,1913
1985,1803,1776
2028,1790,1744
2029,1885,1887
2000,1942,1920
2013,1811,1792
2055,1737,1774
2037,1825,1874
2015,1835,1907
2016,1843,1776
2059,1869,1759
2043,1869,1887
2003,1904,1904
2013,1827,1773
2054,1808,1745
2043,1903,1872
2007,1918,1903
2021,1872,1767
2056,1875,1746
2038,1899,1884
2009,1895,1915
2015,1838,1775
2045,1858,1744
2037,1873,1871
2000,1939,1905
2005,1856,1783
2055,1883,1745
2032,1842,1873
1986,1927,1904
2003,1870,1780
2034,1872,1761
2023,1923,1885
1993,1949,1921
2013,1873,1806
2089,1901,1799
2113,1989,1844
1971,1940,1845
1919,1879,1785
1985,1891,1781
2001,1966,1909
1968,1961,1926
1978,1904,1792
2015,1893,1757
2018,1957,1882
1984,1962,1909
1982,1861,1776
2015,1962,1776
2055,1963,1893
2057,1973,1839
1959,1883,1744
1992,1856,1776
1999,1970,1918
1931,1952,1942
1949,1961,1827
2075,1897,1744
2197,1982,1817
2045,1876,1830
1844,1799,1808
1870,1845,1838
1946,1933,1885
1927,1932,1947
1936,1852,1847
1984,1852,1739
1933,1920,1899
1975,1966,1945
1936,1851,1808
1963,1826,1764
1968,1903,1885
1920,1915,1984
1890,1798,1735
2063,1813,1779
1989,1895,1966
1914,1861,1984
1913,1789,1838
1950,1809,1790
1963,1876,1874
2003,1879,1904
2017,1775,1792
1959,1764,1815
1920,1841,1971
1914,1853,1980
1977,1774,1834
2030,1764,1776
1967,1812,1891
1890,1829,1889
1869,1771,1798
1937,1776,1787
1930,1855,1934
1919,1822,1933
1981,1712,1744
2011,1736,1727
1898,1795,1901
1841,1817,1986
1895,1746,1826
1925,1731,1744
1899,1802,1887
1901,1818,1930
1930,1750,1794
1975,1730,1802
2004,1811,1883
1951,1814,1904
1924,1735,1755
1929,1744,1808
1861,1814,1952
1863,1808,1953
1927,1740,1822
1936,1744,1779
1943,1823,1871
1873,1830,1927
1921,1782,1820
1938,1753,1739
1907,1792,1895
1885,1814,1917
1930,1781,1833
1982,1756,1781
1920,1810,1904
1860,1830,1939
1887,1758,1778
1993,1776,1807
1983,1850,1923
1853,1820,1924
1887,1773,1776
1871,1761,1775
1899,1813,1879
1903,1840,1899
1908,1801,1786
1889,1783,1816
1870,1863,1959
1851,1858,1953
1914,1797,1779
2000,1790,1751
1877,1866,1886
1851,1867,1986
1909,1807,1835
1904,1790,1766
1858,1851,1919
1858,1871,1910
1936,1779,1785
1925,1815,1811
1872,1898,1949
1881,1889,1959
1859,1806,1819
1893,1805,1771
1917,1872,1934
1941,1869,1920
1840,1819,1826
1836,1829,1805
1923,1885,1911
1871,1872,1936
1867,1808,1819
1917,1829,1795
1938,1885,1903
1869,1883,1924
1857,1823,1801
1870,1809,1794
1845,1902,1943
1821,1886,1933
1854,1829,1759
1915,1840,1786
1904,1874,1891
1847,1884,1958
1872,1857,1853
1903,1851,1824
1936,1904,1881
1856,1889,1886
1833,1828,1779
1913,1855,1805
1781,1927,1931
1707,1927,1968
1771,1847,1795
1840,1856,1769
1803,1927,1934
1799,1936,1936
1815,1856,1792
1831,1879,1819
1808,1936,1919
1790,1919,1923
1849,1838,1821
1959,1854,1772
1770,1914,1904
1707,1934,1949
1784,1867,1829
1851,1881,1804
1813,1922,1904
1748,1931,1955
1768,1847,1811
1830,1863,1786
1876,1928,1887
1778,1907,1915
1806,1842,1839
1818,1874,1808
1827,1940,1931
1826,1905,1926
1824,1845,1785
1798,1855,1775
1747,1926,1911
1771,1922,1939
1872,1883,1840
1846,1854,1776
1791,1906,1936
1807,1916,1946
1814,1891,1822
1860,1889,1813
1803,1958,1941
1743,1921,1957
1781,1851,1808
1815,1878,1820
1791,1958,1919
1760,1936,1925
1803,1856,1776
1847,1869,1823
1875,1951,1994
1821,1936,1993
1817,1877,1784
1852,1891,1808
1815,1936,1911
1776,1931,1936
1808,1857,1806
1904,1872,1803
1860,1938,1877
1742,1931,1911
1741,1844,1840
1830,1863,1798
1843,1920,1874
1804,1931,1970
1825,1872,1770
1856,1850,1744
1820,1944,1968
1811,1954,1984
1809,1863,1759
1802,1867,1806
1795,1931,1924
1844,1927,1919
1838,1856,1799
1863,1861,1806
1831,1949,1941
1762,1955,1965
1793,1867,1760
1897,1877,1775
1872,1914,1937
1804,1943,2001
1803,1875,1807
1827,1895,1799
1907,1980,1938
1806,1923,1930
1735,1859,1821
1783,1883,1872
1785,1936,1867
1794,1927,1872
1885,1860,1810
1900,1872,1797
1851,1947,1942
1836,1933,1941
1796,1838,1790
1794,1871,1781
1905,1967,1899
1815,1957,2000
1748,1847,1808
1787,1839,1761
1840,1910,1984
1914,1938,1951
1842,1866,1812
1810,1881,1842
1810,1941,1909
1806,1920,1887
1891,1866,1823
1922,1862,1835
1807,1945,1905
1831,1951,1921
1830,1872,1819
1776,1861,1797
1815,1930,1930
1930,1927,1916
1847,1867,1790
1819,1891,1838
1815,1937,2001
1794,1942,2007
1875,1853,1747
1872,1861,1775
1808,1927,1915
1859,1952,1936
1859,1901,1774
1840,1877,1781
1809,1958,1927
1801,1904,1938
1872,1840,1822
1910,1872,1846
1837,1936,1950
1838,1936,1936
1860,1857,1812
1929,1893,1811
1901,1949,1955
1755,1904,1941
1773,1859,1809
1862,1874,1809
1949,1934,1937
1927,1914,1914
1771,1840,1799
1810,1863,1867
1840,1931,1985
1915,1919,1946
1947,1841,1755
1848,1854,1785
1797,1936,2005
1823,1951,1927
1857,1845,1851
1902,1843,1802
1867,1921,1872
1849,1926,1837
1837,1845,1799
1895,1855,1803
1879,1932,1946
1901,1934,1995
1852,1845,1835
1899,1855,1791
1882,1922,1916
1797,1942,1956
1791,1838,1840
1871,1869,1806
1876,1931,1936
1816,1921,1916
1842,1853,1810
1889,1856,1771
1886,1921,1929
1836,1905,1950
1845,1849,1801
1941,1866,1811
1985,1935,1934
1831,1885,1924
1773,1834,1840
1821,1859,1832
1839,1929,1975
1840,1920,1999
1855,1847,1799
1901,1857,1847
1879,1935,1909
1846,1921,1941
1845,1840,1820
1879,1865,1797
1890,1907,1903
1867,1894,1908
1941,1838,1778
1957,1854,1799
1804,1902,1871
1761,1910,1941
1794,1851,1830
1871,1868,1861
1920,1920,1923
1925,1899,1926
1991,1815,1725
1839,1823,1791
1744,1897,1974
1777,1900,1958
1854,1851,1838
1890,1840,1823
1855,1903,1877
1840,1919,1936
1873,1840,1815
1895,1851,1834
1870,1923,1937
1829,1892,1893
1872,1831,1792
1914,1835,1785
1856,1906,1909
1848,1904,1883
1920,1824,1757
1895,1839,1782
1818,1914,1971
1870,1919,1984
1905,1822,1835
1923,1841,1846
1872,1920,1916
1790,1901,1950
1840,1842,1849
1875,1829,1783
1879,1889,1907
1850,1879,1935
1873,1840,1808
1910,1837,1777
1951,1915,1924
1936,1900,1893
1778,1831,1825
1823,1835,1840
1909,1905,1936
1899,1872,1903
1853,1799,1787
1882,1842,1847
1827,1883,1948
1837,1862,1936
1872,1801,1777
1915,1811,1793
1927,1855,1899
1855,1855,1949
1852,1806,1794
1899,1814,1759
1949,1867,1903
1907,1825,1915
1832,1795,1863
1867,1814,1852
1854,1849,1942
1865,1853,1907
1838,1779,1773
1906,1805,1776
1872,1857,1907
1869,1829,1926
1870,1799,1839
1865,1802,1793
1878,1848,1901
1871,1839,1946
1894,1801,1789
1955,1810,1788
1889,1865,1936
1823,1846,1917
1850,1779,1799
1886,1799,1819
1902,1869,1898
1826,1840,1887
1795,1776,1787
1901,1806,1798
1905,1847,1907
1927,1845,1943
1825,1783,1804
1899,1797,1781
1876,1882,1923
1859,1859,1906
1915,1791,1802
1904,1809,1806
1845,1877,1923
1822,1855,1903
1889,1807,1799
1947,1827,1814
1891,1870,1915
1937,1842,1899
1841,1780,1777
1874,1797,1807
1885,1859,1914
1975,1855,1914
1967,1803,1783
1885,1809,1787
1883,1867,1906
1801,1858,1918
1830,1808,1808
1902,1809,1790
1917,1872,1953
1851,1853,1919
1889,1792,1767
1879,1815,1796
1872,1885,1947
1899,1853,1917
1980,1811,1803
1942,1830,1771
1839,1868,1904
1872,1882,1961
1862,1811,1805
1871,1810,1783
1835,1872,1915
1835,1872,1942
1889,1807,1804
1969,1808,1773
1882,1889,1921
1835,1872,1905
1927,1808,1773
1917,1840,1801
1823,1882,1895
1843,1863,1934
1872,1812,1815
1854,1817,1790
1871,1879,1886
1910,1862,1875
1936,1797,1763
1856,1818,1792
1864,1888,1895
1789,1851,1902
1810,1805,1776
1865,1807,1778
1893,1856,1863
1815,1860,1872
1854,1798,1787
1875,1814,1786
1917,1861,1856
1924,1865,1890
1805,1805,1808
1840,1837,1786
1865,1892,1893
1808,1882,1904
1848,1801,1791
1895,1817,1798
1872,1899,1900
1840,1887,1894
1903,1823,1802
1898,1825,1785
1867,1891,1899
1843,1884,1873
1936,1840,1785
1920,1823,1767
1877,1883,1895
1799,1891,1936
1808,1825,1782
1899,1835,1786
1936,1906,1902
1841,1902,1907
1938,1850,1764
1890,1862,1777
1849,1918,1939
1793,1904,1913
1872,1831,1791
1934,1865,1803
1883,1919,1927
1840,1919,1911
1911,1841,1793
1962,1842,1788
1847,1910,1918
1810,1897,1915
1870,1820,1782
1912,1849,1788
1865,1925,1923
1872,1924,1925
1895,1837,1778
1893,1861,1793
1861,1936,1901
1808,1904,1934
1869,1839,1827
1856,1861,1818
1898,1919,1904
1936,1903,1904
1840,1840,1792
1879,1869,1807
1805,1949,1903
1810,1911,1918
1871,1831,1791
1900,1841,1750
1856,1935,1892
1871,1917,1911
1835,1819,1796
1893,1857,1798
1873,1935,1929
1877,1930,1943
1875,1849,1814
1840,1858,1789
1893,1935,1914
1850,1915,1890
1825,1854,1786
1922,1871,1768
1895,1936,1928
1873,1890,1873
1857,1834,1763
1862,1877,1797
1860,1917,1929
1829,1897,1920
1930,1867,1777
1862,1877,1818
1971,1920,1934
1883,1914,1901
1901,1846,1776
1865,1860,1776
1905,1931,1923
1883,1905,1939
1875,1840,1790
1948,1854,1750
1920,1926,1888
1744,1904,1936
1824,1840,1799
1971,1850,1797
1888,1932,1932
1795,1923,1922
1776,1841,1794
1907,1856,1805
1987,1936,1906
1890,1917,1923
1841,1834,1776
1874,1874,1776
1865,1929,1910
1819,1906,1919
1861,1856,1787
1911,1885,1814
1927,1950,1942
1915,1900,1883
1856,1840,1748
1870,1867,1813
1841,1931,1923
1839,1909,1920
1894,1845,1791
1974,1861,1766
1933,1925,1882
1866,1897,1889
1867,1843,1771
1888,1875,1825
1843,1934,1923
1823,1904,1862
1909,1819,1788
1911,1857,1809
1845,1936,1941
1859,1913,1914
1888,1850,1759
1919,1856,1775
1856,1934,1916
1859,1920,1926
1890,1858,1822
1911,1877,1809
1879,1915,1907
1872,1901,1909
1904,1863,1809
1891,1873,1786
1872,1918,1910
1858,1921,1918
1866,1865,1781
1899,1856,1808
1921,1943,1942
1893,1930,1931
1884,1841,1809
1862,1846,1779
1861,1913,1902
1901,1898,1901
1920,1828,1757
1883,1867,1807
1875,1942,1968
1879,1943,1937
1892,1853,1778
1943,1847,1782
1872,1915,1961
1851,1913,1956
1953,1836,1796
1935,1863,1776
1860,1933,1900
1811,1909,1907
1867,1834,1763
1936,1853,1794
1920,1914,1916
1854,1916,1905
1854,1854,1790
1873,1863,1781
1849,1927,1951
1843,1904,1921
1888,1852,1799
1950,1857,1787
1909,1936,1945
1920,1913,1894
1879,1853,1773
1858,1871,1805
1867,1942,1947
1852,1913,1927
1877,1856,1808
1934,1870,1779
1927,1911,1877
1838,1895,1894
1875,1866,1808
1890,1889,1808
1840,1927,1919
1808,1895,1912
1919,1866,1754
2058,1873,1779
1875,1895,1895
1744,1881,1886
1837,1831,1804
1902,1851,1836
1841,1915,1906
1827,1891,1883
1856,1835,1791
1909,1844,1783
1853,1875,1857
1827,1867,1879
1882,1817,1780
1890,1858,1791
1845,1904,1904
1818,1887,1904
1831,1831,1773
1907,1837,1758
1968,1897,1833
1872,1889,1893
1790,1825,1777
1839,1843,1810
1850,1895,1923
1872,1875,1884
1886,1845,1766
1840,1854,1772
1833,1882,1889
1825,1879,1904
1872,1845,1824
1904,1869,1807
1857,1898,1894
1808,1878,1914
1845,1842,1799
1905,1859,1801
1910,1906,1895
1853,1889,1899
1901,1840,1790
1914,1883,1795
1843,1913,1935
1803,1889,1915
1859,1830,1766
1982,1844,1787
1858,1908,1910
1759,1909,1912
1835,1847,1798
1955,1858,1840
1961,1936,1939
1866,1907,1923
1789,1853,1786
1901,1872,1790
1894,1919,1923
1842,1920,1929
1872,1861,1792
1911,1863,1794
1867,1919,1907
1831,1906,1923
1867,1853,1813
1936,1879,1839
1894,1906,1894
1829,1904,1904
1851,1840,1781
1925,1854,1787
1865,1902,1914
1827,1898,1911
1870,1855,1772
1877,1850,1770
1869,1902,1888
1814,1879,1884
1846,1825,1803
1892,1852,1808
1915,1900,1879
1886,1944,1872
1776,1814,1748
1849,1815,1792
1943,1924,1907
1834,1890,1903
1818,1875,1790
1824,1840,1822
1833,1906,1909
1826,1835,1872
1891,1807,1771
1876,1840,1802
1846,1869,1920
1837,1872,1917
1914,1827,1770
1934,1841,1746
1871,1886,1890
1778,1851,1905
1813,1831,1808
1902,1869,1822
1904,1851,1907
1857,1876,1866
1859,1797,1758
1845,1852,1807
1823,1920,1936
1815,1894,1916
1881,1835,1769
1937,1837,1782
1826,1872,1904
1811,1885,1883
1869,1840,1799
1898,1855,1794
1866,1952,1915
1827,1857,1908
1840,1815,1795
1872,1847,1794
1856,1905,1901
1881,1887,1923
1857,1850,1806
1847,1857,1797
1838,1914,1898
1866,1899,1905
1903,1823,1810
1911,1837,1813
1858,1924,1917
1857,1887,1895
1867,1837,1793
1952,1879,1808
1863,1904,1938
1787,1883,1911
1842,1842,1795
1918,1859,1806
1969,1914,1904
1865,1853,1873
1820,1780,1774
1905,1840,1819
1904,1904,1904
1922,1918,1889
1847,1840,1776
1767,1859,1812
1806,1883,1893
1824,1871,1885
1879,1799,1847
1925,1808,1847
1902,1897,1899
1794,1871,1870
1815,1840,1793
1869,1891,1808
1867,1915,1925
1839,1899,1904
1873,1821,1739
1938,1840,1737
1870,1903,1889
1776,1888,1935
1840,1870,1831
1937,1860,1819
1871,1895,1874
1783,1882,1882
1825,1895,1798
1898,1856,1810
1883,1911,1873
1818,1890,1878
1885,1825,1766
1922,1856,1809
1913,1899,1936
1812,1831,1882
1803,1849,1779
1881,1811,1807
1839,1899,1891
1821,1907,1863
1931,1842,1779
1894,1915,1808
1808,1877,1927
1798,1863,1890
1872,1846,1775
1917,1993,1788
1878,2011,1913
1872,1907,1867
1857,1839,1789
1825,1878,1802
1827,1904,1875
1840,1889,1875
1919,1842,1744
1941,1872,1819
1797,1893,1906
1748,1851,1890
1859,1823,1765
1908,1851,1762
1861,1874,1903
1866,1926,1871
1866,1888,1748
1835,1855,1792
1825,1895,1904
1869,1926,1886
1809,1855,1718
1807,1843,1757
1756,1915,1895
1819,1827,1865
1870,1851,1744
1853,1803,1775
1782,1839,1873
1751,1746,1842
1811,1808,1733
1844,1808,1743
1792,1811,1883
1793,1799,1851
1827,1783,1735
1893,1841,1733
1831,1808,1840
1712,1781,1808
1759,1746,1710
1832,1803,1786
1781,1919,1869
1755,1721,1809
1798,1763,1712
1887,1803,1739
1851,1934,1843
1750,1812,1825
1748,1770,1741
1821,1813,1776
1797,1839,1879
1830,1840,1848
1827,1733,1725
1763,1782,1737
1773,1888,1845
1795,1826,1809
1799,1763,1709
1774,1791,1775
1787,1881,1883
1781,1857,1815
1866,1740,1712
1879,1812,1760
1819,1877,1869
1791,1836,1847
1781,1811,1776
1841,1817,1856
1838,1930,1907
1790,1872,1874
1846,1883,1753
1887,1841,1779
1901,1973,1922
1855,1952,1905
1856,1840,1770
1851,1874,1822
1826,1922,1924
1865,1898,1903
1867,1882,1813
1904,1883,1839
1887,1954,1962
1856,1904,1926
1890,1869,1799
1968,1887,1810
1951,1934,1925
1840,1909,1881
1802,1868,1825
1874,1906,1884
1872,1940,1966
1904,1904,1890
1902,1856,1804
