2032,1899,1712
1905,1999,1877
1517,1951,1953
1530,1855,1840
1693,1919,1887
1745,1991,1975
1750,1954,1901
1723,1893,1768
1835,1904,1714
1767,1969,1823
1640,1936,1947
1712,1894,1882
1735,1915,1894
1720,1980,1930
1803,1932,1858
1760,1854,1795
1663,1922,1855
1717,1954,1853
1779,1910,1793
1877,1901,1852
1689,1877,1895
1616,1904,1965
1689,1879,1859
1938,1834,1789
1853,1893,1863
1585,1927,1902
1616,1903,1795
1770,1847,1811
1802,1849,1808
1805,1886,1904
1719,1871,1934
1691,1829,1793
1705,1838,1857
1731,1917,1946
1809,1855,1838
1795,1814,1757
1744,1872,1781
1647,1875,1943
1760,1840,1867
2042,1818,1787
1881,1810,1861
1584,1900,2031
1649,1871,1973
1856,1806,1714
1887,1819,1702
1722,1865,2000
1789,1877,1978
1797,1798,1776
1667,1794,1838
1712,1857,1943
1747,1859,1904
1750,1798,1820
1785,1822,1831
1746,1873,1945
1757,1842,1943
1762,1792,1789
1810,1827,1837
1872,1830,1903
1991,1840,1874
1849,1776,1722
1627,1786,1842
1637,1856,1931
1693,1813,1936
1743,1789,1827
1802,1822,1871
1792,1856,1861
1935,1794,1858
1823,1789,1808
1739,1797,1872
1744,1858,1985
1766,1842,1904
1841,1770,1751
1914,1801,1801
1720,1860,2017
1710,1814,1924
1806,1776,1771
1744,1787,1817
1717,1862,1936
1818,1808,1929
1877,1737,1755
1764,1789,1830
1785,1837,1920
1774,1823,1924
1789,1776,1808
1776,1817,1879
1744,1840,1902
1866,1793,1857
1921,1774,1808
1859,1812,1827
1763,1862,1986
1764,1811,1943
1741,1747,1797
1764,1793,1831
1840,1830,1860
1927,1782,1927
1921,1769,1792
1826,1814,1861
1679,1861,1973
1672,1815,1943
1779,1746,1786
1893,1806,1830
1837,1851,1920
1760,1794,1903
1841,1719,1757
1869,1793,1811
1808,1863,2031
1725,1777,1899
1804,1742,1779
1859,1792,1869
1842,1838,1937
1857,1807,1841
1821,1743,1719
1782,1762,1852
1760,1833,2001
1772,1781,1907
1851,1733,1791
1926,1790,1810
1877,1822,1967
1837,1757,1904
1882,1717,1806
1835,1794,1903
1761,1856,2067
1759,1793,1962
1810,1710,1765
1886,1722,1760
1875,1758,1829
1823,1746,1893
1947,1722,1904
2030,1787,1904
1855,1857,1997
1731,1782,1967
1767,1658,1789
2001,1744,1865
2128,1815,1977
1995,1778,1909
1751,1744,1966
1761,1741,1984
1968,1770,1937
1919,1781,1995
1819,1744,1951
1819,1759,1927
1856,1816,1981
1820,1763,1937
1917,1681,1744
1950,1744,1888
1862,1794,2087
1846,1765,2011
1889,1698,1858
1915,1742,1883
1827,1745,1891
1904,1746,1911
1943,1709,1857
1922,1726,1904
1863,1750,1964
1885,1731,1904
1927,1724,1895
1902,1712,1955
1901,1747,1994
1858,1667,1799
2011,1675,1723
1904,1729,1875
1815,1777,2005
1890,1810,2035
1904,1693,1849
1919,1583,1722
1962,1711,1871
1917,1724,2011
1945,1644,1901
2215,1657,1776
1936,1768,2019
1723,1727,2012
1765,1654,1788
1938,1735,1935
1895,1735,1929
1931,1739,1908
1950,1684,1927
1859,1675,1842
1918,1702,1706
2166,1727,1891
1952,1680,1803
1755,1711,1984
1776,1758,2019
2023,1774,2003
2069,1703,1925
1917,1669,1790
1810,1755,1911
1856,1693,1840
2027,1723,1904
2100,1757,2000
1901,1779,2043
1911,1743,1923
2034,1691,1812
2000,1743,1862
1862,1787,1973
1904,1756,1975
1936,1702,1857
1972,1677,1781
1997,1779,1878
1901,1774,1953
1891,1680,1785
1919,1676,1775
1935,1793,2002
1935,1791,1978
1958,1683,1803
2071,1687,1738
1994,1803,2027
1871,1767,2015
1841,1616,1648
2002,1726,1744
1965,1836,2071
1927,1798,2011
1926,1715,1815
1983,1760,1859
2034,1798,1889
1939,1762,1877
1877,1680,1676
1971,1792,1909
1923,1847,2079
1897,1806,1968
1955,1740,1798
2025,1786,1856
1945,1782,1865
1941,1762,1814
1919,1751,1809
1965,1819,1935
1927,1851,2029
1925,1809,1939
1969,1748,1767
1984,1798,1839
1954,1858,1962
1950,1824,1928
2021,1770,1808
1991,1809,1856
1915,1865,1965
1918,1821,1919
1983,1763,1786
1995,1801,1858
1961,1854,1971
1937,1835,1936
1972,1763,1786
2002,1814,1840
1926,1872,1971
1935,1839,1919
1957,1776,1794
1968,1818,1876
1929,1869,1920
1981,1829,1856
1989,1764,1789
1939,1818,1859
1897,1886,1959
1915,1840,1895
1971,1773,1745
2055,1824,1842
1989,1867,1872
1863,1837,1892
1880,1776,1775
1931,1821,1806
1922,1875,1917
1921,1839,1856
1961,1786,1728
1970,1814,1872
1913,1856,1919
1951,1812,1872
1953,1764,1716
1941,1806,1794
1911,1872,1936
1898,1815,1840
1968,1750,1648
1927,1811,1763
1883,1851,1881
1934,1818,1837
1946,1757,1697
1931,1787,1791
1913,1848,1905
1916,1825,1863
1927,1753,1740
2015,1798,1741
1911,1872,1911
1849,1833,1854
1904,1773,1715
1941,1808,1777
1910,1865,1923
1888,1821,1809
1930,1771,1712
1936,1814,1776
1889,1851,1895
1899,1829,1835
1934,1783,1745
1926,1825,1765
1913,1876,1879
1872,1837,1822
2016,1770,1676
2069,1843,1808
1802,1885,1875
1730,1866,1854
1807,1801,1769
1863,1846,1787
1828,1904,1857
1808,1872,1834
1823,1808,1747
1813,1840,1802
1804,1919,1876
1803,1877,1805
1843,1826,1733
1847,1869,1779
1813,1925,1846
1840,1891,1872
1872,1822,1676
1828,1872,1777
1770,1941,1946
1792,1907,1878
1841,1859,1743
1838,1892,1745
1801,1915,1837
1890,1885,1753
1968,1859,1735
1872,1922,1777
1674,1958,1904
1762,1933,1821
1818,1851,1741
1834,1903,1853
1803,1974,1943
1796,1935,1841
1840,1876,1721
1838,1929,1797
1814,1981,1889
1813,1927,1821
1812,1872,1712
1862,1931,1796
1818,2003,1917
1798,1971,1871
1823,1901,1741
1846,1929,1766
1826,1984,1880
1809,1957,1855
1854,1919,1744
1918,1943,1760
1859,1982,1890
1790,1945,1875
1822,1906,1776
1893,1936,1808
1868,2007,1859
1791,1984,1841
1803,1919,1763
1839,1963,1825
1811,2005,1894
1863,2000,1855
1899,1931,1750
1879,1953,1792
1810,2032,1919
1808,2004,1897
1852,1937,1741
1938,1957,1793
1851,2026,1917
1834,1984,1851
1805,1927,1737
1914,1966,1786
1840,2029,1861
1887,1999,1855
1881,1925,1783
1946,1959,1819
1874,2064,1953
1860,1997,1883
1889,1935,1772
1827,1978,1818
1812,2046,1920
1830,1990,1872
1919,1927,1740
1911,1975,1825
1872,2036,1934
1840,2001,1875
1925,1936,1745
1969,1989,1877
1937,2045,2480
1873,1991,2326
1815,1936,1878
1856,1966,1739
1878,2032,1776
1873,1983,1830
1899,1920,1840
1905,1961,1834
1927,2032,1831
1886,1968,1825
1908,1905,1830
1907,1946,1828
1872,2000,1830
1887,1959,1829
1952,1902,1830
1949,1939,1830
1890,2000,1825
1885,1971,1827
1936,1904,1829
1903,1943,1831
1904,1991,1833
1911,1943,1829
1927,1879,1831
1953,1923,1831
1888,1985,1837
1918,1947,1833
1975,1872,1829
1984,1902,1829
1865,1951,1833
1875,1919,1830
1872,1858,1840
1890,1888,1831
1936,1938,1833
1881,1884,1837
1953,1837,1830
1951,1875,1914
1909,1936,2027
1837,1872,1965
1879,1804,1829
1932,1854,1872
1877,1899,1978
1849,1844,1904
1904,1775,1771
2000,1841,1837
1875,1889,1946
1886,1806,1887
1872,1757,1780
1886,1802,1846
1831,1851,1933
1867,1808,1871
1856,1733,1750
1872,1781,1797
1844,1840,1887
1831,1769,1803
1850,1710,1694
1834,1719,1740
1794,1766,1824
1788,1716,1762
1820,1654,1642
1813,1693,1713
1695,1735,1793
1738,1679,1686
1701,1575,1532
1755,1600,1563
1685,1679,1695
1642,1619,1633
1709,1535,1519
1665,1614,1584
1535,1675,1729
1639,1626,1664
1712,1570,1532
1683,1591,1554
1675,1660,1686
1643,1629,1606
1727,1571,1489
1665,1589,1872
1586,1641,2160
1572,1584,1942
1599,1499,1825
1599,1518,1776
1585,1597,1809
1613,1535,1875
1680,1535,1840
1648,1601,1831
1562,1671,1785
1561,1632,1858
1713,1587,1765
1699,1645,1796
1674,1712,1825
1678,1701,1835
1709,1649,1834
1718,1683,1833
1712,1744,1829
1703,1711,1825
1742,1674,1826
1737,1724,1837
1712,1795,1836
1722,1754,1813
1727,1728,1830
1836,1787,1833
1686,1862,1837
1753,1839,1827
1823,1806,1829
1879,1870,1830
1792,1941,1831
1845,1936,1834
1907,1904,1832
1936,1951,1835
1943,2015,1827
1961,2000,1744
1995,1961,1655
2032,2001,1729
2016,2079,1876
2034,2069,1859
2077,2015,1757
2096,2058,2224
2039,2096,2129
2065,2073,1863
2203,2053,1777
2166,2106,1805
2058,2128,1830
2069,2096,1834
2175,2069,1831
2174,2112,1831
2067,2149,1830
2096,2115,1829
2129,2064,1835
2121,2096,1833
2070,2128,1831
2067,2096,1828
2096,2064,1826
2101,2070,1834
2117,2096,1831
2096,2066,1829
2036,2017,1829
2096,2058,1831
2047,2099,1831
2022,2063,1831
2080,2011,1831
2092,2047,1831
2055,2094,1833
2029,2053,1826
2077,2010,1831
2055,2027,1834
2030,2073,1830
2032,2038,1827
2075,1955,1824
2083,1964,1831
1994,1991,1819
1967,1936,1687
1981,1872,1588
2000,1871,1648
1966,1887,1753
1981,1871,1708
2039,1840,1622
2035,1887,1685
1975,1936,1841
1955,1901,1792
1990,1836,1657
2061,1879,1739
2047,1938,1863
2006,1891,1815
2074,1856,1680
2113,1885,1755
2063,1938,1936
2032,1904,1869
2047,1854,1707
2069,1914,1792
2034,1934,1905
2009,1868,1847
2047,1808,1712
2096,1856,1746
2035,1862,1900
2015,1874,1859
1988,1808,1683
1994,1834,1743
2042,1899,1917
1962,1860,1840
1974,1799,1725
2039,1867,1790
2010,1929,1920
1967,1889,1863
2000,1834,1739
2081,1899,1834
2096,1947,1935
2011,1904,1909
2031,1848,1761
2058,1877,1820
1978,1953,1968
1927,1911,1890
1955,1863,1767
2030,1927,1892
2016,1962,1993
1954,1908,1882
1967,1872,1779
1989,1918,1858
2011,1968,2001
1975,1941,1917
2035,1911,1808
1961,1968,1915
1891,2000,2036
1882,1959,1967
1985,1929,1905
2021,1995,1966
1947,2032,2081
1890,2010,1981
1938,1968,1891
1985,1964,1819
1925,2015,1811
1894,1986,1822
1887,1958,1831
1922,1975,1835
1890,2005,1830
1877,1977,1827
1917,1908,1830
1926,1947,1830
1903,1983,1829
1904,1907,1829
1885,1893,1825
1859,1918,1831
1840,1938,1830
1840,1931,1825
1853,1874,1831
1854,1872,1831
1827,1909,1831
1791,1856,1829
1820,1830,1829
1854,1863,1835
1829,1895,1831
1807,1855,1829
1798,1807,1829
1811,1840,1835
1802,1899,1835
1776,1855,1828
1821,1807,1829
1857,1835,1834
1780,1874,1833
1754,1844,1833
1829,1791,1835
1837,1831,1818
1739,1903,1837
1685,1863,1721
1723,1797,1587
1760,1837,1659
1712,1888,1821
1665,1865,1771
1684,1809,1600
1714,1846,1678
1700,1883,1827
1669,1840,1764
1743,1808,1639
1727,1851,1711
1679,1873,1851
1623,1824,1744
1663,1808,1598
1703,1840,1727
1699,1882,1841
1667,1845,1767
1687,1799,1660
1712,1828,1726
1729,1876,1840
1771,1844,1742
1695,1805,1618
1679,1819,1694
1664,1863,1858
1627,1843,1799
1665,1801,1662
1701,1839,1710
1667,1872,1827
1633,1831,1750
1743,1785,1630
1842,1828,1677
1681,1904,1861
1578,1867,1801
1614,1818,1657
1762,1830,1703
1663,1871,1858
1605,1810,1799
1696,1757,1611
1857,1845,1691
1648,1879,1861
1563,1845,1850
1647,1790,1675
1680,1810,1605
1679,1886,1821
1661,1904,1842
1649,1810,1647
1739,1806,1682
1712,1847,1821
1629,1822,1781
1687,1824,1680
1723,1850,1776
1691,1936,1867
1659,1899,1781
1712,1782,1661
1767,1835,1653
1773,1842,1791
1642,1914,1877
1594,1750,1696
1719,1842,1708
1697,1818,1679
1727,1890,1664
1708,1889,1791
1700,1885,1863
1742,1908,1943
1687,1828,1744
1621,1745,1491
1731,1809,1597
1755,1959,2032
1673,1899,1947
1591,1769,1530
1887,1893,1639
1777,1935,1984
1489,1808,1698
1774,1866,1701
1839,2015,1782
1723,2034,1968
1706,1968,1862
1783,1949,1701
1778,1978,1699
1789,2089,1851
1701,2016,1840
1664,1961,1741
1719,2047,1686
1760,2131,1882
1681,2111,1918
1725,2080,1782
1766,2126,1778
1683,2103,1851
1710,2098,1763
1779,2081,1706
1749,2134,1829
1680,2142,1893
1769,2097,1799
1775,2047,1717
1725,2096,1833
1707,2126,1921
1695,2074,1808
1755,1990,1604
1786,2108,1798
1725,2091,1943
1718,2062,1822
1766,1974,1633
1745,2009,1851
1704,2142,1958
1696,2061,1872
1714,1909,1676
1778,1966,1740
1792,2010,1893
1706,1983,1856
1741,1984,1734
1766,1997,1809
1707,2023,1816
1724,1985,1823
1728,1923,1742
1728,1969,1829
1709,2000,1917
1730,2000,1831
1726,1935,1719
1730,1927,1822
1739,1969,1926
1706,1933,1808
1776,1914,1695
1788,1930,1776
1759,2001,1934
1659,1940,1869
1703,1886,1765
1774,1900,1763
1830,1964,1885
1777,1967,1856
1689,1888,1740
1682,1915,1808
1685,1939,1930
1712,1960,1870
1755,1834,1717
1861,1793,1717
1797,1931,1872
1659,1874,1855
1746,1981,1744
1888,1920,1805
1791,1911,1962
1647,1914,1905
1665,1879,1760
1735,1888,1785
1744,1925,1917
1725,1883,1856
1751,1839,1711
1797,1890,1770
1826,1898,1825
1763,1892,1855
1712,1851,1840
1739,1872,1870
1765,1905,1926
1775,1863,1843
1776,1818,1744
1838,1879,1831
1763,1894,1941
1679,1827,1827
1759,1822,1675
1845,1840,1776
1801,1886,2014
1729,1771,1903
1746,1840,1710
1818,1861,1755
1791,1901,1962
1744,1841,1949
1756,1789,1773
1790,1840,1802
1750,1894,1933
1729,1794,1846
1794,1829,1712
1840,1846,1797
1791,1856,1946
1723,1873,1885
1783,1807,1773
1828,1859,1828
1789,1908,1926
1793,1840,1879
1747,1806,1761
1782,1841,1811
1757,1851,1910
1785,1792,1838
1843,1779,1779
1815,1814,1807
1724,1924,1931
1739,1825,1889
1787,1776,1755
1821,1830,1823
1805,1853,1910
1822,1804,1810
1829,1750,1701
1814,1810,1823
1722,1847,1952
1717,1808,1911
1759,1691,1774
1805,1827,1776
1821,1844,1905
1796,1762,1854
1795,1758,1722
1792,1820,1826
1738,1827,1962
1737,1776,1888
1785,1743,1750
1815,1778,1796
1809,1866,1917
1840,1808,1861
1834,1696,1732
1802,1848,1776
1749,1841,1922
1723,1837,1886
1744,1728,1683
1823,1792,1840
1817,1860,1994
1788,1791,1873
1830,1715,1675
1824,1779,1813
1776,1840,1967
1765,1799,1892
1830,1754,1747
1825,1801,1838
1776,1839,1934
1776,1777,1850
1850,1758,1760
1841,1802,1856
1822,1825,1945
1808,1794,1861
1778,1761,1774
1801,1790,1826
1814,1840,1980
1823,1797,1905
1866,1758,1731
1808,1802,1842
1767,1833,1945
1763,1819,1862
1797,1776,1761
1830,1801,1835
1819,1856,1967
1794,1821,1893
1845,1783,1762
1864,1792,1824
1830,1820,1946
1803,1806,1899
1800,1758,1775
1831,1799,1841
1879,1849,1956
1840,1803,1901
1812,1732,1719
1834,1769,1772
1815,1851,1945
1781,1837,1909
1802,1753,1759
1841,1776,1823
1765,1839,1940
1745,1808,1905
1814,1774,1798
1840,1787,1819
1857,1822,1918
1879,1799,1889
1799,1754,1754
1813,1791,1789
1829,1841,1923
1795,1808,1895
1815,1776,1808
1840,1808,1840
1789,1840,1940
1778,1808,1917
1810,1760,1734
1845,1783,1781
1861,1838,1919
1788,1799,1885
1856,1766,1760
1931,1821,1827
1807,1858,1968
1735,1799,1904
1801,1760,1765
1861,1802,1797
1882,1844,1937
1815,1820,1904
1791,1774,1744
1822,1783,1786
1810,1838,1940
1808,1823,1897
1831,1781,1803
1856,1811,1831
1901,1854,1924
1870,1821,1872
1776,1770,1713
1818,1805,1808
1840,1842,1984
1851,1804,1856
1872,1786,1780
1840,1822,1856
1808,1872,1952
1828,1826,1875
1842,1766,1744
1849,1793,1808
1831,1850,1946
1820,1837,1921
1902,1793,1766
1898,1808,1769
1861,1840,1886
1808,1831,1883
1779,1779,1763
1839,1819,1859
1839,1869,1986
1813,1831,1906
1839,1789,1763
1881,1834,1791
1876,1872,1970
1829,1819,1904
1840,1782,1789
1872,1814,1846
1840,1863,1966
1821,1829,1916
1858,1779,1753
1892,1795,1749
1845,1849,1935
1811,1843,1968
1811,1775,1808
1859,1803,1817
1869,1874,1936
1837,1840,1906
1831,1765,1747
1887,1835,1821
1859,1877,1971
1776,1838,1941
1812,1783,1791
1872,1819,1803
1871,1879,1968
1830,1837,1878
1875,1808,1793
1867,1826,1828
1829,1874,1963
1803,1841,1898
1824,1789,1776
1843,1807,1821
1853,1869,1954
1855,1840,1907
1869,1791,1776
1895,1834,1833
1846,1883,1947
1805,1838,1885
1836,1800,1778
1881,1840,1855
1848,1875,1963
1808,1839,1912
1855,1797,1773
1917,1840,1824
1881,1869,1945
1807,1827,1897
1843,1783,1755
1875,1826,1808
1829,1871,1967
1808,1849,1892
1839,1788,1729
1905,1853,1866
1904,1879,1982
1822,1841,1904
1863,1789,1758
1922,1819,1782
1879,1885,1951
1829,1857,1913
1838,1798,1817
1886,1831,1836
1846,1861,2003
1809,1861,1904
1847,1826,1806
1906,1856,1822
1863,1893,1957
1808,1853,1947
1872,1802,1803
1956,1855,1884
1898,1898,1957
1797,1839,1871
1863,1794,1729
1921,1858,1817
1844,1918,1936
1815,1856,1885
1831,1801,1777
1893,1823,1851
1840,1890,1936
1843,1875,1872
1861,1810,1776
1895,1830,1791
1857,1883,1957
1839,1887,1919
1872,1806,1776
1897,1833,1840
1851,1886,1918
1829,1856,1942
1856,1818,1797
1932,1865,1866
1909,1872,1923
1823,1856,1906
1822,1810,1785
1898,1825,1774
1909,1872,1938
1821,1878,1935
1842,1830,1801
1905,1827,1790
1875,1872,1920
1808,1840,1906
1856,1804,1792
1920,1858,1822
1893,1900,1935
1827,1851,1934
1840,1811,1794
1872,1840,1840
1872,1899,1909
1911,1886,1910
1866,1813,1799
1882,1863,1838
1870,1903,1967
1838,1847,1887
1878,1797,1745
1918,1869,1856
1886,1904,2005
1825,1855,1946
1855,1838,1809
1911,1873,1838
1885,1902,1987
1889,1867,1933
1953,1834,1745
1923,1872,1856
1854,1910,1979
1847,1886,1927
1872,1831,1742
1889,1861,1813
1934,1904,1911
1859,1889,1946
1867,1841,1809
1904,1878,1874
1861,1917,1925
1882,1872,1903
1906,1822,1808
1924,1874,1822
1877,1919,1950
1871,1890,1934
1872,1844,1775
1936,1861,1825
1900,1919,1962
1815,1874,1930
1881,1821,1767
1932,1886,1826
1882,1917,1963
1863,1911,1938
1868,1867,1794
1918,1887,1805
1931,1936,1955
1887,1906,1972
1888,1855,1833
1897,1900,1823
1917,1922,1938
1853,1881,1858
1857,1846,1814
1899,1868,1847
1878,1926,1951
1903,1909,1843
1909,1842,1786
1931,1890,1776
1893,1949,2000
1861,1906,1920
1925,1833,1743
1904,1885,1829
1853,1920,1965
1887,1900,1927
1923,1858,1796
1931,1887,1819
1856,1927,1936
1888,1908,1942
1894,1841,1822
1953,1900,1846
1936,1937,1994
1862,1899,1904
1889,1855,1825
1914,1875,1793
1895,1938,1981
1877,1891,1940
1897,1833,1778
1931,1872,1851
1919,1920,1940
1839,1873,1903
1867,1839,1804
1939,1877,1821
1939,1933,1931
1885,1914,1889
1902,1857,1766
1943,1858,1791
1919,1931,1935
1835,1893,1920
1866,1842,1758
1914,1887,1915
1872,1916,1937
1856,1892,1951
1914,1839,1811
1947,1872,1790
1907,1919,1926
1872,1909,1920
1911,1856,1802
1910,1879,1837
1930,1927,1952
1887,1891,1885
1872,1840,1766
1899,1890,1882
1883,1927,1965
1873,1903,1827
1890,1835,1720
1909,1863,1801
1903,1933,1958
1885,1911,1929
1923,1845,1803
1942,1879,1814
1893,1917,1920
1904,1901,1872
1906,1861,1783
1897,1875,1812
1872,1923,1965
1848,1893,1931
1934,1841,1776
1951,1893,1825
1931,1935,1986
1846,1907,1931
1856,1839,1797
1905,1858,1783
1940,1924,1955
1867,1920,1946
1872,1865,1808
1947,1892,1861
1901,1909,1910
1905,1883,1792
1917,1858,1782
1903,1883,1872
1872,1927,1994
1840,1904,1933
1856,1837,1749
1943,1877,1791
1954,1938,1945
1883,1894,1850
1905,1872,1759
1920,1883,1840
1895,1934,2001
1849,1904,1950
1881,1854,1798
1959,1891,1823
1921,1915,1930
1890,1890,1833
1929,1867,1750
1923,1885,1834
1867,1911,1973
1835,1886,1914
1888,1840,1793
1933,1895,1815
1904,1937,1901
1942,1906,1893
1927,1857,1766
1888,1869,1817
1867,1936,1943
1857,1904,1899
1847,1820,1743
1936,1865,1791
1936,1934,1963
1887,1891,1882
1925,1845,1723
1872,1884,1805
1923,1925,1981
1829,1902,1929
1858,1837,1747
1940,1849,1789
1918,1935,1911
1902,1902,1898
1910,1854,1787
1937,1889,1809
1869,1935,1936
1805,1892,1863
1871,1838,1755
1950,1886,1824
1895,1923,1947
1843,1886,1920
1879,1829,1769
1922,1872,1810
1907,1934,1953
1984,1925,1881
1895,1851,1770
1901,1879,1810
1838,1904,1915
1925,1877,1855
1933,1842,1746
1921,1888,1807
1877,1937,1977
1818,1884,1920
1940,1840,1763
1936,1875,1808
1906,1921,1935
1847,1908,1929
1891,1839,1744
1911,1861,1783
1901,1933,1953
1886,1919,1904
1968,1840,1751
1901,1858,1801
1890,1910,1936
1898,1894,1893
1920,1837,1775
1939,1883,1822
1899,1925,1915
1833,1905,1878
1878,1850,1778
1953,1886,1824
1889,1917,1942
1895,1885,1886
1949,1849,1754
1933,1874,1779
1913,1910,1945
1814,1899,1931
1860,1840,1751
1885,1872,1797
1913,1921,1930
1879,1904,1920
1853,1847,1778
1875,1865,1776
1922,1927,1905
1938,1888,1900
1872,1831,1769
1936,1850,1812
1921,1920,1947
1878,1893,1886
1914,1840,1742
1936,1861,1796
1891,1906,1946
1839,1904,1901
1863,1829,1723
1978,1846,1744
1914,1907,1963
1827,1886,1935
1866,1847,1775
1905,1855,1795
1882,1914,1930
1840,1905,1894
1908,1846,1756
1929,1872,1802
1892,1929,1946
1870,1902,1899
1846,1854,1776
1987,1871,1790
1930,1918,1915
1869,1899,1895
1891,1833,1758
1965,1847,1792
1805,1925,1915
1791,1898,1918
1952,1868,1795
1820,1873,1782
1867,1921,1933
1855,1898,1922
1906,1841,1754
1942,1882,1794
1888,1931,1936
1856,1895,1903
1899,1839,1767
2010,1872,1787
1939,1923,1931
1813,1897,1905
1837,1855,1782
1876,1869,1808
1898,1936,1937
1891,1902,1887
1917,1850,1734
1927,1874,1772
1877,1911,1923
1840,1871,1877
1961,1837,1748
2046,1871,1793
1775,1929,1937
1803,1916,1927
1899,1849,1777
1904,1897,1811
1856,1926,1935
1898,1873,1867
1964,1842,1697
1862,1847,1767
1805,1909,1949
1855,1907,1968
1952,1852,1790
1949,1872,1801
1895,1923,1926
1849,1897,1890
1835,1835,1749
1899,1866,1786
1904,1947,1962
1951,1887,1902
1858,1811,1718
1951,1872,1776
1904,1941,1947
1856,1879,1922
1917,1840,1766
1968,1879,1804
1920,1958,1967
1889,1900,1881
1917,1821,1730
1936,1893,1805
1847,1932,1933
1856,1888,1910
1901,1841,1765
1949,1872,1798
1882,1925,1909
1936,1911,1921
1963,1860,1811
1923,1851,1758
1957,1906,1899
1890,1891,1897
1868,1856,1776
1807,1872,1791
1989,1923,1920
1895,1904,1903
1815,1846,1779
1878,1859,1803
1903,1927,1943
1910,1909,1920
1861,1835,1767
1909,1840,1778
1933,1914,1921
1916,1903,1915
1894,1852,1681
1919,1877,1785
1898,1887,1987
1881,1902,1955
1843,1866,1770
1888,1870,1799
1887,1895,1905
1866,1892,1895
1907,1843,1806
1935,1858,1733
1905,1923,1862
1855,1887,1934
1887,1840,1799
1930,1841,1798
1948,1920,1907
1850,1871,1872
1894,1840,1744
1905,1885,1813
1902,1935,1921
1898,1866,1887
1903,1831,1755
1850,1819,1760
1879,1920,1939
1920,1915,1945
1872,1852,1783
1897,1872,1804
1935,1924,1927
1957,1883,1859
1901,1824,1783
1891,1859,1845
1913,1929,1917
1863,1899,1879
1867,1858,1734
1895,1847,1803
1893,1923,1936
1915,1913,1936
1884,1825,1766
1962,1868,1767
1965,1920,1923
1871,1907,1934
1841,1840,1776
1901,1858,1827
1872,1913,1951
1843,1918,1897
1890,1855,1751
1942,1859,1785
1943,1907,1954
1850,1907,1918
1929,1850,1744
1923,1883,1808
1893,1905,1923
1821,1878,1873
1894,1830,1756
1889,1885,1826
1856,1950,1940
1879,1903,1922
1952,1858,1786
1964,1883,1809
1920,1912,1936
1810,1879,1835
1866,1862,1808
1934,1898,1867
1888,1904,1963
1873,1866,1911
1923,1856,1747
1915,1881,1754
1890,1937,1963
1874,1904,1961
1879,1838,1783
1920,1877,1818
1923,1918,1925
1837,1888,1915
1877,1840,1729
1945,1837,1782
1904,1921,1969
1873,1929,1965
1861,1850,1785
1916,1869,1809
1945,1923,1899
1911,1908,1887
1836,1841,1801
1883,1856,1835
1886,1920,1949
1884,1890,1974
1879,1853,1807
1936,1872,1770
1890,1933,1920
1854,1906,1910
1867,1838,1793
1934,1877,1834
1899,1916,1922
1856,1907,1921
1923,1831,1766
1941,1851,1815
1853,1931,1947
1844,1896,1948
1872,1838,1802
1926,1866,1758
1931,1897,1879
1904,1894,1919
1883,1840,1814
1857,1860,1825
1851,1913,1934
1871,1891,1872
1941,1829,1776
1934,1873,1821
1904,1947,1942
1869,1920,1921
1868,1809,1712
1953,1845,1797
1873,1911,1995
1851,1903,1951
1872,1851,1765
1886,1854,1760
1867,1893,1902
1849,1888,1887
1883,1856,1827
1943,1872,1865
1902,1904,1881
1939,1890,1854
1899,1840,1813
1854,1859,1851
1887,1904,1968
1895,1887,1894
1869,1840,1744
1877,1850,1773
1919,1914,1930
1877,1885,1918
1875,1863,1795
1898,1870,1791
1855,1893,1910
1867,1882,1936
1886,1840,1780
1983,1853,1793
1934,1908,1904
1857,1872,1917
1856,1847,1818
1906,1865,1839
1895,1915,1938
1821,1882,1878
1915,1838,1739
1969,1845,1786
1874,1917,1969
1803,1889,1923
1856,1834,1790
1917,1869,1810
1943,1893,1913
1968,1869,1870
1870,1879,1801
1852,1883,1814
1837,1890,1929
1817,1853,1914
1898,1815,1744
1968,1834,1760
1846,1935,1962
1802,1904,1957
1890,1830,1790
1945,1840,1763
1899,1939,1937
1904,1845,1920
1851,1840,1803
1875,1845,1821
1902,1879,1935
1862,1906,1872
1855,1903,1776
1894,1866,1823
1882,1898,1971
1854,1889,1907
1920,1876,1755
1905,1874,1808
1857,1875,1932
1880,1886,1904
1893,1888,1799
1872,1857,1771
1846,1904,1932
1840,1844,1923
1891,1835,1758
1945,1854,1807
1873,1907,1938
1829,1900,1906
1850,1833,1749
1923,1828,1773
1842,1947,1938
1825,1874,1879
1883,1840,1799
1970,1872,1822
1906,1934,1909
1778,1907,1894
1808,1808,1767
1917,1921,1815
1903,1931,1927
1874,1888,1897
1905,1855,1729
1842,1831,1776
1815,1896,1934
1886,1846,1911
1899,1857,1767
1917,1862,1800
1851,1936,1947
1808,1896,1931
1849,1818,1747
1941,1801,1731
1895,1908,1933
1807,1883,1956
1843,1825,1789
1919,1861,1791
1875,1911,1907
1838,1866,1901
1858,1814,1776
1932,1837,1776
1872,1893,1933
1834,1887,1936
1819,1839,1713
1897,1861,1746
1975,1921,1895
1865,1894,1919
1827,1808,1785
1888,1830,1776
1936,1923,1909
1843,1899,1931
1838,1834,1812
1887,1871,1791
1888,1919,1909
1867,1889,1901
1885,1838,1797
1879,1835,1764
1915,1892,1919
1858,1887,1929
1829,1846,1826
1863,1856,1782
1865,1904,1869
1840,1894,1904
1857,1810,1787
1905,1829,1779
1918,1922,1886
1897,1890,1885
1878,1777,1749
1847,1852,1765
1878,1935,1938
1856,1879,1937
1897,1799,1756
1907,1859,1802
1837,1931,1965
1799,1865,1904
1843,1805,1763
1887,1839,1776
1887,1914,1915
1851,1875,1887
1873,1829,1787
1918,1872,1807
1857,1916,1931
1839,1883,1895
1871,1840,1779
1887,1839,1776
1884,1907,1855
1851,1863,1883
1926,1871,1745
1906,1823,1808
1838,1873,1982
1814,1901,1936
1840,1809,1744
1961,1840,1780
1930,1900,1930
1801,1904,1935
1839,1858,1787
