1856,1985,1535
1958,1950,1583
1919,1955,1749
1846,1995,1901
1865,1988,1827
1998,1934,1660
1957,1983,1766
1881,2023,1913
1851,1999,1833
1877,1962,1723
1936,1983,1791
1901,2030,1895
1909,1999,1830
1968,1965,1711
1951,1985,2001
1893,2010,2717
1862,1985,2201
1921,1962,1671
1965,1968,1642
1982,2014,1798
1920,1977,1809
1929,1940,1728
1915,1982,1808
1907,2028,1961
1956,1998,1854
1955,1951,1685
1951,1985,1770
1954,2023,1872
1911,2005,1851
1968,1942,1712
1983,1995,1751
1946,2021,1861
1883,1990,1806
1936,1938,1711
2029,1971,1762
1967,2018,1858
1920,2000,1821
1991,1968,1737
1954,1981,1773
1936,2004,1872
1919,1994,1820
1961,1957,1746
1982,1978,1759
1905,2032,1901
1904,2006,1838
1981,1938,1714
2019,1955,1771
1949,2006,1877
1931,1982,1815
1994,1941,1751
2003,1985,1776
1966,2014,1847
1969,1962,1830
2017,1929,1718
2071,1941,1773
1933,1981,1872
1871,1947,1828
1935,1925,1740
2000,1975,1779
1991,2013,1887
1956,1967,1847
1987,1966,1750
2041,1963,1802
2022,2029,1909
1945,1993,1803
1982,1936,1725
2084,1945,1789
2033,2018,1899
1890,1936,1838
1936,1930,1710
2015,1975,1797
1942,2032,1929
1967,1984,1890
2009,1931,1759
2039,1967,1801
1968,1985,1904
1968,1982,1872
2013,1920,1741
2061,1946,1787
1970,1998,1915
1989,2003,1859
2065,1923,1731
2022,1958,1808
1934,2027,1930
1937,1991,1877
2000,1946,1723
2000,1974,1775
1984,2006,1926
1982,1984,1887
2015,1956,1754
2046,1981,1801
1995,2015,1922
1995,1984,1902
2045,1929,1750
2022,1968,1791
1999,1972,1922
2030,1990,1840
2085,1897,1751
1982,1947,1806
1930,2024,1909
1923,1992,1875
1989,1870,1739
2047,1936,1794
2032,2026,1936
2000,1962,1899
2031,1958,1767
2059,1989,1830
1966,1956,1959
1935,1962,1857
1995,1914,1741
2040,1936,1827
2064,2012,1911
2035,1962,1853
2000,1969,1808
2064,2016,1843
2011,2011,1924
1968,1893,1904
2005,1904,1771
2022,1975,1813
1988,1991,1936
2002,1965,1870
2088,1917,1745
2069,1968,1822
1962,2015,1946
1942,1969,1898
2019,1929,1771
2063,1964,1847
2032,1999,1964
2013,1942,1846
2047,1917,1761
2071,1965,1835
2000,1963,1949
1930,1936,1883
2091,1946,1759
2142,1965,1818
2002,2000,1953
1904,1826,1869
2009,1919,1789
2047,1945,1852
1994,1967,1930
1961,1961,1856
2055,1827,1774
2091,1943,1850
2016,2020,1947
1968,1939,1875
2058,1904,1777
2066,1963,1840
2072,2007,1945
2011,1966,1859
1962,1902,1797
2032,1958,1872
2010,1957,1968
1991,1968,1859
2007,1936,1771
2069,1926,1839
1994,1978,1940
1986,1986,1846
2016,1904,1767
2031,1917,1885
1993,1890,1951
2004,1910,1872
2021,1839,1791
2064,1951,1840
2119,1971,1882
2079,1966,1841
1997,1958,1803
1967,1907,1856
1965,1942,1934
1983,1903,1883
2044,1919,1808
2024,1914,1835
1984,1934,1913
1959,1914,1872
2031,1917,1759
2021,1937,1808
1963,1967,1946
1979,1935,1890
2073,1885,1736
2106,1910,1797
2064,1973,1942
1973,1927,1930
1973,1903,1785
1952,1926,1866
1943,1951,1972
1955,1933,1897
2019,1895,1805
2095,1947,1843
2046,1978,1936
1968,1968,1874
2023,1879,1791
2032,1921,1852
1995,1967,1943
2013,1906,1918
2029,1883,1869
2022,1934,1870
2002,1973,1918
2015,1920,1869
2117,1879,1770
2034,1930,1844
1933,1994,1984
1915,1934,1911
2006,1892,1787
2075,1935,1862
2047,1973,1913
2000,1903,1876
2029,1872,1808
2074,1936,1904
1980,1962,2001
1920,1923,1902
1971,1902,1779
2087,1908,1843
2047,1943,1975
1965,1937,1950
1994,1878,1786
2007,1920,1850
1955,1947,1968
1964,1905,1919
2113,1870,1765
2128,1955,1785
2014,1964,1973
1941,1930,1968
1957,1879,1842
1984,1915,1873
2021,1942,1947
2074,1920,1886
2006,1872,1808
1969,1895,1878
1965,1959,1962
1973,1939,1913
2044,1902,1785
2059,1909,1843
1987,1926,1936
1939,1899,1905
1957,1867,1799
2032,1901,1854
2043,1942,1925
1963,1914,1904
1987,1878,1792
2082,1929,1871
2112,1980,1971
1935,1904,1885
1904,1849,1759
1990,1909,1856
2029,1961,1943
2002,1909,1855
1969,1853,1780
2006,1879,1865
1969,1970,1939
1955,1929,1872
2003,1861,1762
2002,1902,1846
1970,1937,1965
1984,1888,1851
2021,1861,1763
1998,1895,1856
1973,1923,1983
1911,1902,1893
1961,1877,1783
2007,1923,1840
2029,1951,1931
1984,1897,1833
1949,1841,1759
1991,1904,1858
1947,1936,1938
1969,1890,1856
2029,1843,1781
2000,1901,1863
1921,1929,1958
1924,1904,1885
1985,1879,1771
2005,1915,1827
1994,1938,1904
1985,1904,1872
1989,1862,1796
1988,1903,1860
1936,1937,1955
1947,1890,1872
2014,1835,1763
2003,1900,1855
1941,1936,1955
1953,1872,1860
1978,1847,1750
1959,1904,1826
1931,1943,1962
1937,1902,1891
1965,1851,1801
1970,1888,1845
1961,1939,1931
1967,1904,1873
2039,1871,1795
2064,1877,1824
1943,1921,1905
1859,1885,1884
1920,1850,1797
1993,1909,1863
1998,1929,1926
1959,1887,1869
2055,1862,1765
1973,1889,1844
1889,1931,1943
1872,1905,1871
1967,1865,1776
2023,1901,1838
1968,1936,1930
1911,1883,1854
1945,1846,1776
1997,1906,1891
1938,1947,1973
1921,1888,1847
1956,1833,1749
1978,1865,1814
1957,1937,1951
1923,1904,1875
1984,1844,1741
1993,1890,1815
1930,1931,1968
1903,1897,1902
1939,1853,1732
1969,1900,1819
1975,1920,1941
2083,1879,1846
1984,1840,1776
1898,1872,1874
1947,1943,1979
1943,1898,1898
1942,1830,1749
1933,1879,1842
1923,1911,1958
1905,1867,1876
1945,1839,1776
1954,1884,1802
1925,1936,1926
1921,1881,1876
1941,1845,1775
1997,1895,1875
1997,1940,1941
1958,1877,1789
1936,1823,1733
1934,1886,1866
1905,1931,1968
1921,1885,1851
1919,1838,1765
1940,1876,1826
1962,1930,1917
1985,1877,1822
2002,1821,1751
1908,1858,1895
1821,1916,1979
1898,1905,1847
2009,1855,1724
1941,1868,1847
1873,1904,1939
1877,1871,1881
1925,1841,1770
1947,1894,1839
1937,1921,1933
1949,1867,1866
2034,1857,1770
2000,1872,1791
1934,1904,1892
1975,1875,1846
1869,1841,1760
1871,1871,1871
1863,1910,1996
1877,1865,1917
1967,1827,1792
1973,1872,1849
1949,1926,1938
1982,1858,1862
2000,1808,1788
1900,1869,1850
1837,1920,1879
1841,1856,1813
1959,1834,1773
1943,1872,1871
1909,1903,1947
1906,1862,1904
1920,1841,1786
1979,1876,1808
1886,1915,1936
1918,1853,1824
1920,1813,1757
1959,1875,1840
1950,1920,1933
1891,1874,1894
1880,1827,1776
1875,1845,1803
1895,1898,1926
1913,1866,1894
1952,1852,1705
2025,1886,1807
1842,1918,1936
1817,1867,1894
1894,1837,1791
1918,1869,1780
1920,1911,1923
1915,1871,1815
1947,1823,1765
1932,1871,1855
1911,1904,1883
1913,1865,1854
1947,1829,1793
1899,1875,1873
1846,1909,1998
1904,1841,1846
2031,1841,1716
1919,1879,1831
1812,1905,1987
1838,1855,1847
1917,1831,1765
1959,1859,1823
1911,1906,1938
1887,1867,1840
1953,1825,1727
1963,1853,1814
1878,1903,1958
1838,1850,1871
1915,1823,1757
1940,1882,1841
1883,1936,1973
1889,1851,1875
1963,1806,1701
1963,1872,1835
1898,1907,1954
1894,1875,1840
1854,1823,1747
1871,1857,1874
1866,1889,1927
1885,1861,1880
1932,1847,1801
1936,1875,1850
1883,1887,1894
1881,1854,1815
1910,1826,1779
1921,1873,1861
1907,1885,1955
1887,1858,1823
1903,1837,1755
1941,1892,1846
1934,1910,1937
1887,1858,1844
1927,1818,1735
1933,1859,1872
1893,1917,1962
1873,1869,1886
1881,1809,1761
1903,1862,1838
1916,1915,1912
1917,1855,1861
1890,1818,1744
1866,1884,1795
1845,1907,1926
1863,1861,1862
1914,1830,1757
1943,1871,1810
1931,1915,1920
1937,1873,1841
1885,1797,1739
1878,1872,1841
1863,1906,1933
1855,1869,1859
1904,1822,1772
1907,1872,1843
1847,1917,1904
1857,1863,1867
1941,1820,1783
1921,1869,1851
1878,1878,1914
1854,1856,1851
1926,1833,1787
1934,1887,1853
1875,1907,1901
1881,1872,1786
1903,1840,1823
1939,1889,1814
1879,1910,1947
1831,1871,1859
1879,1831,1761
1917,1890,1801
1861,1924,1936
1890,1879,1866
1904,1810,1777
1892,1863,1886
1843,1925,1930
1839,1872,1839
1928,1837,1801
1949,1887,1842
1914,1889,1863
1889,1863,1842
1872,1839,1783
1867,1894,1859
1872,1904,1903
1807,1858,1850
1861,1830,1770
1919,1869,1846
1902,1905,1894
1885,1873,1869
1887,1845,1761
1873,1891,1845
1840,1898,1935
1841,1849,1857
1906,1814,1807
1926,1857,1881
1861,1887,1924
1915,1862,1827
1957,1858,1783
1854,1892,1889
1761,1929,1954
1797,1858,1838
1874,1808,1730
1883,1841,1840
1840,1910,1973
1872,1867,1868
1911,1828,1767
1916,1886,1813
1905,1919,1926
1850,1861,1863
1841,1825,1757
1895,1856,1814
1858,1901,1931
1856,1862,1856
1913,1830,1762
1887,1894,1830
1872,1936,1958
1865,1869,1826
1856,1806,1731
1858,1863,1830
1868,1910,1929
1887,1873,1842
1979,1842,1764
1929,1903,1858
1789,1901,1926
1805,1856,1843
1914,1831,1733
1901,1884,1851
1857,1900,1931
1866,1888,1859
1918,1858,1783
1879,1889,1835
1827,1895,1925
1841,1872,1881
1933,1854,1781
2017,1872,1807
1931,1861,1919
1759,1859,1873
1795,1841,1775
1881,1899,1859
1875,1921,1903
1846,1868,1838
1909,1830,1771
1916,1888,1840
1840,1926,1939
1814,1888,1901
1885,1840,1795
1883,1881,1861
1856,1883,1914
1924,1875,1854
1966,1859,1757
1849,1877,1828
1744,1919,1936
1867,1861,1847
1968,1813,1756
1888,1876,1855
1888,1923,1954
1776,1869,1854
1872,1839,1771
1934,1889,1859
1850,1920,1947
1844,1871,1859
1860,1840,1776
1908,1887,1845
1855,1927,1925
1872,1861,1840
1875,1808,1752
1860,1889,1867
1826,1935,1937
1847,1872,1857
1933,1835,1770
1942,1866,1845
1774,1914,1942
1797,1872,1857
1942,1823,1737
1884,1875,1840
1861,1906,1904
1826,1861,1859
1860,1824,1786
1909,1872,1844
1853,1919,1940
1829,1874,1869
1923,1840,1770
1912,1861,1807
1791,1894,1904
1785,1855,1843
1872,1834,1761
1870,1874,1851
1838,1913,1936
1840,1863,1849
1877,1835,1759
1886,1885,1847
1847,1913,1936
1847,1859,1846
1874,1819,1754
1851,1871,1847
1836,1919,1939
1809,1862,1841
1915,1823,1762
1857,1872,1841
1790,1904,1921
1813,1866,1846
1933,1839,1776
1840,1877,1853
1853,1904,1936
1801,1855,1856
1854,1826,1763
1873,1878,1842
1809,1918,1936
1854,1869,1866
1902,1825,1775
1872,1859,1847
1838,1899,1936
1835,1854,1856
1906,1814,1775
1853,1858,1853
1855,1886,1939
1819,1836,1859
1935,1803,1750
1889,1847,1840
1839,1878,1938
1825,1826,1857
1869,1789,1766
1870,1834,1835
1823,1866,1923
1810,1818,1842
1863,1781,1753
1870,1828,1831
1832,1852,1915
1817,1794,1827
1856,1767,1754
1825,1815,1850
1851,1847,1935
1838,1805,1840
1818,1771,1743
1862,1811,1826
1808,1842,1914
1820,1799,1845
1873,1773,1748
1919,1821,1830
1852,1854,1908
1874,1807,1831
1918,1781,1744
1873,1837,1825
1821,1871,1909
1817,1813,1823
1860,1781,1731
1863,1856,1814
1817,1895,1905
1808,1846,1824
1861,1818,1735
1871,1872,1822
1833,1904,1904
1823,1850,1819
1857,1798,1742
1920,1863,1841
1808,1936,1916
1823,1895,1818
1840,1853,1728
1891,1892,1822
1893,1936,1909
1887,1903,1827
1867,1870,1737
1868,1921,1809
1856,1967,1911
1829,1921,1829
1878,1898,1724
1934,1947,1820
1819,1997,1915
1823,1968,1833
1851,1931,1739
1891,1974,1837
1849,2037,1919
1837,1996,1825
1884,1967,1739
1904,2030,1815
1854,2083,1905
1899,2033,1834
1883,2013,1746
1891,2078,1829
1851,2117,1910
1853,2079,1825
1918,2061,1739
1899,2114,1832
1856,2183,1918
1840,2181,1826
1886,2198,1734
1889,2299,1821
1853,2363,1904
1871,2345,1819
1893,2334,1733
1894,2405,1814
1847,2454,1905
1834,2419,1823
1873,2401,1730
1856,2459,1824
1840,2498,1905
1824,2454,1818
1911,2422,1728
1919,2489,1813
1842,2529,1910
1845,2469,1821
1904,2437,1738
1943,2496,1827
1912,2518,1902
1843,2475,1814
1886,2443,1745
1883,2496,1837
1853,2525,1905
1851,2477,1823
1881,2437,1746
1889,2479,1828
1856,2502,1906
1843,2463,1826
1882,2426,1743
1891,2470,1827
1850,2502,1910
1844,2435,1822
1882,2397,1733
1887,2448,1822
1845,2480,1914
1840,2423,1822
1877,2379,1743
1889,2425,1834
1855,2458,1923
1842,2399,1839
1888,2362,1744
1889,2400,1823
1850,2431,1917
1843,2369,1838
1886,2330,1746
1899,2382,1831
1856,2415,1910
1855,2349,1839
1903,2307,1757
1907,2352,1829
1856,2383,1915
1840,2318,1829
1887,2278,1753
1892,2325,1839
1849,2355,1914
1843,2299,1827
1894,2257,1750
1902,2295,1844
1855,2330,1923
1838,2269,1830
1883,2227,1741
1902,2278,1838
1859,2300,1923
1843,2239,1841
1888,2187,1747
1893,2234,1847
1854,2261,1934
1854,2209,1846
1898,2160,1751
1905,2209,1840
1857,2225,1930
1847,2164,1837
1883,2121,1761
1892,2177,1845
1853,2207,1935
1852,2144,1847
1895,2103,1761
1902,2147,1842
1858,2172,1920
1856,2112,1840
1901,2070,1758
1909,2115,1843
1898,2155,1933
1921,2098,1836
1922,2029,1705
1883,2074,1827
1942,2094,1893
1851,2061,1830
1790,2030,1807
1840,2073,1875
1872,2086,1929
1892,2034,1835
1904,1999,1739
1983,2047,1823
1922,2032,1930
1817,1984,1886
1844,1957,1746
1873,2025,1822
1813,2034,1885
1842,1988,1840
1921,1961,1792
1922,1975,1871
1885,2030,1906
1958,1977,1799
1920,1922,1809
1979,2004,1948
1847,2000,1970
1843,1949,1837
1869,1898,1744
1888,1966,1930
1854,1991,2027
1882,1906,1881
1907,1857,1779
1893,1929,1846
1857,1941,1947
1920,1877,1904
1926,1869,1797
1912,1904,1907
1931,1917,1995
1986,1824,1839
1946,1830,1776
1866,1885,1905
1857,1883,1958
1915,1823,1878
1931,1797,1835
1891,1840,1968
1878,1865,2027
1941,1808,1879
1968,1729,1686
1981,1783,1872
1898,1825,1977
1872,1808,1945
1919,1745,1808
1946,1777,1809
1846,1776,1987
1872,1735,1961
1916,1682,1837
1933,1750,1904
1950,1774,1979
1936,1715,1839
1927,1632,1723
1954,1709,1850
1840,1754,2016
1812,1685,1907
1939,1631,1766
1967,1648,1829
1879,1680,1979
1837,1662,1883
1872,1615,1814
1936,1648,1878
1920,1665,1890
1905,1618,1840
1993,1636,1859
1922,1625,1874
1850,1649,1981
1867,1609,1856
1893,1531,1740
1872,1607,1892
1872,1643,1955
1924,1608,1879
1953,1578,1778
1872,1597,1863
1833,1623,1963
1853,1535,1823
1886,1486,1775
1943,1565,1860
1938,1579,1981
1894,1506,1827
1845,1456,1813
1897,1522,1900
1846,1469,1967
1858,1351,1824
1931,1321,1760
1937,1359,1872
1888,1327,1927
1872,1230,1805
1935,1199,1792
1893,1238,1914
1798,1263,1968
1834,1104,1866
1901,1119,1761
1907,1127,1826
1868,1141,1927
1851,1069,1875
1878,1018,1808
1897,1097,1870
1885,1120,1923
1930,1043,1852
1885,1044,1777
1871,1074,1843
1856,1063,1909
1863,1072,1838
1859,1015,1783
1903,1086,1887
1855,1109,1955
1793,1068,1855
1894,1050,1781
1923,1062,1841
1829,1090,1945
1791,1044,1837
1879,1019,1728
1890,1088,1856
1872,1102,1965
1875,1104,1841
1906,1039,1728
1899,1088,1853
1840,1104,1936
1869,1099,1809
1840,1010,1764
1877,1059,1904
1828,1109,1951
1830,1115,1854
1889,1088,1763
1906,1104,1841
1839,1146,1910
1779,1113,1854
1889,1087,1789
1899,1181,1840
1792,1212,1917
1871,1155,1811
1843,1120,1793
1813,1204,1891
1806,1251,1917
1867,1195,1839
1901,1169,1759
1861,1204,1813
1791,1248,1963
1821,1255,1882
1926,1162,1747
1855,1274,1799
1781,1322,1889
1785,1233,1792
1899,1200,1709
1840,1294,1854
1766,1391,1949
1840,1287,1799
1934,1258,1744
1775,1365,1905
1741,1395,1943
1851,1339,1785
1893,1306,1632
1794,1373,1852
1765,1376,1996
1808,1369,1872
1828,1342,1744
1870,1375,1858
1807,1520,1943
1811,1505,1863
1947,1424,1755
1878,1430,1792
1838,1447,1882
1824,1413,1840
1851,1407,1729
1774,1487,1857
1773,1511,1921
1826,1461,1834
1852,1459,1742
1856,1480,1847
1866,1573,1892
1808,1489,1809
1877,1457,1744
1837,1616,1843
1767,1583,1901
1772,1462,1776
1889,1521,1783
1852,1583,1901
1776,1586,1930
1774,1535,1799
1827,1519,1728
1927,1472,1854
1865,1648,1931
1746,1582,1840
1775,1535,1735
1869,1617,1872
1907,1683,1921
1859,1596,1826
1781,1563,1745
1817,1639,1837
1923,1657,1914
1808,1633,1829
1746,1595,1765
1774,1621,1843
1803,1717,1932
1892,1664,1834
1842,1616,1777
1777,1659,1839
1753,1680,1888
1844,1683,1816
1936,1646,1723
1830,1683,1840
1797,1758,1975
1815,1594,1813
1843,1644,1728
1794,1673,1855
1745,1819,1951
1817,1693,1840
1878,1659,1742
1841,1701,1855
1746,1722,1921
1767,1728,1808
1840,1714,1771
1855,1783,1842
1829,1712,1890
1885,1728,1806
1872,1739,1744
1748,1808,1885
1754,1875,1964
1790,1777,1866
1813,1712,1761
1899,1791,1837
1809,1828,1911
1786,1777,1820
1853,1776,1737
1802,1801,1834
1754,1840,1922
1847,1801,1834
1871,1764,1765
1878,1820,1845
1764,1857,1917
1734,1807,1840
1804,1815,1776
1813,1829,1867
1853,1895,1957
1815,1802,1836
1830,1823,1714
1809,1843,1862
1744,1897,1924
1780,1834,1845
1840,1807,1759
1843,1841,1847
1791,1907,1918
1792,1893,1866
1815,1729,1737
1814,1887,1819
1831,1902,1898
1819,1860,1826
1840,1886,1805
1802,1915,1879
1770,1923,1956
1856,1884,1834
1851,1847,1745
1809,1902,1871
1751,1943,1958
1809,1887,1847
1869,1855,1744
1835,1904,1872
1747,1919,1906
1779,1911,1850
1810,1889,1785
1804,1927,1857
1804,1952,1948
1842,1904,1827
1955,1885,1739
1908,1935,1875
1695,1947,1931
1696,1914,1834
1808,1889,1769
1842,1956,1878
1818,1968,1936
1847,1922,1840
1830,1904,1779
1840,1966,1872
1750,1967,1953
1754,1934,1855
1856,1926,1781
1872,1968,1847
1823,1979,1903
1795,1920,1840
1802,1907,1771
1807,1961,1861
1791,2002,1968
1791,1958,1840
1840,1927,1790
1882,1955,1860
1898,1993,1932
1847,1930,1834
1765,1930,1789
1743,1963,1878
1749,1973,1925
1837,1919,1837
1853,1925,1778
1872,1999,1895
1803,2015,1933
1758,1938,1827
1808,1903,1782
1809,1969,1873
1793,2002,1950
1834,1961,1845
1862,1923,1778
1832,1983,1853
1744,2005,1933
1756,1941,1815
1843,1902,1731
1856,2000,1911
1782,2026,2003
1773,1953,1850
1822,1908,1765
1854,1980,1871
1827,2004,1926
1831,1945,1840
1867,1936,1803
1865,2000,1907
1809,2011,1983
1808,1935,1867
1830,1918,1750
1860,1995,1853
1830,2019,1941
1797,1959,1858
1767,1925,1809
1792,1990,1923
1836,2006,1958
1812,1968,1851
1834,1942,1793
1840,2011,1906
1826,2001,1950
1934,1968,1860
1905,1924,1782
1774,1999,1885
1744,2026,1954
1791,1958,1865
1855,1930,1789
1904,1984,1896
1870,1998,1940
1843,1965,1855
1881,1946,1801
1845,1974,1918
1739,2003,2000
1764,1959,1893
1845,1962,1779
1852,1983,1856
1830,2007,1949
1867,1968,1881
1936,1920,1781
1894,1981,1888
1790,2011,1959
1727,1951,1872
1808,1931,1804
1861,1951,1899
1898,2032,1991
1840,1986,1859
1799,1959,1810
1796,1984,1886
1777,2002,1939
1813,1968,1903
1853,1934,1840
1841,1968,1914
1798,2007,1960
1841,1968,1857
1904,1932,1788
1872,1977,1899
1785,1991,1966
1792,1939,1865
1849,1916,1814
1964,1986,1849
1807,2004,1949
1730,1939,1904
1797,1925,1847
1823,1987,1905
1830,2025,1951
1841,1952,1862
1872,1918,1775
1924,1993,1898
1817,1983,1993
1786,1947,1897
1835,1936,1815
1852,1967,1917
1840,1977,1971
1840,1957,1902
1872,1930,1823
1871,1968,1910
1833,1972,1962
1859,1919,1869
1832,1913,1827
1823,1967,1929
1780,1984,1987
1808,1934,1903
1865,1917,1811
1871,1982,1905
1817,1990,1936
1839,1929,1859
1902,1904,1811
1902,1979,1957
1839,1967,2013
1781,1907,1870
1891,1914,1805
1909,1949,1918
1819,1983,1967
1799,1921,1878
1870,1892,1824
1861,1963,1938
1814,1978,1975
1814,1926,1856
1872,1910,1813
1884,1962,1939
1845,1968,1963
1824,1904,1837
1905,1899,1766
1909,1939,1935
1777,1963,2018
1759,1909,1900
1887,1894,1840
1899,1957,1904
1829,1979,2000
1837,1921,1873
1872,1918,1780
1881,1943,1921
1845,1938,1942
1822,1907,1907
1857,1901,1827
1884,1943,1925
1856,1962,1962
1851,1908,1875
1890,1882,1834
1887,1969,1904
1808,1980,1982
1749,1887,1889
1827,1871,1788
1904,1949,1931
1909,1970,1978
1893,1903,1861
1833,1899,1827
1810,1945,1955
1827,1963,1990
1828,1911,1889
1874,1903,1808
1905,1968,1933
1840,1986,2005
1866,1904,1938
1929,1902,1825
1910,1933,1918
1835,1946,1961
1807,1889,1876
1851,1879,1823
1874,1937,1887
1890,1952,1946
1945,1911,1842
1922,1885,1845
1817,1937,1955
1792,1951,1998
1818,1893,1897
1872,1889,1851
1887,1958,1904
1840,1965,1979
1874,1920,1933
2001,1881,1819
1903,1918,1915
1819,1940,2007
1852,1904,1904
1888,1885,1797
1884,1937,1899
1874,1951,1986
1860,1906,1871
1917,1899,1813
1909,1939,1860
1860,1960,1995
1877,1904,1909
1867,1865,1801
1894,1927,1897
1867,1968,2003
1883,1915,1916
1909,1859,1840
1861,1906,1904
1833,1958,1936
1862,1907,1870
1915,1883,1806
1906,1936,1903
1861,1966,1919
1862,1887,1857
1877,1882,1790
1840,1938,1914
1824,1946,1999
1894,1898,1875
1927,1879,1801
1966,1944,1889
1919,1967,1983
1795,1872,1874
1821,1861,1808
1920,1929,1875
1897,1934,1983
1847,1893,1825
1858,1867,1799
1901,1941,1927
1908,1952,1927
1887,1885,1862
1873,1857,1782
1881,1936,1872
1848,1936,1923
1857,1866,1866
1909,1858,1840
1917,1936,1921
1886,1939,1967
1854,1876,1866
1882,1885,1807
1918,1935,1903
1840,1953,1969
1829,1867,1850
1920,1865,1794
1923,1920,1889
1890,1922,1886
1929,1843,1825
1964,1867,1795
1840,1891,1862
1789,1917,1979
1838,1870,1897
2006,1861,1861
1936,1934,1919
1837,1935,1977
1872,1879,1808
1902,1885,1884
1872,1917,1968
1824,1910,1942
1840,1846,1800
1978,1853,1801
1984,1917,1891
1840,1934,1963
1841,1886,1898
1952,1857,1761
1906,1919,1843
1899,1930,1952
1990,1877,1860
1889,1852,1873
1857,1897,1871
1842,1909,1913
1858,1872,1873
1904,1863,1810
1885,1913,1885
1877,1907,1936
1897,1886,1849
2023,1887,1787
1933,1914,1889
1936,1911,1952
1925,1861,1822
1842,1849,1825
1858,1904,1869
1850,1904,1984
1899,1883,1865
1984,1874,1850
1904,1912,1897
1872,1907,1968
1919,1877,1824
1927,1853,1746
1921,1887,1882
2007,1889,1947
1943,1867,1890
1915,1859,1813
1849,1897,1851
1813,1921,1957
1855,1865,1818
1968,1831,1750
1957,1904,1882
1891,1926,1853
1899,1888,1855
1942,1854,1785
1926,1907,1856
1889,1918,1925
1910,1872,1817
2042,1839,1745
1971,1899,1902
1801,1921,1941
1797,1870,1825
1878,1825,1743
1953,1898,1870
1936,1911,1926
1930,1846,1840
1945,1859,1772
1905,1915,1857
1920,1921,1929
1921,1872,1853
1897,1861,1833
1890,1917,1895
1951,1927,1901
1939,1871,1769
1884,1859,1761
1854,1920,1873
1815,1914,1923
1883,1878,1808
1963,1845,1759
1936,1873,1910
1894,1936,1907
1910,1885,1840
1971,1856,1727
1934,1890,1850
1841,1911,1941
1835,1867,1854
1894,1856,1734
1883,1904,1837
1915,1919,1931
1938,1840,1871
2009,1866,1766
1982,1938,1853
1808,1920,1887
1856,1870,1807
1859,1840,1744
1872,1911,1895
1969,1931,1923
1934,1863,1775
1879,1844,1744
1855,1920,1841
1895,1935,1957
1907,1871,1835
1887,1815,1777
1904,1899,1890
1984,1941,1881
1879,1894,1790
1853,1858,1771
1872,1893,1821
1941,1902,1904
1970,1858,1757
1899,1795,1703
1826,1873,1897
1865,1952,1930
1840,1891,1805
1983,1843,1757
1919,1891,1846
1838,1904,1934
1867,1877,1803
1854,1845,1655
1933,1872,1781
1904,1879,1940
1851,1866,1898
1938,1858,1718
2007,1900,1835
1920,1904,1857
1871,1837,1795
1890,1842,1767
1953,1950,1879
1902,1931,1883
1840,1795,1741
1991,1803,1743
1885,1906,1890
1840,1911,1909
1820,1851,1828
1876,1833,1750
1847,1863,1813
1791,1888,1839
1853,1817,1761
1840,1811,1808
1855,1867,1904
1776,1904,1890
1813,1840,1780
1859,1810,1715
1890,1877,1833
1873,1885,1918
1806,1819,1799
1839,1797,1628
1793,1873,1791
1876,1871,1983
1777,1824,1824
1840,1813,1831
1875,1872,1888
1776,1871,1911
1762,1825,1760
1825,1831,1707
1806,1840,1844
1906,1821,1899
1843,1767,1717
1830,1810,1756
1845,1905,1890
1855,1897,1910
1787,1824,1831
1863,1808,1729
1867,1888,1776
1798,1885,1858
1829,1821,1824
1817,1792,1767
1791,1840,1790
1789,1856,1872
1861,1826,1787
1909,1821,1767
1847,1861,1833
1789,1856,1940
1829,1808,1794
1904,1798,1707
1929,1890,1843
1808,1881,1897
1850,1837,1795
1863,1803,1738
1834,1862,1845
1807,1889,1935
1843,1859,1807
1837,1821,1704
1847,1840,1811
1786,1900,1906
1819,1840,1759
1918,1781,1727
1847,1894,1899
1813,1886,1905
1831,1826,1791
1867,1809,1757
1852,1898,1855
1821,1888,1899
1937,1836,1786
1983,1810,1719
1824,1870,1811
1754,1901,1877
1840,1830,1781
1826,1813,1755
1781,1902,1872
1873,1891,1902
1906,1809,1776
2031,1811,1710
1963,1885,1811
1756,1904,1841
1853,1850,1793
1840,1808,1793
1904,1869,1894
1838,1883,1911
1834,1841,1787
1902,1841,1746
1900,1883,1821
1843,1905,1868
1763,1823,1776
1867,1806,1786
1881,1850,1903
1878,1898,1936
1930,1870,1776
2021,1858,1709
1849,1931,1842
1843,1899,1869
1802,1804,1845
1855,1791,1811
1898,1899,1874
1845,1911,1901
1872,1841,1802
1904,1810,1740
1867,1855,1847
1831,1894,1925
1905,1883,1806
1878,1871,1763
1907,1904,1897
1906,1884,1941
1854,1807,1796
1872,1812,1790
1854,1901,1904
1857,1917,1923
1874,1842,1803
1946,1825,1774
1872,1876,1841
1765,1905,1904
1907,1838,1831
1895,1846,1811
1792,1909,1847
1835,1895,1893
1871,1829,1811
1927,1826,1782
1921,1910,1904
1981,1920,1939
1887,1829,1802
1799,1807,1726
1840,1855,1855
1859,1897,1910
1876,1846,1821
1922,1840,1749
1906,1918,1905
1831,1907,1917
1839,1842,1797
1923,1831,1776
1904,1867,1850
1919,1878,1876
1931,1840,1759
1899,1839,1773
1893,1895,1903
1851,1873,1889
1795,1847,1811
1872,1837,1776
1888,1884,1863
1852,1902,1895
1872,1870,1824
1888,1849,1776
1870,1872,1845
1846,1903,1894
1903,1878,1811
1889,1862,1775
1874,1919,1893
1863,1899,1897
1902,1818,1801
1932,1833,1765
1881,1914,1867
1939,1957,1922
1862,1866,1802
1810,1825,1773
1831,1904,1893
1826,1930,1945
1842,1866,1808
1949,1856,1766
1957,1934,1923
1878,1936,1950
1851,1856,1795
1902,1827,1745
1878,1904,1892
1840,1917,1954
1902,1855,1846
1978,1838,1790
1974,1925,1893
1856,1932,1936
1867,1895,1849
1884,1855,1791
1890,1886,1889
1860,1916,1940
1854,1826,1790
1973,1815,1775
1932,1899,1881
1842,1920,1943
1869,1850,1817
1907,1825,1764
1917,1893,1883
1872,1894,1936
1893,1858,1835
