1625,1853,1787
1655,1778,1650
1683,1787,1645
1663,1856,1775
1638,1841,1795
1664,1777,1663
1692,1776,1661
1659,1841,1793
1633,1836,1808
1667,1761,1681
1707,1778,1673
1669,1840,1797
1638,1825,1815
1678,1764,1695
1727,1781,1692
1687,1843,1818
1667,1838,1839
1694,1767,1712
1728,1774,1710
1703,1831,1824
1675,1831,1840
1715,1774,1738
1747,1777,1735
1712,1842,1843
1680,1830,1862
1719,1774,1744
1757,1776,1742
1714,1839,1853
1694,1833,1870
1728,1770,1755
1770,1775,1758
1741,1837,1885
1712,1825,1885
1757,1753,1765
1785,1765,1761
1745,1838,1886
1728,1821,1904
1762,1769,1776
1794,1773,1774
1776,1836,1905
1749,1837,1921
1793,1767,1797
1809,1763,1777
1771,1825,1899
1747,1823,1923
1793,1757,1807
1823,1761,1794
1776,1817,1906
1745,1808,1909
1782,1742,1791
1809,1738,1776
1755,1791,1887
1713,1773,1893
1747,1691,1760
1759,1686,1739
1714,1730,1840
1661,1701,1833
1686,1616,1706
1687,1595,1667
1630,1634,1756
1583,1609,1747
1590,1509,1616
1614,1491,1593
1563,1535,1684
1497,1522,1670
1520,1438,1534
1535,1426,1520
1509,1488,1649
1467,1482,1650
1488,1412,1507
1520,1398,1501
1488,1464,1625
1455,1456,1631
1479,1375,1501
1499,1374,1483
1449,1424,1598
1408,1413,1602
1440,1344,1479
1471,1344,1466
1437,1403,1589
1414,1403,1609
1441,1340,1473
1490,1351,1475
1451,1414,1602
1421,1414,1612
1456,1358,1491
1489,1363,1478
1457,1436,1616
1426,1441,1641
1469,1382,1520
1514,1393,1515
1471,1461,1639
1446,1462,1655
1487,1410,1535
1535,1422,1535
1505,1495,1671
1474,1499,1683
1520,1454,1582
1565,1468,1588
1523,1531,1712
1498,1535,1724
1535,1483,1613
1579,1491,1615
1553,1571,1731
1529,1505,1755
1584,1519,1648
1617,1569,1645
1584,1584,1754
1572,1647,1782
1619,1573,1680
1663,1553,1675
1618,1680,1791
1577,1675,1813
1631,1605,1707
1683,1613,1699
1642,1639,1808
1611,1648,1840
1673,1616,1731
1719,1697,1730
1671,1768,1840
1646,1711,1853
1686,1648,1741
1732,1665,1729
1693,1721,1849
1661,1776,1863
1717,1677,1765
1743,1668,1751
1705,1745,1872
1675,1779,1886
1712,1670,1777
1751,1663,1759
1706,1714,1870
1667,1684,1872
1691,1683,1745
1715,1654,1719
1664,1703,1821
1615,1681,1822
1648,1628,1699
1659,1607,1669
1615,1655,1772
1578,1659,1785
1616,1600,1669
1641,1595,1654
1594,1648,1756
1558,1600,1761
1604,1585,1651
1639,1591,1646
1584,1648,1746
1561,1655,1762
1601,1596,1653
1635,1584,1646
1590,1641,1755
1535,1627,1763
1585,1585,1647
1615,1573,1627
1567,1691,1742
1532,1626,1753
1580,1535,1637
1617,1622,1619
1568,1634,1726
1518,1657,1728
1577,1575,1617
1614,1594,1619
1557,1632,1726
1513,1591,1728
1565,1564,1613
1599,1562,1595
1559,1635,1712
1519,1676,1739
1581,1595,1625
1615,1650,1618
1567,1633,1730
1527,1637,1744
1573,1535,1636
1616,1616,1623
1574,1686,1731
1534,1664,1756
1584,1648,1643
1629,1628,1637
1583,1680,1749
1535,1683,1774
1598,1626,1658
1634,1630,1645
1588,1683,1747
1553,1683,1767
1610,1632,1666
1650,1648,1667
1607,1709,1771
1590,1739,1789
1635,1535,1683
1665,1631,1680
1616,1758,1781
1594,1692,1799
1647,1616,1702
1680,1691,1699
1635,1744,1816
1609,1757,1821
1653,1692,1712
1695,1699,1702
1654,1821,1809
1622,1814,1839
1682,1711,1740
1725,1724,1728
1675,1786,1828
1639,1792,1840
1686,1728,1737
1726,1742,1733
1686,1788,1840
1662,1797,1859
1703,1747,1751
1750,1739,1745
1717,1797,1856
1693,1767,1878
1743,1839,1776
1776,1747,1769
1731,1863,1872
1703,1875,1894
1746,1757,1791
1792,1841,1782
1751,1825,1895
1717,1926,1905
1760,1826,1803
1808,1834,1806
1774,1851,1917
1748,1882,1926
1786,1845,1813
1825,1847,1804
1792,1906,1932
1770,1912,1946
1809,1888,1838
1844,1814,1823
1810,1921,1936
1789,1872,1952
1825,1857,1842
1859,1856,1840
1840,1925,1954
1804,1895,1982
1846,1831,1871
1866,1874,1850
1840,1999,1963
1821,1936,1979
1865,1879,1869
1907,1855,1858
1872,1955,1981
1843,1959,1997
1872,1894,1891
1907,1893,1876
1878,1999,1989
1865,1965,2016
1900,1875,1899
1935,1882,1886
1902,1959,1995
1872,1983,2023
1909,1862,1905
1941,1969,1897
1911,1969,2014
1887,1966,2035
1921,1931,1923
1963,1931,1919
1920,1967,2019
1889,1907,2036
1925,1843,1926
1968,1939,1910
1947,1959,2028
1915,1981,2055
1955,1936,1938
1990,1952,1923
1957,2011,2037
1926,2017,2059
1957,1958,1947
1993,1956,1934
1966,2025,2051
1932,2022,2066
1984,1968,1955
2008,1968,1931
1963,2023,2026
1931,2022,2058
1973,1959,1954
2014,1959,1937
1965,2013,2037
1925,2015,2043
1969,1954,1936
2003,1959,1921
1959,2014,2027
1923,2011,2041
1962,1958,1936
1998,1958,1919
1956,2015,2025
1926,2017,2053
1970,1964,1943
2002,1947,1929
1957,2000,2017
1923,1991,2030
1971,1941,1924
2011,1952,1920
1965,2005,2027
1929,2003,2033
1966,1958,1920
2003,1955,1904
1959,2000,2001
1915,1995,2014
1962,1942,1910
2002,1950,1905
1962,2002,2000
1921,1998,2009
1959,1941,1907
1999,1949,1891
1949,1998,1993
1914,1990,2009
1965,1935,1897
1989,1935,1879
1946,1985,1980
1921,1987,2000
1968,1932,1903
2001,1933,1882
1948,1983,1974
1910,1981,1996
1961,1929,1904
2012,1936,1883
1968,1987,1980
1927,1985,2000
1973,1931,1899
2010,1931,1877
1967,1981,1975
1927,1984,1993
1973,1934,1891
2017,1931,1865
1962,1983,1969
1920,1984,1998
1975,1934,1901
2030,1945,1886
1971,1994,1989
1936,1991,2001
1990,1940,1904
2030,1949,1875
1970,1995,1982
1942,1991,2005
1998,1941,1904
2032,1952,1891
1984,2000,1997
1950,2000,2005
2001,1937,1904
2043,1940,1887
1985,1995,1989
1962,1997,2015
2000,1939,1909
2039,1941,1893
1997,1992,1995
1958,1989,2007
2007,1936,1902
2037,1943,1884
1990,1991,1991
1950,1986,2000
1997,1934,1894
2034,1936,1882
1991,1995,1981
1955,1989,2000
2000,1935,1895
2033,1936,1883
1982,1983,1978
1951,1978,1991
1995,1925,1887
2033,1930,1878
1984,1980,1966
1954,1968,1978
1997,1910,1872
2033,1910,1854
1982,1959,1945
1943,1958,1967
1990,1904,1860
2022,1904,1837
1970,1955,1937
1931,1943,1953
1969,1891,1844
2009,1888,1827
1952,1936,1913
1914,1929,1934
1968,1872,1840
2007,1872,1827
1941,1920,1917
1899,1915,1920
1936,1872,1803
1980,1873,1792
1938,1920,1907
1907,1906,1926
1949,1850,1814
1975,1854,1787
1920,1893,1874
1873,1885,1890
1922,1834,1789
1961,1824,1770
1906,1872,1860
1866,1859,1875
1907,1807,1767
1937,1801,1747
1887,1842,1841
1845,1829,1867
1893,1776,1758
1925,1775,1727
1872,1825,1825
1834,1815,1840
1867,1761,1735
1903,1755,1703
1839,1795,1786
1791,1785,1793
1839,1728,1689
1859,1726,1663
1803,1769,1758
1761,1757,1773
1793,1702,1657
1827,1697,1625
1770,1745,1713
1719,1734,1722
1762,1681,1616
1793,1681,1593
1728,1732,1683
1689,1726,1700
1733,1667,1575
1757,1668,1559
1701,1724,1634
1680,1725,1695
1728,1674,1568
1761,1679,1588
1699,1722,1660
1654,1717,1684
1694,1667,1600
1727,1661,1535
1680,1711,1623
1639,1712,1665
1695,1675,1569
1743,1690,1532
1690,1741,1647
1652,1743,1723
1711,1698,1609
1751,1711,1585
1708,1772,1664
1687,1776,1744
1745,1733,1669
1796,1740,1654
1749,1789,1728
1727,1806,1765
1783,1764,1677
1838,1784,1630
1803,1847,1808
1788,1851,1803
1837,1801,1735
1870,1835,1702
1835,1893,1802
1813,1894,1862
1875,1850,1769
1920,1863,1746
1879,1924,1872
1848,1931,1882
1899,1877,1791
1953,1898,1782
1914,1954,1905
1887,1961,1931
1947,1909,1840
1975,1907,1791
1943,1968,1904
1900,1951,1903
1960,1904,1842
2006,1922,1841
1946,1983,1959
1925,1984,1984
1989,1934,1883
2093,1936,1826
2006,1983,1930
1904,1997,2062
1934,1939,1955
2047,1961,1912
2041,2032,2047
2030,2042,2096
2109,2023,2019
2134,2021,1998
2108,2095,2075
2090,2098,2167
2132,2043,1972
2171,2063,1999
2121,2098,2146
2095,2111,2094
2155,2043,2019
2177,2033,1979
2118,2091,2128
2081,2095,2159
2123,2018,2003
2160,2010,2032
2113,2062,2091
2040,2039,2162
2071,1956,2007
2121,1961,1985
2061,2000,2038
2019,1987,2038
2093,1935,1955
2154,1913,1925
2100,1975,2064
1987,1973,2101
2013,1905,1991
2064,1883,1910
2046,1933,1970
2011,1949,2019
2030,1883,1953
2055,1870,1904
2032,1939,2027
1970,1921,1999
1993,1849,1856
2019,1850,1874
2000,1908,1943
1971,1903,2006
1990,1850,1879
2017,1840,1789
1955,1893,1931
1937,1918,1981
1984,1853,1905
2009,1831,1831
1949,1879,1897
1922,1873,1920
1967,1808,1855
2005,1821,1854
1933,1858,1923
1853,1856,1925
1885,1792,1817
1938,1774,1735
1893,1808,1775
1803,1798,1822
1799,1723,1744
1838,1707,1656
1777,1759,1741
1675,1712,1734
1695,1610,1565
1711,1600,1600
1648,1648,1699
1584,1615,1655
1650,1535,1473
1660,1567,1482
1592,1603,1683
1553,1590,1651
1591,1534,1459
1611,1525,2158
1581,1585,1954
1525,1593,1637
1535,1514,1391
1535,1426,1323
1425,1472,1915
1346,1449,1935
1394,1371,1865
1488,1418,1818
1483,1510,1983
1456,1502,2657
1418,1387,1453
1505,1424,1243
1520,1516,1652
1520,1573,1886
1651,1584,1885
1766,1626,1817
1724,1713,1819
1695,1739,1819
1753,1707,1829
1840,1733,1840
1776,1808,1831
1739,1824,1838
1802,1747,1827
1866,1792,1828
1866,1866,1793
1840,1875,1843
1859,1831,1841
1915,1851,1883
1907,1915,1837
1933,1925,1825
1965,1875,1805
1957,1881,1841
1936,1957,1806
1971,1958,1834
1965,1901,1828
1966,1921,1838
1915,1978,1825
1899,1964,1823
1968,1929,1815
2065,1936,1746
2056,1978,1759
1951,1976,1857
1961,1939,1802
2074,1954,1779
2031,2009,1867
2041,2011,1873
1985,1963,1761
2019,1954,1762
1987,1991,1859
2058,2013,1912
2083,1974,1813
1983,1962,1779
2026,2023,1859
1981,2025,1886
2017,1987,1835
2035,1968,1771
2032,2032,1871
2043,2062,1889
2091,1981,1746
2111,1984,1736
1990,2045,1948
1973,2057,1965
2107,2011,1839
2078,1983,1753
2026,2032,1847
2067,2039,1886
2141,2000,1855
2084,2000,1799
2009,2066,1891
2000,2061,1916
2127,1999,1829
2115,1984,1817
2046,2039,1897
1947,2064,1938
2039,2007,1845
2121,1970,1795
2015,2031,1882
2037,2055,1929
2100,1974,1803
2076,1991,1793
2027,2064,1921
1967,2033,1904
2053,1991,1792
2111,1999,1789
1983,2035,1909
1986,2030,1922
2067,1979,1862
2130,1983,1827
1985,2043,1883
1985,2032,1872
2067,1973,1830
2047,1972,1787
2007,2028,1867
2059,2032,1895
2064,1984,1827
2031,1993,1845
2009,2026,1857
1980,2030,1898
2111,1974,1856
2038,1959,1799
2071,2029,1900
2042,2010,1922
2035,1968,1843
1989,1967,1808
1936,2009,1891
1971,1997,1893
2060,1968,1808
2123,1968,1778
2064,1996,1865
1969,2011,1915
2023,1953,1825
2010,1914,1766
1978,2005,1919
1970,2014,1955
2067,1946,1777
2141,1938,1753
1978,2003,1965
1889,1997,1978
1967,1941,1839
2061,1925,1693
2030,1965,1810
1941,2014,1959
1969,1938,1867
2000,1915,1792
2005,1969,1873
1953,2001,1953
2000,1904,1806
2003,1914,1743
1969,1975,1907
1974,1990,1982
2044,1936,1876
2032,1935,1819
2026,1958,1859
1987,1962,1851
2026,1925,1825
1962,1923,1853
1937,1971,1930
1925,1955,1914
1993,1883,1706
2096,1923,1775
1997,1975,1941
1886,1962,1947
1893,1871,1757
1979,1879,1745
2000,1939,1865
1922,1970,1969
1931,1903,1829
2088,1893,1758
2071,1937,1876
1885,1957,1937
1812,1846,1769
1934,1862,1714
1997,1983,1965
1920,1949,1938
1926,1872,1803
2010,1856,1755
1968,1936,1903
1847,1931,1915
1847,1835,1711
2106,1872,1754
2013,1941,1973
1909,1936,1980
1926,1858,1783
1982,1861,1775
1856,1929,1915
1899,1926,1954
1922,1856,1817
2000,1845,1751
1981,1935,1891
1918,1923,1931
1914,1870,1822
1919,1802,1679
1963,1872,1780
1927,1926,1964
1936,1861,1875
1965,1872,1831
2031,1916,1901
1989,1893,1857
1900,1859,1781
1855,1825,1739
1902,1874,1854
1887,1904,1955
1987,1855,1850
1943,1854,1798
1900,1891,1868
1803,1860,1808
1898,1872,1807
1982,1862,1840
1931,1925,1933
1904,1904,1892
1841,1808,1763
1934,1830,1774
1934,1891,1909
1869,1898,1917
1907,1843,1808
1959,1818,1774
1945,1882,1878
1914,1894,1927
1921,1810,1770
2002,1822,1720
1914,1904,1924
1778,1900,1965
1861,1829,1810
1935,1826,1771
1909,1873,1870
1829,1847,1842
1951,1818,1788
2017,1844,1776
1966,1898,1917
1826,1889,1939
1809,1781,1771
1919,1815,1757
1860,1890,1902
1850,1873,1916
1899,1814,1765
2079,1820,1744
1893,1869,1872
1763,1857,1904
1861,1822,1793
1911,1825,1765
1872,1866,1888
1760,1843,1826
1911,1821,1743
1937,1809,1786
1856,1883,1926
1776,1879,1914
1849,1790,1749
1872,1790,1741
1883,1846,1867
1819,1853,1907
1856,1786,1755
1951,1791,1740
1877,1842,1857
1869,1866,1902
1831,1776,1739
1862,1802,1751
1841,1858,1883
1847,1855,1936
1897,1792,1813
1925,1809,1774
1907,1845,1841
1830,1855,1904
1833,1807,1824
1857,1791,1757
1861,1867,1899
1835,1859,1888
1870,1777,1766
1922,1797,1763
1885,1862,1889
1810,1857,1945
1857,1808,1809
1885,1808,1785
1843,1873,1898
1803,1847,1874
1878,1792,1776
1959,1793,1744
1923,1862,1920
1817,1882,1977
1805,1805,1851
1855,1795,1787
1858,1840,1840
1862,1872,1905
1920,1811,1808
1908,1807,1756
1814,1859,1884
1784,1867,1929
1847,1821,1813
1888,1810,1771
1857,1867,1885
1839,1870,1927
1883,1818,1819
1899,1811,1782
1885,1869,1882
1859,1877,1930
1872,1805,1793
1914,1822,1794
1862,1869,1909
1818,1858,1922
1872,1792,1760
1961,1811,1762
1847,1882,1935
1802,1886,1974
1855,1826,1808
1936,1819,1747
1895,1876,1879
1825,1879,1941
1850,1795,1771
1921,1808,1776
1829,1876,1913
1791,1885,1949
1861,1808,1829
1958,1824,1807
1903,1850,1855
1773,1846,1907
1820,1806,1800
1918,1824,1821
1887,1872,1904
1822,1859,1895
1867,1808,1814
1894,1808,1776
1868,1872,1903
1825,1884,1920
1865,1819,1844
1926,1819,1805
1895,1857,1881
1881,1845,1894
1859,1793,1805
1887,1779,1776
1851,1848,1904
1803,1869,1941
1828,1799,1804
1899,1807,1776
1887,1859,1889
1858,1849,1902
1853,1799,1833
1872,1791,1789
1854,1856,1909
1841,1841,1921
1870,1774,1814
1871,1789,1766
1846,1837,1856
1831,1853,1926
1857,1793,1831
1913,1805,1790
1920,1848,1872
1873,1826,1840
1835,1808,1827
1867,1814,1818
1841,1867,1887
1808,1857,1911
1820,1799,1813
1882,1809,1806
1875,1861,1882
1842,1869,1936
1862,1808,1822
1883,1783,1776
1875,1846,1844
1823,1869,1890
1853,1826,1817
1872,1811,1790
1854,1871,1901
1831,1877,1926
1870,1819,1797
1943,1829,1751
1889,1887,1904
1818,1892,1956
1856,1831,1853
1915,1822,1794
1872,1873,1874
1844,1886,1929
1872,1842,1835
1905,1835,1794
1877,1886,1886
1859,1893,1921
1894,1845,1839
1918,1851,1811
1872,1895,1915
1838,1895,1942
1872,1850,1825
1921,1844,1798
1883,1895,1898
1831,1887,1917
1872,1841,1807
1926,1849,1823
1890,1900,1919
1904,1898,1918
1927,1840,1808
1865,1824,1769
1855,1893,1919
1870,1922,1945
1923,1840,1810
1903,1843,1809
1810,1887,1895
1806,1877,1898
1884,1839,1824
1943,1840,1801
1909,1902,1870
1807,1904,1942
1840,1855,1849
1893,1818,1774
1880,1887,1871
1863,1903,1891
1865,1837,1773
1904,1850,1808
1856,1861,1904
1837,1903,1927
1858,1840,1811
1904,1883,1776
1883,1856,1871
1866,1936,1869
1885,1803,1778
1915,1850,1769
1887,1900,1904
1808,1934,1910
1841,1843,1824
1862,1858,1791
1840,1901,1872
1835,1910,1902
1920,1840,1806
1895,1822,1773
1839,1888,1808
1853,1902,1882
1835,1856,1840
1856,1851,1793
1841,1903,1882
1807,1886,1906
1840,1838,1791
1903,1843,1789
1921,1930,1882
1847,1897,1904
1829,1778,1834
1895,1853,1778
1893,1869,1863
1842,1894,1899
1814,1826,1791
1834,1840,1793
1823,1871,1891
1804,1887,1888
1834,1837,1789
1875,1826,1769
1835,1888,1888
1779,1898,1909
1835,1823,1776
1916,1838,1783
1842,1894,1878
1807,1892,1920
1840,1878,1813
1877,1808,1723
1948,1872,1851
1831,1887,1937
1834,1856,1830
1829,1823,1751
1808,1881,1872
1812,1889,1914
1861,1845,1808
1866,1819,1762
1838,1863,1877
1798,1885,1878
1919,1849,1781
1893,1846,1764
1801,1879,1889
1767,1871,1920
1829,1840,1801
1878,1767,1744
1904,1886,1840
1836,1883,1905
1812,1835,1814
1850,1847,1776
1874,1887,1843
1841,1894,1890
1790,1858,1802
1829,1815,1766
1846,1867,1869
1836,1879,1888
1839,1825,1809
1902,1853,1788
1825,1814,1839
1805,1867,1889
1872,1856,1808
1867,1809,1775
1799,1840,1819
1787,1872,1891
1876,1823,1783
1885,1830,1779
1847,1875,1867
1791,1883,1913
1798,1819,1805
1856,1825,1769
1858,1883,1865
1830,1878,1919
1842,1815,1796
1858,1827,1746
1823,1904,1837
1807,1851,1889
1839,1806,1807
1968,1792,1733
1869,1927,1861
1723,1882,1941
1781,1818,1828
1863,1775,1774
1840,1869,1841
1801,1887,1893
1851,1811,1808
1878,1822,1782
1856,1871,1883
1776,1870,1905
1812,1810,1805
1875,1824,1755
1845,1877,1856
1781,1872,1884
1827,1808,1795
1899,1820,1770
1837,1857,1838
1744,1827,1811
1842,1881,1771
1890,1815,1808
1837,1915,1863
1781,1877,1850
1867,1792,1791
1845,1776,1781
1825,1870,1859
1811,1870,1898
1789,1872,1773
1827,1840,1751
1799,1894,1854
1783,1875,1903
1828,1830,1782
1879,1828,1733
1859,1840,1831
1833,1876,1872
1814,1786,1797
1845,1787,1763
1825,1867,1882
1777,1931,1900
1838,1827,1792
1910,1840,1766
1834,1856,1840
1792,1872,1852
1856,1815,1775
1861,1798,1791
1837,1863,1839
1797,1879,1895
1803,1825,1834
1843,1781,1812
1820,1873,1856
1814,1842,1892
1830,1815,1796
1902,1823,1758
1808,1808,1853
1745,1872,1889
1882,1808,1789
1934,1826,1771
1802,1899,1878
1733,1879,1934
1807,1799,1797
1886,1841,1771
1794,1881,1863
1765,1887,1906
1790,1810,1751
1881,1838,1765
1853,1903,1889
1779,1874,1907
1842,1904,1795
1894,1843,1790
1825,1919,1904
1788,1825,1914
1918,1811,1757
1936,1782,1738
1775,1866,1879
1685,1851,1889
1809,1836,1793
1913,1840,1779
1870,1894,1888
1807,1871,1887
1884,1827,1780
1918,1835,1760
1794,1889,1895
1723,1867,1913
1768,1812,1790
1872,1829,1789
1831,1865,1857
1788,1877,1904
1842,1840,1802
1907,1841,1772
1822,1874,1873
1761,1886,1894
1817,1842,1849
1897,1847,1807
1821,1873,1863
1797,1856,1872
1877,1835,1745
1902,1829,1761
1847,1887,1857
1775,1907,1939
1771,1846,1837
1841,1836,1786
1819,1879,1881
1790,1871,1891
1859,1814,1751
1856,1846,1760
1808,1899,1884
1759,1904,1918
1829,1835,1814
1898,1814,1779
1840,1858,1851
1798,1882,1881
1830,1829,1810
1894,1806,1758
1813,1855,1887
1778,1869,1890
1843,1829,1794
1869,1811,1834
1806,1854,1903
1805,1858,1884
1787,1817,1777
1847,1835,1795
1808,1859,1897
1808,1855,1878
1900,1808,1759
1919,1811,1787
1794,1871,1921
1749,1870,1927
1812,1797,1771
1871,1787,1737
1833,1872,1910
1791,1875,1931
1831,1811,1809
1850,1803,1763
1812,1853,1819
1808,1891,1931
1835,1831,1857
1887,1822,1811
1854,1854,1862
1801,1856,1889
1840,1807,1776
1934,1815,1760
1853,1872,1867
1743,1845,1910
1757,1793,1836
1872,1811,1762
1873,1863,1889
1794,1856,1923
1815,1791,1794
1833,1797,1729
1821,1853,1849
1802,1840,1858
1854,1815,1825
1861,1806,1800
1843,1849,1861
1802,1855,1898
1793,1826,1825
1839,1802,1766
1826,1847,1855
1823,1869,1917
1863,1793,1776
1877,1791,1729
1792,1858,1905
1751,1862,1963
1810,1822,1812
1918,1783,1712
1857,1855,1845
1780,1865,1907
1823,1795,1820
1867,1776,1728
1885,1855,1858
1805,1872,1931
1822,1825,1834
1847,1821,1756
1808,1855,1898
1779,1883,1935
1816,1808,1800
1872,1808,1747
1838,1856,1844
1776,1863,1925
1805,1801,1776
1898,1809,1755
1872,1866,1857
1767,1875,1926
1826,1829,1835
1940,1818,1777
1872,1855,1846
1790,1840,1867
1817,1833,1818
1864,1819,1783
1831,1874,1860
1801,1861,1888
1814,1812,1800
1887,1808,1774
1837,1871,1859
1803,1893,1919
1876,1840,1813
1893,1815,1766
1835,1875,1874
1762,1869,1925
1809,1824,1795
1872,1810,1725
1826,1872,1840
1817,1879,1908
1889,1821,1787
1847,1812,1773
1763,1861,1835
1776,1888,1910
1838,1836,1856
1867,1807,1769
1850,1861,1801
1842,1882,1893
1853,1818,1823
1904,1804,1771
1806,1868,1855
1763,1886,1930
1834,1814,1814
1879,1813,1777
1839,1860,1856
1822,1866,1858
1840,1823,1806
1868,1811,1788
1856,1854,1843
1829,1869,1872
1820,1812,1803
1895,1808,1803
1851,1866,1803
1829,1872,1887
1877,1825,1819
1899,1824,1819
1826,1874,1886
1752,1872,1936
1808,1824,1803
1872,1813,1765
1876,1842,1794
1792,1872,1920
1808,1831,1833
1903,1839,1814
1856,1870,1847
1785,1865,1887
1851,1821,1838
1920,1826,1808
1872,1855,1857
1802,1881,1946
1813,1840,1839
1877,1831,1771
1827,1849,1840
1782,1870,1903
1842,1839,1839
1933,1826,1717
1837,1867,1873
1754,1857,1834
1865,1813,1770
1891,1826,1805
1808,1882,1907
1786,1899,1907
1845,1843,1823
1879,1810,1794
1854,1866,1924
1798,1891,1925
1838,1840,1799
1860,1813,1767
1891,1871,1826
1830,1890,1920
1841,1853,1854
1905,1853,1817
1818,1862,1863
1795,1904,1914
1816,1836,1823
1903,1850,1718
1893,1850,1837
1856,1886,1920
1795,1822,1822
1853,1840,1774
1829,1883,1837
1826,1909,1910
1859,1872,1877
1872,1840,1823
1858,1872,1920
1805,1902,1931
1851,1855,1776
1902,1847,1810
1838,1870,1859
1843,1887,1874
1886,1850,1844
1862,1829,1785
1830,1875,1872
1799,1907,1936
1840,1856,1798
1893,1846,1804
1826,1870,1823
1834,1893,1919
1893,1866,1855
1903,1831,1808
1803,1885,1835
1804,1893,1909
1834,1845,1843
1922,1837,1772
1879,1887,1888
1805,1904,1926
1835,1837,1833
1879,1837,1776
1847,1842,1826
1839,1895,1920
1823,1854,1861
1869,1847,1796
1856,1898,1883
1821,1898,1904
1853,1847,1792
1858,1829,1808
1830,1894,1872
1807,1908,1909
1796,1809,1776
1887,1798,1712
1894,1904,1855
1835,1913,1879
1838,1870,1878
1895,1841,1744
1873,1889,1835
1797,1894,1934
1809,1846,1827
1861,1834,1760
1866,1897,1863
1863,1916,1900
1837,1841,1821
1849,1824,1759
1818,1889,1892
1810,1899,1962
1870,1856,1813
1870,1833,1747
1822,1889,1936
1789,1891,1918
1872,1840,1779
1905,1852,1712
1839,1871,1885
1797,1875,1881
1856,1840,1793
1876,1840,1808
1821,1889,1891
1788,1880,1926
1859,1850,1842
1919,1858,1790
1866,1915,1930
1792,1891,1886
1925,1822,1753
1936,1840,1789
1773,1899,1974
1735,1889,1952
1828,1832,1766
1872,1825,1740
1859,1895,1914
1812,1909,1947
1851,1842,1781
1915,1840,1738
1851,1888,1872
1771,1877,1901
1842,1847,1822
1936,1826,1767
1856,1870,1855
1802,1898,1932
1818,1815,1805
1845,1799,1712
1889,1890,1888
1835,1904,1936
1815,1838,1804
1917,1823,1764
1879,1873,1824
1795,1886,1914
1812,1829,1754
1872,1834,1745
1846,1886,1876
1803,1888,1906
1858,1855,1837
1875,1856,1801
1843,1888,1867
1828,1895,1904
1854,1841,1838
1902,1851,1746
1863,1895,1870
1837,1914,1968
1856,1856,1833
1901,1843,1806
1870,1862,1835
1870,1885,1906
1869,1858,1814
1873,1853,1770
1824,1894,1878
1806,1902,1929
1840,1830,1759
1922,1849,1777
1871,1899,1877
1783,1894,1919
1829,1841,1809
1877,1823,1742
1859,1881,1884
1840,1902,1898
1865,1847,1808
1904,1815,1750
1892,1872,1879
1808,1909,1925
1846,1872,1819
1888,1830,1734
1847,1881,1825
1793,1910,1951
1840,1858,1823
1882,1835,1753
1874,1899,1856
1851,1888,1893
1883,1850,1819
1890,1845,1803
1837,1871,1856
1810,1890,1911
1863,1834,1793
1903,1823,1731
1858,1875,1858
1799,1882,1914
1840,1849,1807
1929,1838,1761
1929,1877,1856
1827,1906,1923
1791,1858,1825
1859,1839,1760
1890,1872,1864
1861,1897,1918
1811,1853,1825
1898,1840,1762
1818,1879,1853
1823,1861,1896
1872,1842,1810
1927,1847,1763
1924,1887,1842
1823,1889,1915
1829,1842,1840
1887,1819,1759
1799,1872,1821
1822,1904,1872
1855,1846,1809
1895,1822,1771
1854,1862,1875
1783,1895,1934
1825,1845,1813
1891,1829,1744
1856,1872,1850
1807,1882,1913
1843,1854,1829
1922,1831,1740
1834,1861,1843
1797,1887,1911
1813,1840,1797
1865,1831,1735
1829,1859,1819
1788,1883,1904
1840,1845,1841
1877,1821,1783
1861,1861,1825
1818,1877,1873
1819,1846,1787
1846,1829,1774
1853,1865,1855
1860,1883,1891
1826,1853,1846
1920,1839,1794
1873,1874,1869
1847,1882,1898
1820,1838,1807
1904,1830,1750
1850,1864,1847
1808,1879,1919
1808,1830,1822
1894,1814,1770
1855,1857,1846
1795,1869,1879
1815,1808,1776
1867,1812,1756
1873,1873,1885
1827,1878,1921
1835,1827,1777
1930,1838,1778
1888,1867,1843
1821,1866,1855
1855,1825,1779
1838,1805,1751
1799,1842,1854
1773,1847,1846
1824,1822,1795
1887,1821,1782
1878,1862,1854
1745,1871,1879
1811,1808,1745
1898,1812,1744
1856,1865,1858
1776,1869,1887
1853,1805,1745
1885,1794,1666
1840,1891,1854
1741,1872,1924
1791,1815,1823
1887,1806,1750
1847,1842,1837
1771,1847,1837
1782,1811,1737
1859,1795,1744
1840,1858,1863
1821,1886,1883
1815,1808,1751
1779,1799,1724
1712,1857,1821
1932,1873,1850
1712,1820,1776
1852,1803,1755
1790,1843,1805
1796,1863,1849
1781,1818,1791
1832,1776,1740
1822,1843,1805
1806,1883,1891
1791,1812,1764
1827,1824,1755
1807,1858,1841
1773,1841,1847
1821,1788,1747
1899,1802,1712
1801,1842,1856
1708,1835,1885
1759,1795,1763
1850,1794,1716
1838,1823,1787
1821,1851,1872
1803,1792,1763
1794,1780,1701
1801,1843,1840
1823,1866,1913
1795,1793,1783
1881,1786,1689
1876,1842,1781
1751,1831,1854
1847,1770,1767
1838,1778,1755
1775,1828,1828
1783,1833,1822
1739,1788,1716
1882,1791,1725
1803,1842,1853
1712,1845,1903
1792,1806,1799
1838,1781,1724
1836,1817,1791
1744,1822,1782
1808,1788,1756
1823,1777,1765
1785,1835,1899
1714,1808,1840
1790,1776,1723
1872,1782,1729
1776,1815,1815
1715,1839,1872
1786,1788,1766
1830,1782,1723
1792,1839,1825
1727,1845,1904
1756,1785,1793
1844,1776,1737
1809,1839,1840
1773,1828,1873
1779,1787,1787
1822,1762,1703
1839,1825,1820
1830,1847,1877
1742,1797,1808
1776,1771,1757
1751,1811,1815
1747,1840,1861
1817,1807,1790
1854,1792,1758
1815,1831,1818
1751,1847,1910
1821,1791,1777
1862,1793,1746
1870,1837,1843
1744,1840,1881
1769,1801,1790
1809,1776,1728
1791,1849,1842
1757,1872,1922
1794,1826,1799
1819,1776,1718
1821,1830,1840
1776,1857,1891
