1869,1835,1776
1917,1853,1763
1894,1923,1907
1845,1910,1904
1845,1845,1777
1841,1853,1765
1897,1917,1909
1830,1894,1920
1826,1835,1783
1921,1861,1764
1975,1934,1909
1862,1901,1915
1808,1840,1787
1851,1843,1750
1872,1915,1903
1904,1927,1921
1926,1856,1802
1869,1842,1776
1883,1899,1867
1817,1911,1935
1856,1845,1808
1872,1851,1802
1834,1893,1898
1823,1894,1907
1931,1860,1767
1957,1847,1745
1862,1903,1878
1845,1913,1921
1808,1838,1814
1872,1851,1787
1904,1920,1893
1849,1907,1925
1905,1850,1808
1883,1846,1777
1840,1904,1857
1807,1887,1897
1835,1840,1781
1939,1857,1759
1936,1936,1919
1843,1925,1923
1825,1828,1766
1863,1850,1798
1894,1927,1919
1856,1914,1915
1872,1842,1766
1908,1859,1745
1841,1915,1897
1815,1904,1937
1857,1859,1818
1901,1866,1815
1886,1922,1875
1871,1895,1854
1844,1840,1766
1924,1873,1801
1889,1922,1914
1880,1899,1914
1901,1856,1830
1850,1839,1835
1829,1909,1933
1856,1905,1911
1923,1878,1803
1919,1878,1808
1871,1910,1899
1865,1892,1886
1886,1840,1799
1899,1881,1815
1839,1926,1926
1857,1925,1929
1890,1859,1812
1920,1846,1789
1967,1895,1870
1838,1899,1885
1842,1853,1810
1874,1872,1856
1919,1933,1933
1909,1913,1870
1863,1838,1750
1846,1862,1808
1841,1907,1922
1834,1910,1904
1873,1825,1769
1898,1856,1781
1869,1919,1925
1886,1905,1927
1866,1835,1787
1941,1858,1782
1905,1935,1915
1804,1903,1914
1817,1838,1826
1897,1851,1816
1888,1920,1906
1889,1910,1904
1903,1808,1749
1873,1838,1750
1840,1905,1924
1840,1877,1939
1867,1840,1824
1918,1865,1783
1901,1904,1887
1834,1899,1919
1845,1840,1806
1919,1842,1809
1856,1913,1926
1810,1904,1934
1951,1849,1775
1946,1849,1749
1874,1903,1907
1797,1867,1894
1839,1815,1789
1888,1841,1786
1856,1904,1889
1856,1917,1925
1862,1840,1793
1881,1836,1792
1874,1887,1917
1862,1920,1942
1861,1833,1799
1872,1847,1753
1883,1915,1922
1883,1872,1893
1869,1837,1794
1904,1845,1760
1851,1903,1894
1818,1891,1930
1840,1834,1808
1918,1833,1731
1906,1927,1903
1817,1924,1959
1824,1843,1815
1924,1859,1782
1840,1909,1917
1819,1914,1935
1869,1840,1802
1903,1834,1759
1857,1907,1900
1824,1886,1902
1889,1840,1771
1909,1840,1780
1873,1897,1901
1829,1872,1899
1893,1829,1810
1892,1853,1803
1827,1879,1872
1813,1877,1887
1882,1850,1802
1963,1867,1823
1883,1900,1919
1791,1882,1898
1818,1824,1733
1949,1849,1770
1934,1904,1927
1855,1904,1930
1831,1840,1807
1874,1855,1793
1869,1909,1884
1839,1877,1882
1840,1853,1808
1915,1870,1803
1870,1898,1903
1867,1883,1921
1847,1823,1766
1883,1844,1773
1891,1919,1915
1804,1888,1904
1835,1840,1785
1897,1853,1779
1869,1907,1904
1889,1905,1919
1903,1831,1744
1942,1839,1776
1866,1910,1889
1831,1904,1915
1825,1844,1808
1852,1840,1812
1844,1900,1922
1846,1894,1903
1891,1827,1765
1922,1841,1799
1899,1904,1896
1859,1900,1901
1872,1841,1810
1893,1846,1808
1840,1872,1856
1897,1875,1863
1899,1821,1786
1872,1866,1812
1813,1904,1935
1806,1877,1883
1868,1807,1749
1897,1829,1766
1901,1910,1969
1844,1893,1955
1897,1835,1808
1943,1843,1783
1885,1897,1906
1863,1899,1920
1849,1840,1789
1852,1829,1795
1871,1887,1901
1865,1877,1893
1883,1835,1795
1873,1840,1779
1887,1890,1906
1815,1876,1873
1846,1831,1779
1897,1872,1846
1889,1918,1970
1829,1880,1902
1929,1827,1762
1959,1856,1811
1842,1907,1945
1806,1893,1916
1823,1840,1763
1893,1857,1777
1898,1875,1874
1858,1862,1879
1835,1829,1715
1845,1844,1792
1855,1907,1950
1859,1886,1915
1899,1823,1773
1871,1810,1776
1842,1885,1905
1824,1902,1931
1846,1840,1776
1978,1839,1779
1915,1890,1909
1808,1878,1936
1809,1825,1807
1882,1850,1803
1829,1889,1863
1824,1862,1911
1881,1852,1787
1927,1850,1760
1883,1887,1849
1815,1879,1907
1872,1837,1806
1886,1839,1814
1879,1894,1915
1853,1875,1881
1861,1821,1777
1865,1860,1808
1858,1903,1907
1861,1875,1862
1855,1822,1783
1882,1823,1808
1872,1904,1876
1807,1893,1901
1847,1838,1788
1911,1841,1755
1872,1881,1872
1869,1887,1902
1804,1819,1770
1838,1845,1796
1856,1909,1956
1849,1870,1905
1903,1827,1798
1887,1841,1800
1845,1895,1894
1873,1879,1898
1866,1824,1771
1878,1847,1775
1841,1911,1933
1795,1885,1920
1844,1823,1772
1887,1859,1779
1877,1893,1889
1843,1856,1875
1889,1826,1807
1919,1846,1825
1844,1895,1919
1814,1870,1922
1837,1815,1809
1903,1831,1798
1893,1894,1859
1920,1886,1882
1844,1815,1790
1816,1829,1806
1794,1894,1908
1807,1872,1915
1889,1808,1791
1888,1823,1763
1883,1899,1909
1829,1883,1927
1843,1824,1803
1869,1849,1806
1886,1904,1918
1888,1871,1871
1903,1814,1747
1873,1831,1790
1789,1899,1945
1779,1888,1930
1837,1821,1760
1899,1834,1744
1865,1897,1920
1822,1897,1937
1851,1821,1780
1904,1840,1781
1932,1873,1871
1871,1886,1919
1855,1825,1823
1840,1849,1840
1840,1884,1898
1890,1895,1883
1858,1834,1760
1878,1850,1785
1859,1894,1923
1841,1888,1923
1871,1830,1781
1851,1808,1703
1852,1881,1899
1851,1872,1948
1909,1834,1826
1905,1864,1813
1818,1917,1936
1791,1877,1936
1890,1819,1777
1936,1851,1806
1894,1904,1920
1841,1874,1889
1838,1827,1770
1868,1870,1809
1911,1915,1924
1837,1885,1904
1828,1826,1783
1875,1842,1759
1866,1915,1904
1904,1904,1923
1870,1821,1776
1887,1845,1813
1879,1904,1936
1863,1904,1931
1841,1842,1785
1876,1856,1804
1870,1904,1933
1852,1883,1871
1856,1818,1770
1903,1853,1803
1853,1919,1916
1815,1890,1893
1855,1811,1721
1909,1840,1798
1879,1918,1941
1856,1906,1942
1857,1839,1797
1860,1845,1797
1851,1907,1921
1871,1904,1885
1897,1846,1791
1910,1855,1844
1874,1887,1866
1771,1888,1920
1823,1830,1761
1917,1850,1759
1887,1883,1872
1872,1899,1899
1844,1839,1776
1882,1840,1783
1840,1896,1919
1834,1886,1903
1857,1822,1794
1856,1853,1794
1849,1919,1901
1883,1867,1904
1936,1817,1776
1920,1859,1805
1875,1902,1879
1838,1914,1904
1831,1841,1808
1897,1827,1807
1890,1910,1902
1869,1909,1875
1893,1829,1777
1884,1840,1796
1854,1883,1933
1835,1898,1911
1862,1825,1788
1954,1857,1808
1861,1905,1904
1801,1877,1900
1839,1824,1791
1896,1855,1810
1879,1910,1954
1862,1893,1934
1875,1839,1751
1890,1843,1756
1875,1903,1901
1824,1888,1882
1829,1811,1722
1872,1813,1762
1889,1903,1887
1933,1918,1955
1891,1838,1770
1893,1835,1765
1807,1893,1913
1769,1886,1935
1807,1839,1791
1873,1838,1781
1883,1908,1920
1807,1883,1898
1840,1824,1811
1903,1855,1837
1865,1897,1915
1887,1877,1871
1895,1811,1749
1889,1842,1808
1831,1904,1921
1837,1888,1911
1901,1821,1773
1989,1857,1786
1913,1920,1875
1755,1873,1941
1755,1802,1762
1870,1851,1815
1908,1904,1908
1844,1846,1874
1855,1806,1764
1871,1842,1827
1863,1903,1911
1841,1855,1895
1870,1802,1759
1923,1855,1812
1910,1903,1926
1909,1887,1872
1873,1815,1767
1837,1841,1786
1808,1920,1967
1771,1863,1866
1914,1831,1766
1940,1851,1735
1856,1885,1979
1815,1872,1917
1845,1840,1790
1883,1828,1781
1867,1892,1936
1840,1873,1953
1886,1851,1826
1931,1859,1776
1913,1911,1922
1856,1882,1892
1845,1820,1827
1857,1849,1799
1895,1888,1894
1850,1871,1879
1831,1809,1793
1886,1856,1815
1865,1902,1927
1827,1871,1879
1911,1808,1755
1943,1850,1783
1827,1917,1944
1793,1886,1915
1860,1809,1757
1894,1834,1818
1879,1904,1972
1840,1887,1936
1855,1824,1799
1899,1858,1831
1859,1901,1927
1821,1856,1898
1919,1820,1808
1936,1831,1815
1875,1865,1903
1782,1871,1872
1894,1828,1771
1929,1842,1887
1837,1895,1959
1782,1889,1931
1851,1835,1745
1937,1840,1791
1865,1899,1923
1819,1886,1904
1871,1826,1778
1919,1822,1773
1845,1902,1918
1823,1893,1915
1842,1830,1782
1897,1846,1787
1852,1888,1891
1831,1842,1881
1951,1822,1834
1970,1856,1760
1895,1903,1895
1808,1884,1927
1826,1829,1840
1859,1844,1806
1835,1889,1911
1840,1869,1861
1951,1815,1763
1919,1849,1814
1870,1900,1889
1797,1863,1904
1835,1825,1847
1880,1843,1836
1872,1866,1920
1914,1847,1853
1870,1814,1739
1857,1857,1808
1827,1904,1920
1791,1870,1897
1821,1806,1777
1917,1845,1786
1889,1911,1946
1837,1885,1931
1858,1813,1785
1902,1838,1808
1876,1903,1930
1834,1877,1911
1854,1815,1789
1919,1867,1823
1877,1898,1915
1838,1862,1886
1934,1811,1754
1975,1865,1794
1851,1907,1918
1831,1871,1838
1853,1799,1750
1901,1839,1814
1909,1899,1926
1861,1894,1911
1882,1837,1788
1873,1843,1795
1837,1877,1934
1802,1884,1915
1840,1827,1783
1881,1843,1803
1859,1883,1886
1871,1879,1895
1885,1823,1765
1968,1835,1776
1922,1885,1879
1863,1867,1881
1822,1831,1809
1827,1826,1799
1847,1889,1923
1855,1861,1891
1890,1809,1799
1898,1846,1795
1855,1907,1918
1777,1872,1846
1833,1826,1777
1904,1861,1834
1903,1904,1939
1879,1858,1869
1886,1808,1780
1915,1834,1811
1891,1900,1913
1835,1875,1902
1886,1824,1785
1902,1840,1779
1839,1904,1936
1795,1907,1920
1875,1811,1794
1927,1836,1781
1867,1894,1881
1821,1859,1884
1860,1824,1818
1867,1840,1804
1854,1927,1905
1870,1856,1911
1903,1781,1745
1902,1843,1767
1872,1919,1930
1839,1887,1939
1916,1825,1809
1941,1872,1792
1870,1934,1902
1792,1903,1909
1838,1795,1795
1891,1839,1822
1895,1898,1904
1857,1861,1872
1873,1810,1763
1902,1830,1808
1872,1872,1909
1794,1827,1872
1805,1805,1776
1931,1829,1776
1874,1889,1904
1795,1858,1891
1851,1844,1775
1923,1811,1808
1970,1886,1888
1835,1890,1856
1799,1776,1741
1836,1821,1796
1823,1889,1893
1842,1841,1889
1943,1786,1782
1919,1799,1767
1825,1889,1901
1793,1855,1924
1847,1817,1792
1856,1823,1797
1874,1873,1897
1874,1858,1872
1920,1795,1795
1957,1854,1806
1839,1905,1877
1776,1877,1903
1842,1819,1808
1905,1841,1829
1941,1892,1937
1840,1871,1866
1867,1813,1765
1883,1863,1830
1843,1899,1906
1830,1867,1887
1883,1822,1798
1918,1840,1842
1888,1915,1953
1840,1862,1863
1879,1834,1753
1901,1847,1825
1856,1921,1937
1841,1877,1904
1903,1872,1767
1967,1867,1824
1859,1908,1926
1778,1876,1874
1847,1819,1787
1905,1859,1811
1885,1899,1934
1878,1879,1891
1907,1846,1747
1879,1811,1807
1840,1906,1930
1842,1935,1943
1903,1827,1763
1962,1856,1804
1863,1923,1939
1839,1867,1904
1846,1867,1773
1887,1849,1808
1872,1904,1904
1867,1856,1891
1875,1840,1790
1887,1898,1837
1858,1878,1943
1815,1885,1893
1897,1840,1751
1985,1877,1782
1893,1811,1922
1824,1978,1898
1871,1734,1762
1906,1842,1816
1843,1909,1931
1795,1891,1905
1884,1840,1793
1937,1865,1813
1884,1919,1923
1823,1872,1892
1859,1840,1798
1906,1871,1799
1855,1920,1910
1840,1890,1895
1874,1840,1791
1905,1874,1808
1874,1916,1914
1851,1882,1872
1885,1827,1750
1940,1868,1808
1915,1930,1947
1909,1865,1882
1883,1859,1759
1887,1903,1799
1875,1916,1920
1834,1923,1911
1881,1846,1787
1930,1844,1792
1930,1968,1942
1827,1893,1873
1805,1777,1766
1844,1881,1823
1846,1913,1927
1840,1854,1887
1887,1844,1767
1904,1853,1803
1866,1906,1926
1849,1851,1877
1850,1815,1751
1904,1855,1799
1875,1918,1918
1840,1872,1882
1875,1815,1762
1904,1847,1795
1852,1880,1915
1830,1882,1872
1865,1823,1773
1898,1911,1808
1859,1856,1912
1835,1833,1891
1866,1818,1775
1892,1843,1817
1857,1869,1925
1829,1883,1873
1865,1831,1759
1893,1856,1807
1854,1901,1917
1826,1873,1883
1871,1818,1772
1895,1850,1807
1856,1898,1919
1835,1920,1879
1871,1819,1776
1901,1879,1814
1865,1901,1921
1838,1829,1882
1872,1839,1779
1895,1905,1815
1860,1943,1919
1846,1960,1882
1877,1933,1779
1904,1915,1817
1856,1965,1921
1835,1978,1886
1862,1936,1767
1898,1970,1809
1863,2112,1927
1841,2002,1889
1873,2022,1774
1897,2064,1803
1851,2142,1921
1823,2147,1885
1853,2094,1763
1888,2217,1806
1851,2293,1920
1828,2313,1891
1856,2257,1777
1889,2251,1808
1854,2374,1927
1826,2407,1890
1860,2332,1767
1886,2453,1802
1855,2582,1900
1831,2512,1873
1858,2480,1762
1887,2551,1806
1841,2629,1911
1815,2629,1872
1859,2600,1759
1889,2673,1804
1840,2747,1913
1826,2745,1871
1856,2707,1746
1873,2749,1779
1850,2871,1899
1827,2805,1881
1850,2759,1751
1879,2794,1775
1850,2891,1881
1815,2830,1846
1845,2746,1739
1875,2798,1782
1850,2836,1887
1839,2794,1845
1857,2752,1717
1872,2790,1785
1941,2830,1917
1936,2786,1791
1792,2696,1683
1791,2757,1813
1823,2811,1950
1827,2782,1855
1853,2691,1710
1986,2663,1764
1871,2782,1920
1744,2720,1850
1776,2626,1727
1829,2670,1776
1813,2675,1879
1801,2640,1857
1851,2590,1680
1913,2587,1709
1849,2642,1905
1775,2624,1917
1815,2502,1755
1882,2542,1751
1935,2611,1901
1919,2534,1857
1790,2463,1763
1857,2506,1808
1821,2558,1926
1849,2511,1946
1808,2392,1744
1915,2389,1707
1965,2398,1827
1764,2384,1877
1824,2342,1771
1863,2320,1819
1800,2347,1922
1776,2307,1815
1903,2261,1812
1927,2239,1793
1777,2284,1937
1755,2207,1859
1861,2163,1776
1875,2167,1818
1808,2254,1891
1837,2160,1857
1930,2079,1713
1919,2091,1780
1830,2081,1922
1866,2090,1901
1892,1979,1744
1814,2017,1742
1837,2021,1951
1840,1980,1902
1917,1917,1802
1895,1885,1775
1730,1937,1907
1774,1913,1878
1903,1901,1771
1904,1809,1808
1827,1861,1904
1838,1821,1844
1891,1847,1771
1868,1799,1834
1798,1797,1948
1794,1750,1886
1926,1665,1733
2000,1730,1805
1803,1772,1939
1746,1699,1906
1859,1661,1811
1891,1680,1805
1901,1682,1893
1873,1662,1903
1923,1535,1727
1989,1600,1812
1815,1691,1963
1746,1622,1926
1871,1531,1774
1895,1531,1840
1870,1595,1963
1862,1511,1869
1890,1469,1735
1922,1470,1863
1925,1533,1968
1835,1367,1871
1819,1307,1773
1922,1343,1808
1855,1375,1918
1811,1296,1840
1900,1251,1777
1914,1303,1856
1823,1296,2001
1855,1235,1904
1943,1193,1730
1906,1193,1808
1774,1279,1907
1837,1204,1856
1956,1168,1840
1936,1181,1841
1840,1178,1895
1783,1187,1939
1840,1107,1834
1902,1110,1792
1883,1182,1946
1883,1167,1866
1975,1023,1750
1902,1113,1817
1923,1237,1967
1869,1095,1925
1883,1007,1780
1867,1095,1801
1749,1119,1887
1791,1102,1936
1904,1089,1847
1943,1054,1863
1872,1123,1949
1825,1093,1850
1904,1020,1751
1927,1023,1790
1909,1091,1936
1890,1062,1872
1837,1014,1808
1808,1050,1869
1869,1101,1921
1912,1111,1897
1873,1017,1773
1818,1057,1856
1824,1106,1996
1839,1137,1911
1875,997,1770
1899,1155,1776
1927,1152,1923
1850,1096,1895
1818,1055,1776
1927,1145,1819
1971,1186,1936
1911,1091,1855
1841,1079,1716
1799,1163,1879
1863,1171,2007
1969,1138,1905
1861,1102,1769
1808,1152,1827
1904,1160,1923
1866,1161,1885
1871,1117,1804
1879,1227,1843
1877,1232,1913
1935,1183,1827
1909,1136,1811
1866,1189,1890
1882,1244,1925
1821,1202,1829
1799,1194,1814
1841,1230,1870
1821,1278,1934
1825,1262,1872
1963,1207,1782
1929,1237,1840
1813,1305,1952
1831,1296,1903
1889,1200,1741
2034,1259,1757
1870,1343,1894
1744,1326,1934
1808,1263,1814
1878,1363,1830
1898,1398,1905
1936,1407,1887
1855,1349,1715
1857,1328,1797
1840,1386,2000
1835,1420,1930
1845,1377,1790
1881,1415,1797
1902,1451,1920
1919,1429,1871
1949,1386,1735
1904,1439,1802
1760,1488,1965
1751,1457,1926
1857,1450,1776
1925,1456,1811
1876,1584,1936
1823,1510,1921
1872,1455,1803
1938,1463,1787
1920,1557,1915
1825,1595,1867
1853,1495,1791
1893,1485,1803
1931,1623,1889
1894,1578,1857
1808,1616,1802
1834,1580,1840
1844,1626,1947
1843,1613,1904
1889,1633,1764
1898,1521,1840
1861,1616,1986
1849,1621,1867
1859,1584,1736
1902,1646,1817
1872,1679,1898
1833,1661,1846
1818,1627,1754
1866,1660,1846
1844,1689,1925
1886,1687,1847
1891,1631,1722
1893,1647,1751
1840,1789,1927
1847,1707,1927
1897,1780,1815
1883,1693,1782
1806,1710,1873
1810,1728,1881
1846,1703,1779
1933,1790,1815
1905,1774,1909
1808,1747,1863
1817,1775,1794
1891,1759,1851
1901,1820,1894
1882,1763,1846
1827,1680,1743
1919,1746,1797
1843,1766,1922
1814,1831,1907
1878,1780,1824
1899,1806,1830
1872,1835,1931
1819,1821,1887
1856,1805,1791
1905,1811,1792
1856,1921,1882
1814,1854,1865
1867,1780,1762
1843,1798,1796
1855,1889,1940
1840,1878,1925
1892,1834,1762
1901,1839,1808
1856,1894,1923
1831,1873,1884
1882,1857,1767
1955,1883,1779
1845,1926,1922
1810,1905,1937
1851,1856,1793
1903,1877,1830
1891,1947,1902
1855,1903,1846
1866,1840,1765
1902,1914,1854
1807,1950,1911
1775,1916,1840
1864,1845,1732
1921,1904,1842
1925,1991,1919
1856,1935,1850
1866,1883,1787
1885,1929,1856
1872,1978,1973
1797,1937,1859
1825,1891,1765
1871,1949,1826
1904,1996,1935
1877,1968,1869
1888,1899,1699
1870,1927,1805
1814,1989,1957
1781,1970,1878
1877,1929,1791
1910,1949,1819
1910,1994,1935
1862,1977,1892
1846,1958,1776
1862,1983,1785
1885,2021,1936
1839,1970,1890
1890,1926,1799
1995,1973,1813
1841,2003,1899
1755,1965,1872
1838,1906,1776
1906,1975,1808
1869,2025,1887
1907,1993,1834
1835,1965,1799
1872,1984,1808
1840,2000,1895
1831,1987,1902
1843,1950,1795
1872,1981,1830
1849,2005,1907
1882,1994,1853
1936,1946,1746
1892,1990,1824
1840,2033,1943
1843,2021,1878
1910,1955,1741
1878,1984,1776
1799,2031,1933
1803,1991,1901
1870,1938,1773
1863,1967,1803
1903,2037,1920
1876,2003,1853
1840,1968,1775
1837,2001,1821
1851,2030,1929
1827,1991,1858
1866,1940,1746
1883,1987,1806
1873,2082,1930
1894,2021,1843
1962,1968,1757
1936,1986,1815
1750,2034,1943
1730,1989,1874
1863,1957,1767
1897,1984,1847
1919,2033,1921
1859,2002,1840
1872,1970,1773
1878,2015,1840
1769,2039,1886
1787,2011,1873
1856,1968,1767
1907,1982,1797
1867,2032,1904
1823,2007,1872
1889,1952,1771
1905,1987,1806
1879,2037,1911
1808,2002,1871
1833,1968,1776
1951,1994,1827
1875,2030,1904
1770,1987,1872
1807,1943,1757
1903,2000,1779
1850,2039,1890
1810,2005,1896
1807,1936,1765
1894,1965,1813
1878,2010,1901
1831,1990,1895
1861,1965,1787
1891,1998,1795
1989,2038,1879
1841,1973,1872
1741,1946,1779
1777,1981,1831
1814,2025,1939
1850,1991,1856
1869,1943,1738
1871,1974,1801
1847,2020,1919
1830,2000,1872
1857,1968,1762
1901,1961,1765
1845,1994,1911
1840,1973,1897
1849,1931,1795
1860,1984,1838
1802,2019,1934
1826,1978,1879
1915,1920,1755
1872,1969,1814
1800,2018,1945
1802,1984,1877
1899,1935,1760
1919,1954,1792
1857,2010,1904
1838,1958,1833
1892,1951,1759
1837,1962,1791
1808,2005,1905
1802,1965,1911
1831,1911,1776
1904,1954,1810
1907,2000,1872
1846,1962,1841
1904,1921,1753
1915,1938,1831
1791,2000,1968
1759,1969,1873
1887,1936,1779
1917,1953,1769
1791,2007,1926
1802,1969,1905
1871,1923,1765
1877,1944,1810
1840,2000,1925
1805,1963,1878
1856,1915,1762
1871,1955,1817
1845,1981,1913
1852,1959,1861
1931,1931,1776
1865,1935,1788
1813,1965,1885
1829,1936,1840
1885,1904,1750
1895,1949,1855
1837,1966,1904
1831,1938,1838
1895,1910,1797
1920,1957,1831
1853,1983,1891
1776,1936,1855
1818,1888,1757
1861,1938,1811
1873,1995,1936
1841,1968,1901
1811,1884,1657
1843,1926,1813
1838,1983,1926
1806,1953,1910
1857,1890,1748
1890,1907,1814
1843,1968,1905
1811,1957,1817
1843,1911,1715
1919,1946,1819
1859,1959,1945
1829,1933,1856
1842,1893,1746
1899,1918,1744
1854,1955,1906
1830,1913,1850
1808,1871,1766
1831,1910,1820
1825,1950,1947
1846,1937,1868
1887,1879,1754
1880,1893,1805
1801,1920,1903
1777,1920,1910
1825,1874,1743
1885,1904,1756
1853,1957,1931
1840,1917,1878
1871,1861,1740
1899,1905,1791
1868,1936,1898
1799,1925,1910
1821,1857,1793
1872,1886,1791
1835,1936,1904
1783,1918,1850
1872,1867,1728
1909,1898,1797
1884,1959,1953
1805,1924,1916
1808,1856,1776
1846,1887,1817
1872,1923,1871
1934,1897,1806
1821,1855,1786
1804,1901,1856
1805,1949,1955
1855,1883,1884
1890,1855,1741
1873,1888,1803
1834,1933,1933
1855,1875,1869
1917,1843,1719
1855,1876,1762
1858,1933,1916
1811,1879,1879
1855,1834,1751
1889,1873,1797
1904,1931,1880
1840,1893,1908
1831,1842,1795
1903,1894,1803
1831,1924,1878
1785,1876,1872
1875,1856,1739
1956,1886,1808
1872,1930,1933
1805,1902,1906
1853,1850,1749
1904,1881,1806
1810,1914,1918
1803,1895,1889
1869,1858,1776
1942,1875,1789
1904,1922,1913
1808,1918,1891
1806,1853,1826
1861,1861,1825
1854,1904,1938
1841,1887,1872
1856,1837,1799
1889,1881,1831
1895,1941,1930
1957,1879,1856
1948,1829,1749
1841,1855,1825
1829,1913,1854
1868,1903,1929
1902,1836,1774
1857,1869,1823
1815,1906,1923
1837,1894,1900
1892,1828,1794
1954,1856,1815
1897,1935,1923
1810,1901,1889
1871,1833,1808
1894,1879,1847
1871,1906,1927
1873,1872,1841
1945,1823,1785
1929,1872,1840
1819,1910,1955
1790,1895,1950
1843,1827,1775
1889,1870,1758
1900,1931,1978
1886,1875,1856
1913,1819,1775
1902,1855,1807
1839,1911,1969
1795,1883,1821
1840,1830,1776
1947,1872,1779
1973,1919,1955
1874,1856,1867
1785,1851,1840
1803,1883,1872
1827,1918,1994
1866,1878,1884
1968,1822,1749
1875,1847,1805
1823,1903,1902
1819,1867,1839
1891,1838,1808
1904,1857,1882
1834,1906,1937
1840,1862,1839
1888,1815,1733
1922,1856,1808
1841,1919,1942
1797,1886,1935
1856,1825,1827
1913,1856,1850
1863,1910,1936
1854,1895,1867
1861,1831,1735
1883,1853,1803
1876,1920,1968
1871,1885,1877
1851,1826,1786
1883,1859,1819
1831,1904,1913
1839,1873,1889
1851,1829,1843
1950,1879,1808
1856,1900,1920
1793,1848,1858
1817,1838,1795
1903,1872,1898
1872,1899,1927
1856,1855,1839
1961,1809,1731
1871,1858,1837
1783,1902,1958
1810,1868,1855
1834,1813,1749
1845,1835,1845
1808,1893,1936
1791,1856,1846
1843,1801,1770
1885,1839,1821
1878,1890,1930
1866,1872,1873
1843,1812,1734
1853,1840,1818
1791,1875,1935
1841,1850,1879
1877,1815,1766
1882,1871,1814
1871,1923,1902
1877,1873,1839
1821,1815,1764
1799,1856,1845
1822,1899,1923
1845,1856,1840
1872,1808,1744
1875,1856,1835
1860,1889,1952
1792,1856,1882
1866,1786,1735
1907,1849,1777
1823,1894,1878
1797,1866,1866
1822,1815,1763
1840,1850,1839
1819,1891,1950
1814,1851,1871
1934,1872,1751
2002,1887,1741
1778,1882,1913
1718,1860,1938
1834,1823,1810
1870,1862,1841
1863,1892,1925
1858,1863,1867
1891,1833,1788
1964,1873,1855
1838,1895,1915
1775,1855,1872
1841,1797,1776
1875,1870,1866
1838,1886,1969
1835,1872,1881
1901,1823,1727
1913,1856,1808
1854,1905,1922
1801,1861,1900
1867,1799,1801
1907,1845,1827
1842,1872,1927
1815,1851,1888
1881,1804,1780
1939,1847,1801
1858,1902,1986
1798,1855,1977
1808,1803,1750
1850,1838,1753
1856,1885,1890
1842,1859,1879
1871,1822,1779
1890,1846,1814
1845,1887,1926
1808,1851,1856
1840,1828,1767
1997,1863,1851
1885,1904,1949
1801,1858,1866
1883,1802,1717
1881,1846,1808
1808,1874,1967
1792,1843,1891
1883,1819,1770
1857,1846,1825
1807,1881,1955
1831,1867,1914
1917,1819,1779
1941,1844,1808
1857,1895,1866
1749,1859,1869
1829,1801,1798
1882,1834,1826
1871,1897,1889
1901,1861,1855
1931,1803,1760
1856,1839,1838
1779,1887,1948
1833,1850,1825
1875,1792,1751
1914,1850,1865
1815,1885,1979
1788,1843,1873
1900,1805,1744
1919,1847,1809
1854,1879,1918
1856,1842,1894
1867,1792,1744
1853,1835,1822
1883,1875,1904
1837,1838,1885
1893,1811,1771
1877,1868,1814
1803,1891,1938
1790,1853,1893
1866,1809,1779
1888,1853,1821
1913,1920,1938
1927,1872,1885
1951,1808,1776
1801,1850,1855
1754,1897,1949
1798,1857,1895
1943,1841,1788
1984,1884,1808
1933,1903,1898
1771,1844,1871
1808,1830,1806
1872,1859,1867
1873,1905,1905
1809,1856,1854
1830,1808,1808
1856,1837,1835
1847,1881,1929
1829,1817,1862
1937,1776,1712
1904,1834,1733
1811,1907,1904
1770,1869,1887
1834,1817,1797
1863,1847,1818
1853,1904,1927
1857,1858,1869
1920,1815,1783
1881,1875,1869
1808,1919,1959
1810,1863,1888
1906,1805,1767
1959,1847,1840
1840,1891,1936
1823,1871,1857
1872,1803,1764
1913,1857,1830
1911,1904,1925
1793,1864,1872
1844,1819,1777
1866,1857,1842
1823,1908,1943
1835,1872,1878
1897,1809,1751
1909,1839,1802
1899,1897,1907
1895,1869,1919
1904,1813,1805
1889,1857,1815
1857,1903,1933
1825,1872,1904
1872,1839,1809
1904,1884,1860
1837,1905,1936
1841,1864,1870
1873,1821,1771
1883,1863,1845
1855,1923,1925
1836,1885,1889
1898,1828,1765
1955,1856,1779
1862,1899,1909
1793,1866,1889
1888,1830,1770
1943,1869,1845
1860,1903,1968
1851,1856,1823
1841,1808,1725
1881,1872,1871
1889,1918,1981
1817,1845,1876
1886,1796,1749
1921,1871,1838
1811,1902,1906
1809,1868,1887
1936,1834,1773
1914,1866,1840
1829,1911,1956
1792,1879,1894
1886,1829,1795
1917,1872,1842
1871,1905,1966
1864,1866,1899
1866,1840,1761
1904,1877,1800
1846,1905,1922
1858,1861,1895
1941,1819,1790
1954,1860,1840
1844,1904,1941
1764,1851,1897
1866,1824,1783
1887,1852,1842
1919,1889,1929
1879,1850,1827
1799,1807,1765
1812,1844,1858
1829,1891,1931
1853,1857,1877
1872,1775,1738
1905,1798,1805
1868,1872,1906
1804,1840,1859
1831,1789,1723
1881,1823,1810
1857,1866,1907
1809,1840,1850
1849,1786,1719
1819,1806,1807
1790,1879,1935
1783,1838,1840
1867,1791,1718
1869,1818,1796
1855,1887,1905
1803,1846,1824
1811,1792,1742
1878,1838,1843
1871,1874,1934
1806,1824,1839
1878,1795,1755
1926,1840,1793
1865,1872,1897
1803,1842,1856
1808,1815,1774
1867,1855,1840
1863,1891,1947
1808,1858,1874
1858,1807,1735
1872,1829,1810
1837,1881,1946
1834,1869,1871
1873,1813,1759
1925,1857,1810
1885,1886,1921
1811,1840,1821
1837,1779,1716
1855,1821,1786
1773,1869,1917
1747,1843,1846
1815,1807,1756
1861,1837,1785
1811,1867,1872
1808,1821,1814
1883,1794,1755
1919,1838,1809
1767,1850,1887
1751,1826,1819
1831,1799,1728
1872,1840,1806
1808,1879,1877
1855,1853,1851
1880,1789,1742
1749,1802,1742
1697,1819,1857
1745,1808,1831
1860,1762,1680
1897,1819,1771
1839,1841,1872
1725,1792,1839
1744,1776,1771
1814,1843,1792
1808,1872,1898
1773,1810,1847
1856,1775,1715
