1889,2013,1903
1922,1898,1703
1920,1903,1728
1814,1963,1843
1767,1962,1885
1808,1936,1805
1906,1961,1809
1868,1983,1904
1821,1957,1847
2061,1923,1772
1961,1930,1792
1809,1987,1913
1715,1936,1872
1839,1936,1783
1938,1936,1778
1887,1983,1898
1799,1983,1931
1831,1886,1779
1919,1908,1782
1904,1984,1936
1850,1994,1941
1870,1920,1777
1986,1913,1749
1903,1972,1891
1917,1992,1934
1987,1917,1776
2042,1936,1716
1813,1978,1937
1747,1968,1989
1814,1898,1790
1925,1930,1727
1968,1968,1875
1934,1980,1957
1819,1885,1783
1887,1908,1786
1904,1968,1937
1864,1938,1881
1919,1913,1827
1998,1919,1851
1918,1981,1936
1874,1963,1935
1904,1918,1814
1959,1874,1764
1949,1935,1855
1907,1968,1936
1851,1925,1802
1915,1878,1728
1979,1968,1955
1946,1961,1990
1933,1853,1791
1934,1877,1744
1971,1967,1937
1847,1972,1885
1871,1902,1840
1921,1872,1833
1954,1952,1941
1906,1941,1943
1931,1858,1808
1970,1856,1751
2029,1945,1904
1918,1936,1923
1902,1890,1861
1919,1877,1830
1905,1920,1886
1889,1935,1917
1990,1876,1810
1998,1849,1789
1919,1934,1961
1887,1953,1942
1935,1885,1829
1999,1847,1776
2000,1903,1849
1968,1899,1911
1898,1838,1797
1889,1865,1794
1907,1936,1953
1898,1918,1967
1939,1845,1858
1971,1856,1779
1936,1906,1875
1902,1920,1906
1916,1873,1851
1921,1858,1841
1917,1879,1907
1824,1901,1984
1936,1840,1829
1925,1867,1786
1911,1904,1911
1907,1902,1908
1967,1836,1793
2015,1856,1865
1968,1903,1966
1897,1903,1938
1932,1843,1837
1968,1855,1840
1953,1904,1936
1915,1892,1914
1908,1830,1825
1969,1854,1802
1983,1918,1930
1915,1902,1969
1874,1831,1823
1915,1809,1744
1955,1883,1856
2047,1909,1923
1917,1823,1777
1975,1829,1817
1906,1892,1953
1854,1891,1933
1989,1855,1840
2147,1859,1790
1951,1858,1866
1776,1883,1939
1875,1831,1839
1962,1833,1830
2015,1875,1917
1893,1906,1937
2017,1871,1835
1904,1859,1823
1850,1897,1922
1949,1884,1949
1901,1819,1818
1920,1819,1775
1989,1897,1909
1959,1895,1942
1910,1829,1856
1958,1835,1819
1937,1898,1886
1969,1891,1952
1929,1839,1839
1966,1811,1776
1950,1895,1883
1931,1930,2036
1869,1833,1870
1891,1807,1777
1904,1883,1898
1904,1899,1937
1888,1823,1780
2033,1869,1826
1977,1920,1943
1922,1900,2005
1840,1789,1792
1935,1833,1775
1938,1890,1905
1941,1842,1885
2000,1809,1807
1968,1861,1853
1840,1929,1965
1834,1886,1904
1931,1808,1807
1936,1806,1793
1939,1903,1951
1872,1890,1985
1968,1840,1837
1950,1818,1808
1970,1873,1915
1890,1855,1902
1893,1845,1856
1975,1841,1796
1984,1906,1911
1875,1890,1983
1874,1826,1867
2000,1812,1791
2018,1883,1909
1888,1872,1952
1857,1778,1758
1965,1849,1823
1962,1901,1910
1945,1901,1914
1871,1829,1890
1917,1849,1849
1938,1908,1921
1927,1879,1959
1920,1807,1815
1989,1827,1747
1962,1893,1936
1855,1894,1999
1858,1842,1808
1935,1842,1818
1925,1890,1942
1872,1860,1918
1954,1797,1777
2099,1830,1795
1926,1902,1951
1838,1897,1982
1867,1810,1843
1950,1785,1811
1943,1885,1909
1904,1905,1951
1999,1814,1777
2082,1844,1780
1904,1901,1918
1847,1888,1985
1886,1803,1851
1985,1871,1835
1953,1932,1936
1842,1885,1957
1902,1810,1862
2001,1845,1815
1975,1908,1910
1904,1904,1951
1898,1809,1844
1962,1829,1766
1971,1917,1859
1888,1904,1984
1861,1819,1889
1945,1835,1834
1943,1904,1913
1920,1904,1936
1946,1840,1835
2000,1851,1814
1968,1854,1847
1963,1883,1885
1968,1847,1792
1920,1840,1813
1873,1881,1957
1851,1903,1998
1889,1854,1791
1968,1840,1789
1995,1890,1904
1968,1904,1959
1971,1837,1829
1954,1848,1827
1870,1894,1904
1903,1918,1946
1933,1833,1813
1965,1839,1750
1904,1895,1929
1872,1890,1959
1904,1829,1818
1957,1838,1766
1951,1899,1892
1913,1905,1934
1906,1853,1856
1917,1829,1840
1947,1902,1927
1903,1897,1938
1949,1827,1776
2017,1855,1761
1908,1914,1936
1817,1919,1965
1857,1847,1814
1927,1826,1778
1892,1870,1872
1885,1858,1915
1937,1847,1837
1971,1859,1806
2029,1903,1878
1890,1892,1927
1854,1855,1860
1888,1846,1808
1904,1901,1904
1898,1904,1937
1962,1820,1797
2102,1790,1684
1895,1904,1902
1789,1926,1989
1840,1843,1842
1918,1831,1791
1937,1901,1925
1871,1878,1909
1893,1825,1771
1946,1837,1788
1936,1908,1959
1898,1914,1964
1891,1796,1761
1951,1825,1775
1914,1908,1963
1842,1900,1983
1884,1838,1817
1935,1839,1778
1951,1899,1873
1929,1904,1887
1894,1834,1793
1909,1827,1780
1943,1906,1937
1866,1915,1993
1845,1842,1866
1913,1842,1798
1930,1904,1904
1999,1899,1905
1951,1820,1761
1958,1837,1766
1855,1893,1937
1811,1889,1950
1828,1825,1808
1893,1829,1776
1925,1920,1933
1914,1911,1930
1921,1844,1786
1949,1847,1791
1893,1894,1930
1824,1883,1905
1888,1830,1798
1965,1836,1776
1905,1881,1872
1833,1886,1893
1895,1840,1791
2023,1877,1789
2064,1919,1894
1826,1895,1939
1761,1822,1820
1837,1821,1767
1891,1875,1906
1874,1898,1953
1876,1839,1825
1930,1835,1786
1917,1885,1885
1875,1889,1872
1939,1865,1791
1980,1833,1788
1893,1876,1895
1956,1856,1927
1925,1815,1749
1809,1835,1793
1803,1844,1933
1852,1935,1983
1898,1840,1843
1930,1853,1798
1908,1882,1904
1869,1911,1920
1886,1840,1809
1924,1872,1801
1877,1882,1878
1823,1908,1870
1923,1842,1776
2033,1882,1776
1875,1901,1878
1799,1882,1941
1840,1840,1840
1917,1798,1771
1967,1885,1889
1955,1905,1935
1875,1845,1803
1845,1841,1791
1847,1915,1913
1851,1904,1927
1893,1844,1841
1918,1847,1742
1875,1853,1824
1872,1870,1897
2042,1846,1799
1946,1842,1798
1840,1887,1936
1819,1919,1943
1871,1826,1808
1925,1869,1779
1895,1871,1870
2010,1942,1902
1876,1877,1744
1839,1823,1776
1895,1862,1894
1876,1872,1924
1940,1840,1839
1899,1835,1787
1862,1889,1904
1867,1901,1921
1842,1840,1733
1904,1840,1765
1885,1878,1903
1914,1891,1916
1851,1821,1803
1915,1820,1781
1973,1925,1888
1805,1862,1883
1828,1821,1776
1904,1807,1792
1891,1904,1861
1856,1873,1902
1818,1851,1830
1878,1890,1802
1891,1904,1857
1872,1907,1910
1904,1842,1813
1907,1853,1770
1869,1840,1894
1835,1941,1937
1850,1845,1793
1903,1840,1775
1883,1874,1893
1861,1899,1911
1871,1799,1792
1906,1774,1773
1888,1899,1888
1834,1853,1905
1870,1826,1747
1984,1826,1724
1910,1894,1897
1771,1873,1966
1803,1846,1833
1879,1840,1783
1889,1893,1895
1852,1897,1920
1878,1837,1799
1935,1840,1772
1879,1899,1877
1835,1904,1915
1853,1834,1804
1898,1843,1780
1884,1903,1883
1845,1907,1907
1861,1793,1797
1904,1870,1789
1885,1856,1904
1853,1887,1918
1860,1831,1795
1905,1839,1781
1887,1895,1894
1843,1875,1920
1867,1824,1792
1911,1822,1778
1883,1863,1897
1846,1850,1915
1863,1809,1797
1899,1806,1779
1892,1862,1909
1853,1868,1933
1863,1797,1790
1910,1809,1776
1883,1884,1874
1847,1854,1909
1861,1813,1797
1897,1798,1767
1879,1810,1876
1852,1843,1910
1867,1843,1799
1907,1819,1776
1902,1918,1894
1850,1919,1895
1859,1857,1781
1919,1789,1773
1881,1906,1861
1841,1985,1883
1856,1872,1792
1893,1953,1773
1872,1958,1872
1840,1984,1907
1851,1899,1797
1882,1936,1763
1872,2011,1873
1835,2022,1891
1850,2010,1767
1893,1950,1753
1873,2045,1879
1833,2006,1893
1854,1974,1781
1885,1980,1767
1866,2031,1882
1835,2077,1904
1867,1982,1776
1878,1990,1759
1845,2063,1888
1823,2059,1904
1850,1954,1793
1917,2009,1762
1854,2068,1872
1801,2066,1904
1828,2033,1790
1869,1980,1767
1859,2070,1879
1827,2113,1910
1832,2026,1788
1869,2015,1767
1856,2170,1872
1823,2077,1902
1840,2017,1777
1870,1958,1771
1847,2063,1881
1808,2041,1910
1824,2045,1778
1866,2032,1763
1847,2082,1891
1815,2043,1907
1838,2007,1783
1872,2002,1766
1855,2080,1875
1818,2081,1904
1838,2016,1789
1872,2018,1759
1847,2079,1882
1817,2084,1904
1842,2004,1783
1887,2002,1778
1856,2061,1887
1822,2059,1910
1846,2000,1807
1886,2004,1777
1855,2064,1879
1811,2061,1904
1839,1994,1786
1871,1994,1760
1867,2061,1876
1821,2059,1899
1840,1995,1779
1883,1998,1773
1856,2047,1875
1822,2047,1901
1837,1985,1776
1875,1994,1775
1844,2054,1904
1823,2045,1925
1854,1993,1781
1890,2015,1782
1870,2087,1904
1808,2101,1915
1828,2058,1799
1872,2071,1778
1853,2139,1891
1829,2149,1919
1847,2097,1799
1887,2123,1783
1857,2190,1887
1812,2195,1904
1831,2144,1783
1875,2157,1777
1861,2217,1894
1829,2217,1910
1837,2167,1797
1885,2172,1775
1858,2227,1890
1821,2224,1907
1845,2163,1794
1883,2167,1780
1857,2221,1890
1823,2229,1915
1842,2180,1792
1892,2180,1774
1865,2242,1893
1829,2229,1914
1842,2161,1791
1878,2171,1766
1869,2230,1897
1828,2229,1922
1842,2160,1803
1886,2161,1776
1879,2228,1900
1863,2235,1932
1857,2143,1779
1871,2145,1776
1842,2199,1907
1815,2207,1933
1856,2152,1811
1895,2132,1776
1855,2185,1900
1819,2182,1929
1840,2120,1806
1885,2115,1787
1873,2171,1904
1835,2167,1922
1849,2107,1813
1887,2107,1789
1877,2169,1903
1827,2163,1923
1841,2097,1810
1875,2096,1795
1871,2147,1911
1829,2145,1927
1842,2084,1812
1886,2095,1799
1862,2144,1913
1829,2134,1929
1846,2067,1811
1889,2069,1796
1875,2121,1910
1830,2116,1920
1843,2045,1808
1883,2035,1788
1861,2105,1904
1831,2103,1934
1850,2038,1809
1888,2038,1793
1872,2096,1907
1839,2090,1927
1851,2032,1812
1887,2025,1789
1872,2088,1906
1845,2081,1938
1856,2015,1808
1900,2016,1793
1874,2067,1907
1836,2061,1935
1863,1999,1820
1902,1989,1792
1875,2039,1906
1840,2037,1938
1858,1986,1813
1896,1984,1799
1882,2022,1911
1850,2022,1933
1865,1982,1821
1882,1983,1804
1865,2030,1911
1830,2017,1935
1855,1955,1823
1904,1955,1808
1877,2006,1921
1846,1999,1934
1866,1936,1806
1895,1936,1796
1876,1999,1933
1840,1987,1936
1859,1920,1808
1899,1918,1806
1883,1971,1918
1835,1966,1926
1847,1895,1803
1900,1895,1797
1875,1936,1908
1837,1943,1925
1853,1879,1808
1895,1877,1792
1882,1937,1908
1834,1931,1929
1860,1867,1809
1884,1871,1789
1865,1927,1914
1835,1920,1941
1863,1863,1823
1899,1866,1798
1875,1922,1919
1840,1917,1935
1853,1846,1820
1906,1861,1808
1879,1927,1919
1849,1917,1941
1871,1855,1872
1910,1847,1808
1886,1904,1910
1834,1899,1904
1872,1832,1802
1917,1834,1828
1886,1895,1951
1847,1889,1934
1870,1840,1812
1903,1827,1769
1872,1877,1946
1842,1889,1919
1857,1818,1805
1899,1821,1802
1891,1878,1960
1845,1873,1904
1862,1811,1805
1903,1819,1849
1898,1882,1934
1856,1867,1935
1861,1802,1798
1887,1805,1822
1872,1856,1871
1842,1857,1895
1855,1798,1817
1881,1802,1791
1859,1855,1919
1836,1859,1902
1855,1795,1827
1894,1797,1826
1872,1856,1946
1840,1853,1931
1857,1785,1838
1904,1792,1782
1878,1850,1915
1843,1845,1924
1865,1785,1809
1895,1787,1791
1881,1840,1930
1843,1837,1931
1872,1771,1813
1899,1777,1806
1872,1839,1920
1834,1840,1936
1856,1781,1807
1893,1780,1777
1877,1834,1925
1844,1833,1936
1870,1772,1810
1901,1777,1798
1873,1839,1909
1845,1831,1936
1866,1774,1824
1904,1776,1748
1878,1830,1872
1840,1830,1968
1852,1769,1843
1889,1775,1821
1861,1840,1876
1827,1840,1946
1857,1785,1827
1902,1792,1845
1883,1856,1947
1853,1855,1967
1871,1801,1837
1904,1808,1840
1871,1865,1920
1840,1866,1934
1853,1808,1805
1892,1811,1797
1883,1872,1934
1860,1870,1939
1872,1809,1808
1900,1817,1809
1886,1879,1923
1847,1872,1968
1863,1808,1817
1887,1822,1792
1872,1879,1918
1850,1872,1929
1869,1810,1811
1907,1822,1808
1875,1884,1907
1835,1881,1935
1856,1814,1819
1903,1814,1793
1872,1877,1898
1839,1873,1923
1856,1814,1774
1906,1822,1799
1889,1879,1904
1840,1870,1932
1855,1809,1808
1904,1826,1742
1879,1888,1917
1840,1883,1931
1855,1821,1776
1886,1824,1853
1868,1881,1910
1835,1873,1907
1857,1815,1807
1901,1823,1791
1873,1875,1902
1840,1871,1929
1858,1815,1806
1894,1834,1791
1868,1920,1910
1839,1939,1925
1863,1909,1801
1904,1938,1799
1872,1995,1905
1842,2005,1926
1855,1967,1801
1899,1987,1780
1879,2061,1935
1829,2064,1974
1855,2016,1827
1904,2036,1798
1899,2101,1931
1849,2101,1866
1854,2053,1799
1889,2064,1740
1876,2128,1920
1841,2129,1907
1857,2091,1789
1904,2096,1794
1886,2159,1958
1838,2155,1985
1858,2107,1817
1896,2112,1808
1872,2169,1914
1853,2160,1915
1866,2110,1814
1904,2116,1813
1874,2171,1920
1835,2159,1931
1854,2098,1856
1891,2103,1793
1881,2160,1952
1851,2154,1935
1861,2094,1811
1895,2096,1808
1875,2146,1915
1837,2135,1920
1869,2086,1803
1905,2091,1795
1869,2142,1924
1829,2133,1936
1862,2074,1785
1900,2078,1802
1867,2135,1895
1841,2133,1925
1857,2076,1795
1888,2081,1790
1867,2133,1921
1840,2123,1930
1865,2062,1811
1905,2067,1800
1887,2125,1890
1841,2115,1931
1861,2039,1849
1890,2054,1781
1872,2106,1941
1839,2101,1937
1872,2043,1806
1917,2039,1807
1861,2092,1945
1817,2082,1926
1846,2011,1825
1894,2021,1813
1872,2084,1919
1859,2073,1931
1863,2002,1825
1895,1998,1821
1874,2054,1927
1847,2045,1936
1879,1985,1808
1891,1987,1797
1866,2043,1925
1838,2043,1937
1856,1968,1818
1898,1970,1808
1869,2031,1923
1840,2018,1936
1858,1960,1815
1904,1968,1808
1875,2015,1926
1829,2005,1937
1862,1950,1819
1903,1951,1808
1861,1999,1919
1824,1993,1933
1850,1936,1822
1887,1936,1816
1875,1997,1935
1850,1979,1931
1875,1922,1823
1846,1920,1808
1902,1975,1919
1773,1967,1934
1808,1897,1809
1904,1898,1791
1862,1958,1904
1868,1950,1932
1821,1889,1809
1886,1892,1798
1909,1948,1905
1782,1939,1937
1899,1872,1823
1872,1873,1811
1900,1926,1923
1831,1915,1933
1937,1856,1791
1901,1855,1775
1904,1904,1914
1923,1890,1885
1979,1794,1639
1938,1877,1794
1885,1942,2033
1719,1910,1987
1792,1841,1793
1915,1839,1765
1842,1831,1865
1939,1877,1938
1796,1803,1872
1856,1857,1840
1970,1935,1967
1835,1883,1999
1834,1805,1870
2090,1863,1746
1936,1842,1807
1879,1840,1931
1911,1791,1872
1920,1811,1869
1831,1868,2038
1831,1859,2009
1878,1749,1781
1988,1794,1784
1961,1824,1936
1908,1791,1903
1926,1770,1926
1821,1733,1837
1887,1791,1925
1808,1770,2013
1947,1739,1879
2023,1718,1870
1940,1810,1916
1841,1771,1847
1920,1645,1807
1902,1648,1758
1926,1741,1977
1883,1715,2019
1808,1639,1794
2042,1661,1723
2093,1750,1975
1876,1729,1953
1700,1662,1851
1871,1661,1845
1925,1727,1920
1945,1689,1947
1986,1648,1806
1914,1673,1845
1839,1733,1968
1791,1678,1942
1923,1675,1829
2031,1679,1893
2019,1729,1952
1831,1670,1952
1840,1583,1789
2003,1643,1841
1919,1735,1983
1792,1655,1971
1910,1581,1769
2110,1601,1779
1982,1654,1994
1755,1610,2085
1853,1499,1902
1939,1498,1731
1942,1594,1959
1855,1535,1927
1931,1423,1839
1919,1392,1856
1918,1465,1971
1902,1424,2002
1937,1283,1871
1919,1313,1911
1936,1346,1959
1907,1301,1961
1783,1159,1813
1881,1138,1807
1887,1222,1999
1946,1211,1974
1919,1134,1874
1840,1075,1809
1882,1119,1900
1888,1104,2000
1971,995,1824
1997,1036,1808
1787,1079,1995
1826,1021,1981
1939,976,1840
1904,987,1888
1895,1002,1930
1906,1015,1970
1891,977,1844
1965,990,1883
1747,943,1867
1904,949,1853
1886,945,1872
1883,955,1919
1885,1006,1970
1846,947,1919
1891,927,1814
2016,956,1791
1904,980,1937
1798,953,1903
1921,880,1835
2123,949,1837
1923,1023,1949
1687,985,1988
1830,906,1870
1959,944,1871
1859,1008,1967
1872,1046,1937
1885,985,1865
1870,966,1822
1782,1001,1941
1837,1023,1911
2000,967,1744
2003,1062,1901
1803,1097,2002
1931,1056,1953
1822,995,1779
1881,1067,1862
1871,1129,1947
1901,1115,1961
2064,1072,1786
1974,1074,1759
1681,1130,1989
1727,1155,2019
1872,1104,1781
1945,1119,1758
1881,1201,1973
1888,1214,2017
1966,1159,1862
1883,1181,1805
1863,1257,1954
1739,1230,1963
1845,1200,1859
1921,1215,1771
2013,1303,1878
1991,1311,1937
1873,1259,1872
1778,1279,1872
1817,1354,1967
1875,1340,1919
1891,1279,1771
1904,1301,1824
2003,1397,1963
1807,1402,2018
1786,1343,1863
1856,1333,1767
1845,1404,1815
1877,1427,1968
1881,1418,1904
2005,1390,1855
1877,1466,1918
1872,1463,1921
1947,1418,1801
1869,1449,1858
1808,1491,1974
1886,1520,1940
1943,1483,1778
1845,1476,1759
1799,1505,1875
1852,1567,1983
1918,1520,1835
1854,1530,1824
1805,1589,1915
1984,1609,1937
1859,1503,1829
1853,1530,1808
1867,1613,1930
1844,1627,1966
1898,1575,1850
1985,1566,1786
1817,1668,1942
1757,1623,1966
1840,1583,1776
1946,1600,1773
1886,1664,1958
1919,1659,1854
1884,1605,1786
1858,1655,1885
1878,1711,1963
1873,1685,1911
1979,1659,1764
1871,1652,1795
1811,1712,1919
1854,1722,1891
1975,1680,1840
1881,1679,1821
1793,1752,1934
1809,1747,1918
1851,1695,1802
1874,1711,1838
1879,1792,1942
1842,1799,1919
1904,1744,1751
1905,1735,1803
1894,1795,1954
1935,1834,1962
1834,1749,1770
1888,1762,1774
1818,1854,1889
1769,1829,1905
1845,1775,1790
1873,1807,1807
1900,1883,1899
1845,1856,1923
1783,1788,1799
1842,1793,1781
1872,1885,1895
1917,1855,1915
1921,1834,1799
1885,1871,1786
1851,1933,1946
1833,1905,1919
1921,1793,1714
1853,1859,1806
1808,1961,1931
1849,1957,1893
1873,1859,1747
1873,1890,1808
1840,1951,1931
1915,1953,1938
1914,1899,1796
1889,1919,1774
1827,1963,1909
1765,1961,1949
1840,1895,1790
1909,1934,1747
1893,2002,1914
1841,1991,1918
1841,1927,1769
1862,1936,1785
1859,2000,1947
1827,2003,1930
1956,1966,1802
2000,1951,1744
1890,2035,1929
1774,2022,1902
1818,1936,1710
1849,1953,1746
1882,2063,1882
1871,2053,1919
1825,1993,1829
1855,2007,1838
1845,2068,1926
1860,2047,1872
1917,1990,1778
1933,2015,1760
1856,2077,1895
1870,2055,1917
1858,1998,1827
1877,2005,1762
1866,2065,1899
1913,2087,1886
1933,1997,1771
1922,2023,1788
1766,2069,1937
1743,2066,1952
1834,2007,1828
1906,2033,1803
1920,2103,1879
1943,2092,1862
1871,2034,1798
1848,2047,1809
1856,2110,1929
1791,2083,1937
1829,2032,1777
1904,2055,1777
1913,2087,1851
1919,2087,1849
1868,2047,1804
1867,2070,1855
1840,2129,1968
1822,2103,1941
1855,2059,1726
1895,2064,1760
1866,2112,1925
1821,2096,1908
1840,2034,1790
1857,2047,1764
1847,2134,1872
1854,2107,1916
1904,2043,1775
2000,2032,1712
1889,2105,1856
1723,2098,1911
1867,2022,1776
1946,2043,1786
1855,2131,1904
1744,2121,1917
1809,2047,1803
1883,2064,1791
1863,2128,1935
1807,2113,1883
1856,2046,1744
1905,2059,1786
1902,2077,1915
1872,2096,1883
1856,2010,1795
1904,2038,1776
1904,2114,1870
1811,2092,1872
1829,2035,1795
1869,2020,1808
1859,2147,1939
1859,2103,1887
1889,2000,1776
1870,2071,1820
1874,2103,1904
1802,2083,1920
1822,2023,1786
1936,2016,1791
1986,2047,1873
1872,2073,1834
1821,2034,1765
1806,2061,1831
1802,2141,1909
1818,2103,1904
1835,2034,1818
1885,2054,1824
1876,2127,1918
1840,2111,1886
1878,2069,1776
1943,2010,1774
1868,2103,1873
1772,2077,1892
1875,2015,1781
1915,2033,1783
1911,2097,1885
1789,2044,1863
1798,1975,1774
1934,2013,1791
1923,2100,1913
1838,2075,1934
1857,2033,1772
1863,2074,1776
1911,2087,1918
1904,2085,1883
1862,2000,1778
1789,2011,1810
1808,2045,1936
1856,2054,1884
1984,2000,1715
1914,2017,1785
1797,2064,1927
1775,2058,1903
1822,2005,1792
1872,2010,1808
1887,2031,1954
1839,2007,1887
1936,2033,1733
2047,2019,1738
1843,2063,1915
1863,2039,1930
1833,1951,1781
1846,1984,1755
1805,2032,1894
1901,2042,1895
1822,1986,1789
1851,1995,1795
1927,2042,1899
1866,2031,1885
1760,1962,1808
1855,1968,1798
1840,2035,1883
1853,1984,1849
1904,1968,1776
1851,1996,1790
1805,2030,1895
1846,2069,1906
1864,2000,1789
1883,1969,1776
1872,1996,1913
1896,2000,1863
1962,1945,1737
1926,1975,1794
1814,2045,1938
1739,2000,1903
1839,1933,1738
1930,1956,1807
1904,2018,1925
1904,2000,1889
1879,1954,1774
1818,1906,1764
1790,1951,1915
1827,1998,1930
1863,1940,1807
1890,1968,1786
1872,2000,1905
1840,1955,1919
1872,1945,1791
1945,1987,1738
1898,2038,1879
1954,1994,1903
1902,1986,1781
1808,1954,1851
1759,1995,1941
1805,1983,1915
1891,1930,1775
1904,1928,1769
1877,2000,1925
1831,1938,1911
1813,1975,1771
1841,1943,1767
1839,1984,1904
1834,1923,1872
1933,1913,1760
1917,1927,1843
1831,1966,1936
1795,1946,1889
1897,1870,1733
1905,1881,1790
1902,2031,1909
1890,1963,1895
1866,1881,1770
1861,1921,1830
1859,1968,1931
1780,1999,1915
1817,1861,1789
1936,1968,1822
1904,1979,1961
1833,1955,1871
1813,1931,1744
1845,1937,1809
1846,2005,1919
1842,1941,1919
1962,1906,1789
1931,1811,1808
1830,2000,1926
1903,1929,1860
1883,1883,1783
1845,1893,1839
1825,1935,1926
1802,1950,1894
1872,1891,1767
1947,1909,1780
1894,1906,1908
1749,1940,1921
1787,1895,1817
1856,1888,1809
1855,1949,1911
1873,1914,1875
1907,1920,1759
1933,1879,1776
1819,1976,1921
1763,2022,1918
1818,1840,1790
1899,1936,1809
1856,1893,1919
1813,1911,1893
1915,1773,1798
1971,1891,1761
1868,1941,1860
1783,1911,1904
1830,1760,1826
1888,1903,1767
1891,1933,1890
1885,1953,1935
1889,1898,1808
1863,1859,1776
1815,1917,1888
1783,1917,1932
1886,1890,1821
1929,1895,1778
1924,1921,1856
1856,1927,1887
1807,1872,1840
1853,1902,1840
1935,1963,1904
1870,1943,1888
1835,1872,1775
1858,1873,1840
1834,1933,1955
1811,1911,1901
1843,1878,1783
1903,1871,1807
1902,1937,1904
1936,1927,1881
1837,1853,1735
1840,1853,1761
1790,1922,1906
1834,1910,1946
1932,1872,1798
1879,1888,1766
1809,1919,1882
1840,1889,1904
1890,1849,1782
1930,1875,1793
1936,1925,1882
1839,1925,1935
1780,1849,1799
1834,1871,1801
1813,1918,1902
1861,1904,1901
1877,1840,1791
1876,1872,1798
1837,1954,1880
1877,1929,1866
1947,1838,1723
1873,1865,1791
1814,1921,1945
1858,1909,1914
1885,1850,1750
1922,1862,1793
1847,1936,1950
1797,1935,1927
1825,1853,1774
1911,1858,1789
1919,1904,1897
1872,1877,1892
1845,1828,1763
1872,1872,1794
1861,1927,1898
1835,1899,1893
1851,1850,1778
1915,1867,1794
1883,1913,1920
1849,1904,1920
1872,1840,1778
1881,1860,1781
1834,1909,1872
1818,1903,1874
1847,1831,1773
1843,1841,1809
1815,1911,1941
1829,1904,1931
1872,1839,1799
1886,1872,1792
1854,1899,1894
1873,1901,1870
1927,1844,1777
1888,1850,1776
1850,1918,1903
1840,1893,1890
1889,1830,1771
1930,1851,1762
1863,1889,1870
1819,1884,1898
1847,1840,1799
1843,1867,1838
1828,1905,1931
1783,1904,1856
1861,1839,1760
1923,1855,1798
1856,1905,1924
1840,1900,1890
1862,1837,1799
1918,1846,1801
1920,1923,1935
1840,1899,1851
1855,1843,1755
1883,1847,1785
1856,1898,1910
1851,1885,1919
1889,1829,1797
1904,1840,1748
1867,1895,1873
1825,1891,1901
1812,1829,1765
1835,1842,1761
1840,1882,1904
1829,1871,1897
1899,1829,1781
1871,1840,1786
1866,1885,1875
1840,1891,1878
1851,1840,1812
1874,1843,1804
1859,1899,1872
1872,1877,1875
1861,1819,1771
1878,1861,1808
1838,1910,1901
1902,1904,1895
1924,1805,1712
1904,1817,1780
1776,1862,1939
1799,1855,1889
1849,1808,1771
1904,1863,1825
1877,1924,1927
1867,1891,1904
1858,1814,1772
1872,1833,1769
1840,1904,1889
1826,1905,1910
1891,1838,1791
1917,1843,1799
1852,1903,1909
1855,1883,1899
1914,1835,1802
1904,1872,1791
1819,1895,1872
1829,1856,1872
1894,1807,1787
1845,1835,1809
1823,1885,1901
1789,1882,1903
1855,1831,1789
1914,1829,1776
1897,1901,1899
1823,1873,1887
1840,1813,1763
1878,1862,1808
1844,1889,1919
1811,1863,1865
1852,1817,1763
1887,1839,1794
1885,1897,1908
1797,1881,1936
1837,1823,1793
1901,1847,1818
1829,1895,1872
1778,1893,1947
1846,1843,1788
1904,1841,1756
1871,1904,1899
1819,1883,1929
1861,1808,1794
1904,1840,1741
1839,1901,1939
1811,1874,1946
1846,1807,1726
1890,1846,1773
1878,1904,1911
1819,1872,1930
1852,1817,1786
1926,1849,1792
1878,1907,1876
1814,1888,1936
1836,1840,1866
1887,1840,1829
1895,1914,1911
1840,1901,1887
1914,1831,1767
1856,1833,1809
1813,1886,1904
1826,1882,1894
1848,1834,1805
1888,1851,1818
1854,1904,1937
1812,1872,1931
1885,1830,1779
1939,1872,1837
1863,1911,1925
1811,1883,1930
1840,1823,1764
1934,1851,1771
1857,1905,1920
1813,1874,1904
1843,1808,1786
1879,1846,1808
1870,1901,1908
1840,1881,1909
1872,1857,1820
1893,1863,1815
1883,1917,1924
1847,1883,1895
1852,1822,1783
1891,1856,1825
1903,1907,1919
1882,1871,1895
1848,1823,1745
1938,1873,1838
1920,1917,1874
1859,1863,1905
1851,1801,1711
1838,1840,1802
1877,1907,1873
1855,1867,1822
1829,1827,1843
1837,1850,1859
1866,1920,1999
1835,1886,1935
1837,1821,1730
1872,1835,1763
1854,1890,1888
1842,1866,1875
1890,1811,1803
1925,1850,1840
1936,1910,1904
1850,1891,1904
1839,1795,1713
1907,1793,1712
1885,1918,1882
1815,1899,1926
1776,1817,1807
1823,1839,1870
1866,1891,1904
1840,1882,1887
1876,1814,1773
1936,1834,1777
1867,1904,1904
1836,1902,1892
1871,1827,1774
1885,1856,1791
1853,1915,1910
1821,1879,1903
1844,1811,1771
1895,1852,1799
1885,1934,1945
1881,1909,1950
1918,1821,1721
1968,1851,1802
1814,1907,1945
1745,1891,1904
1833,1830,1756
1872,1862,1789
1918,1918,1936
1815,1893,1918
1835,1854,1806
1893,1852,1879
1894,1899,1869
1863,1893,1871
1830,1840,1779
1861,1867,1825
1847,1913,1920
1904,1873,1867
1902,1814,1744
1886,1856,1785
1811,1910,1922
1787,1886,1899
1859,1836,1765
1872,1858,1778
1850,1923,1904
1840,1875,1898
1906,1840,1805
1888,1853,1749
1812,1892,1904
1794,1886,1792
1859,1827,1762
1914,1854,1782
1873,1906,1890
1855,1904,1904
1855,1830,1770
1942,1840,1735
1831,1889,1878
1790,1886,1892
1850,1855,1818
1893,1866,1751
1920,1906,1888
1840,1885,1939
1838,1819,1787
1887,1826,1744
1808,1901,1909
1821,1909,1911
1872,1835,1786
1910,1843,1793
1849,1913,1936
1819,1903,1914
1883,1854,1805
1954,1849,1811
1881,1910,1904
1813,1892,1872
1792,1821,1804
1840,1846,1807
1854,1904,1921
1812,1873,1878
1885,1831,1777
1951,1857,1728
1804,1893,1835
1747,1862,1859
