1455,1264,1920
1355,1216,1807
1398,1257,1842
1455,1306,1940
1460,1262,1888
1483,1211,1773
1503,1257,1841
1509,1310,1955
1459,1239,1849
1408,1200,1720
1488,1261,1838
1535,1328,1988
1535,1282,1958
1560,1259,1763
1578,1281,1776
1447,1337,1936
1460,1300,1921
1564,1243,1783
1584,1271,1833
1600,1328,1921
1535,1328,1904
1535,1274,1771
1558,1311,1783
1567,1363,1930
1438,1310,1940
1369,1257,1836
1587,1331,1822
1535,1392,1910
1459,1341,1863
1484,1321,1817
1535,1392,1851
1429,1428,1936
1419,1392,1889
1488,1348,1797
1616,1411,1823
1613,1446,1863
1468,1397,1846
1422,1379,1846
1486,1429,1890
1520,1497,1981
1529,1472,1874
1535,1407,1723
1514,1442,1812
1466,1520,1938
1465,1487,1910
1535,1441,1790
1631,1501,1838
1584,1557,1958
1655,1520,1877
1659,1485,1722
1620,1535,1831
1558,1594,1931
1510,1535,1895
1535,1515,1797
1648,1584,1849
1696,1657,1945
1535,1616,1872
1584,1586,1760
1633,1603,1823
1600,1657,1959
1579,1644,1920
1694,1587,1776
1746,1618,1771
1643,1676,1899
1521,1684,1923
1566,1647,1774
1654,1668,1839
1641,1726,1961
1642,1699,1899
1642,1679,1807
1695,1734,1852
1745,1787,1951
1665,1741,1877
1706,1709,1769
1762,1773,1870
1686,1808,1943
1655,1764,1873
1654,1727,1771
1811,1741,1808
1701,1815,1917
1677,1834,1899
1761,1787,1787
1799,1817,1823
1802,1872,1941
1687,1838,1846
1747,1791,1732
1807,1839,1837
1761,1904,1939
1697,1865,1899
1790,1808,1809
1738,1840,1859
1815,1894,1904
1718,1899,1859
1813,1877,1805
1810,1885,1820
1694,1931,1939
1648,1893,1914
1763,1864,1782
1838,1904,1810
1859,1938,1811
1776,1935,1873
1734,1915,1839
1793,1939,1846
1799,1971,1907
1783,1947,1878
1808,1904,1779
1813,1923,1840
1808,1989,1966
1811,1947,1834
1741,1920,1723
1822,1952,1829
1726,1997,1907
1751,1959,1876
1833,1915,1776
1819,1953,1803
1691,2003,1915
1850,1975,1834
1878,1937,1731
1853,1983,1802
1775,2021,1958
1805,2000,1894
1899,1953,1739
1872,1979,1766
1804,2023,1920
1762,2003,1903
1872,1955,1766
1891,1999,1804
1783,2059,1891
1739,2002,1840
1803,1950,1732
1851,2000,1787
1861,2063,1910
1835,2014,1855
1843,1968,1725
1847,2000,1795
1817,2061,1904
1774,2033,1875
1815,1981,1765
1881,2022,1786
1927,2065,1893
1893,2032,1845
1871,1972,1733
1856,2018,1786
1821,2102,1938
1845,2053,1890
1882,2005,1771
1887,2027,1746
1913,2057,1862
1899,2063,1883
1840,2000,1783
1833,2039,1831
1838,2073,1906
1914,2056,1863
1943,2000,1757
1903,2055,1825
1849,2103,1943
1878,2064,1837
1878,1985,1712
1895,2030,1837
1875,2098,1956
1841,2061,1902
1907,2016,1753
1987,2037,1792
1936,2055,1887
1850,2046,1866
1852,2025,1747
1945,2064,1783
1910,2087,1923
1861,2054,1872
1868,1995,1763
1905,2032,1776
1929,2085,1914
2003,2037,1866
1963,2006,1746
1938,2047,1831
1927,2107,1937
1839,2064,1886
1840,2032,1763
1879,2036,1767
1943,2086,1901
1920,2057,1849
1982,2000,1728
1919,2033,1829
1858,2116,1959
1867,2064,1898
1967,1999,1754
1962,2016,1810
1904,2083,1930
1865,2054,1886
1936,1991,1772
1967,1995,1776
1904,2076,1903
1913,2029,1829
1931,1997,1738
1927,2037,1808
1911,2064,1906
1871,2011,1871
1943,1981,1757
2022,2000,1765
1919,2047,1906
1872,2026,1871
1943,1991,1774
2022,2018,1826
1961,2072,1921
1898,2000,1856
1904,1953,1750
1917,2000,1831
1899,2069,1946
1904,2033,1879
1991,1968,1749
1968,2023,1798
1923,2047,1925
1867,2011,1891
1905,1962,1729
1957,1974,1790
1994,2016,1911
1948,2005,1871
1893,1973,1776
1936,1971,1808
1948,2023,1898
1942,1995,1862
1936,1936,1756
1916,1971,1789
1920,2021,1916
1887,1984,1857
1987,1907,1723
1933,1963,1779
1843,1989,1911
1863,1951,1839
1925,1883,1679
1921,1922,1775
1905,1984,1890
1859,1949,1840
1921,1891,1731
1946,1904,1745
1893,1970,1879
1869,1947,1838
1893,1907,1709
1957,1908,1778
1945,1947,1872
1899,1917,1808
1882,1879,1711
1926,1922,1809
1923,1951,1874
1851,1904,1840
1904,1878,1726
1958,1897,1743
1925,1950,1840
1876,1941,1869
1917,1895,1779
1967,1904,1808
1963,1919,1888
1919,1922,1845
1876,1871,1751
1902,1912,1776
1936,1961,1929
1993,1955,1870
2035,1890,1756
1960,1919,1793
1882,1949,1906
1885,1924,1878
1954,1890,1779
2091,1936,1808
1942,1957,1910
1885,1939,1883
2009,1874,1741
1978,1899,1815
1899,1954,1950
1902,1921,1902
1979,1869,1769
1990,1904,1808
1952,1951,1953
1931,1905,1914
1953,1834,1783
2004,1905,1846
2032,1943,1945
1991,1901,1897
1964,1865,1776
1974,1887,1848
1985,1968,1963
1995,1921,1920
2027,1856,1760
1998,1878,1810
1955,1947,1975
1937,1920,1899
1941,1865,1797
1952,1885,1840
1966,1936,1939
2000,1904,1878
1987,1863,1792
1982,1899,1841
2016,1939,1942
1971,1904,1901
1939,1867,1828
2015,1861,1864
2064,1942,1926
1971,1930,1890
1966,1875,1837
1997,1877,1856
1959,1969,1971
1903,1882,1901
1974,1834,1809
2019,1910,1862
1989,1968,1929
1934,1894,1885
1937,1841,1780
1997,1920,1841
2003,1887,1951
1984,1906,1905
1979,1807,1792
1972,1938,1853
2058,1930,1939
2074,1865,1855
1924,1818,1786
1919,1882,1865
1931,1925,1968
1968,1911,1872
1936,1849,1801
1943,1867,1840
1938,1924,1979
1964,1925,1905
2017,1845,1766
1997,1894,1840
1927,1907,1951
1901,1877,1904
2022,1843,1773
2022,1863,1840
1953,1918,1963
1890,1881,1922
1915,1840,1795
2000,1895,1835
1959,1926,1919
1948,1891,1893
1984,1826,1776
1996,1851,1848
1915,1947,1957
1861,1883,1891
1990,1839,1755
2109,1838,1766
1920,1909,1974
1845,1857,1919
1943,1841,1769
2003,1872,1782
1968,1919,1968
1878,1834,1936
1893,1814,1778
1952,1856,1834
1903,1856,1905
1909,1870,1856
1934,1805,1757
1958,1861,1815
1922,1936,1936
1910,1902,1907
1992,1872,1783
2025,1889,1820
1919,1878,1936
1885,1937,1878
1968,1811,1762
2030,1863,1822
1938,1949,1947
1876,1899,1940
2029,1857,1812
1953,1856,1827
1833,1911,1931
1838,1904,1903
1969,1851,1795
2029,1847,1824
1979,1922,1936
1918,1899,1930
1875,1827,1773
1951,1901,1840
1967,1923,1945
1911,1894,1901
1975,1841,1765
1990,1866,1819
1961,1905,1936
1934,1891,1907
1984,1854,1798
1981,1925,1857
1881,1930,1955
1882,1882,1907
1917,1833,1790
1933,1844,1836
1949,2029,1921
1997,1785,1905
1934,1843,1823
1938,1899,1847
1920,1968,1917
1993,1904,1889
1973,1840,1766
1943,1903,1872
1904,1936,1958
1922,1929,1900
2036,1884,1791
2015,1884,1855
1834,1943,1955
1842,1874,1931
1927,1852,1776
2000,1911,1814
2030,1955,1936
1929,1903,1915
1871,1818,1818
1926,1891,1854
1946,1936,1923
2007,1885,1899
1927,1837,1794
1922,1923,1840
1919,1997,1922
1888,1942,1893
1925,1862,1779
1999,1858,1838
1992,1907,1945
1894,1871,1923
1936,1855,1806
1922,1968,1841
1909,1942,1957
1915,1919,1889
1936,1887,1795
1907,1903,1867
1914,1951,1959
1907,1953,1898
1948,1829,1802
1935,1856,1824
1970,1954,1941
1934,1917,1879
1900,1850,1770
1905,1866,1851
1898,1907,1983
1927,1874,1918
2053,1867,1755
2045,1853,1819
1897,1920,1904
1841,1901,1923
1895,1893,1811
1882,1872,1834
1878,1931,1977
1872,1902,1923
1921,1845,1793
2034,1923,1780
2115,1968,1899
1922,1877,1863
1786,1841,1827
1823,1886,1859
1882,1902,1979
1904,1894,1936
1940,1855,1776
1962,1899,1808
1989,1921,1941
1957,1867,1879
1907,1904,1786
1867,1878,1851
1855,1939,1961
1897,1871,1920
1933,1840,1766
2035,1870,1790
2054,1966,1948
1831,1899,1897
1843,1838,1793
1895,1840,1809
1881,1918,1954
1902,1905,1911
1920,1860,1798
1939,1879,1856
1890,1904,1968
1856,1903,1863
1862,1840,1750
1929,1869,1810
2022,1921,1929
1904,1911,1887
1807,1852,1770
1938,1872,1794
2025,1930,1885
1808,1887,1929
1811,1863,1829
1895,1895,1793
1933,1925,1968
1908,1894,1910
1907,1821,1822
1978,1862,1839
1904,1894,1949
1826,1855,1887
1883,1835,1808
1904,1882,1837
1902,1927,1921
1911,1882,1870
1941,1830,1728
2064,1897,1785
1910,1905,1945
1803,1867,1942
1893,1834,1717
1923,1850,1822
1922,1894,1972
1872,1866,1872
1834,1841,1744
1902,1854,1872
1879,1893,1982
1879,1850,1883
1878,1825,1765
1871,1856,1815
1861,1907,1945
1883,1875,1891
1942,1815,1765
1925,1826,1825
1854,1895,1936
1846,1847,1872
1895,1808,1776
1922,1840,1813
1871,1894,1920
1834,1860,1871
1895,1810,1747
1925,1840,1763
1856,1877,1941
1830,1856,1918
1867,1806,1774
1903,1847,1795
1904,1870,1859
1863,1838,1900
1863,1792,1794
2013,1840,1814
1887,1904,1915
1809,1866,1871
1893,1811,1771
1894,1819,1795
1803,1883,1949
1795,1856,1899
1858,1807,1769
1904,1839,1755
1991,1887,1866
1899,1841,1905
1787,1808,1818
1825,1840,1833
1850,1888,1908
1857,1865,1856
1878,1840,1709
1916,1833,1822
1898,1872,1951
1936,1866,1901
1937,1818,1771
1877,1827,1794
1812,1885,1920
1797,1856,1883
1872,1805,1758
1959,1842,1810
1887,1877,1915
1807,1845,1885
1837,1805,1770
1893,1840,1808
1858,1897,1918
1840,1866,1862
1875,1806,1758
1902,1837,1808
1870,1891,1920
1840,1858,1863
1868,1807,1754
1904,1840,1795
1872,1887,1916
1846,1858,1884
1867,1798,1765
1887,1831,1797
1855,1886,1898
1831,1853,1882
1871,1806,1774
1907,1840,1819
1872,1889,1926
1838,1851,1876
1869,1790,1770
1904,1815,1812
1872,1866,1920
1840,1846,1881
1866,1793,1755
1899,1831,1808
1867,1871,1939
1841,1834,1887
1871,1778,1766
1907,1811,1804
1872,1871,1915
1846,1840,1897
1874,1784,1780
1901,1806,1833
1872,1854,1909
1840,1822,1866
1872,1786,1759
1911,1840,1807
1879,1890,1927
1851,1863,1908
1872,1833,1765
1906,1884,1794
1872,1907,1898
1852,1886,1861
1877,1862,1755
1910,1879,1792
1876,1953,1904
1854,1953,1860
1891,1968,1761
1919,1975,1792
1866,1931,1878
1840,1922,1840
1875,1933,1740
1919,1942,1793
1883,1984,1901
1845,2002,1845
1872,1968,1729
1913,1989,1775
1899,1986,1906
1875,1934,1904
1883,1957,1790
1904,2032,1808
1878,2096,1898
1862,2001,1875
1885,1931,1755
1907,2000,1762
1877,2075,1851
1857,2030,1833
1891,1965,1727
1916,1972,1810
1893,2013,1936
1860,1990,1869
1882,1933,1705
1909,1949,1788
1883,1948,1906
1866,1953,1890
1901,1952,1733
1929,1951,1799
1888,1977,1895
1862,1939,1890
1899,1903,1731
1933,1916,1805
1904,1966,1909
1867,1933,1867
1889,1872,1758
1920,1898,1799
1890,1950,1899
1861,1918,1856
1887,1840,1733
1920,1902,1802
1893,1968,1926
1865,1935,1859
1890,1866,1776
1920,1888,1808
1886,1937,1872
1863,1904,1901
1885,1842,1750
1915,1873,1808
1887,1927,1921
1855,1909,1875
1897,1840,1763
1922,1868,1807
1886,1905,1923
1853,1877,1885
1878,1815,1756
1911,1841,1794
1873,1909,1945
1853,1873,1892
1886,1833,1776
1915,1858,1815
1891,1911,1918
1865,1872,1873
1890,1814,1747
1920,1846,1799
1891,1905,1905
1869,1872,1919
1899,1822,1778
1922,1853,1849
1897,1909,1885
1855,1878,1913
1893,1831,1802
1930,1872,1829
1899,1933,1948
1862,1904,1872
1894,1854,1797
1923,1888,1806
1886,1940,1941
1863,1921,1892
1885,1881,1785
1917,1895,1801
1889,1939,1936
1845,1920,1854
1879,1870,1744
1919,1904,1791
1894,1951,1967
1859,1937,1878
1888,1859,1730
1917,1905,1786
1887,1962,1932
1858,1943,1893
1885,1921,1769
1904,1922,1831
1873,1934,1919
1852,1913,1867
1879,1879,1759
1904,1920,1823
1874,1971,1936
1859,1957,1894
1893,1914,1811
1935,1971,1967
1874,1965,1943
1850,1904,1920
1872,1862,1693
1916,1915,1850
1889,1979,1862
1855,1963,1931
1889,1933,1793
1929,1968,1806
1935,2010,1908
1865,1968,1866
1855,1939,1778
1895,1985,1823
1857,2018,1863
1833,1983,1858
1903,1925,1706
2095,1965,1730
1974,2027,1876
1738,2022,1943
1744,1973,1840
1845,1990,1856
1856,2045,1918
1839,2003,1883
1882,1955,1790
1923,1991,1875
1873,2032,1893
1772,1950,1792
1831,1878,1674
2070,1968,1757
2075,2089,1968
1867,1987,1943
1840,1931,1728
1974,2014,1854
2180,1995,1925
1870,1936,1821
1754,1938,1840
1777,1997,1892
1770,2020,2097
1776,1930,1951
1933,1855,1798
2023,1915,1879
1835,1942,2004
1823,1936,1957
1855,1840,1823
1887,1829,1791
1888,1872,1995
1904,1837,2015
2045,1779,1856
1968,1786,1808
1808,1825,1983
1765,1775,1943
1927,1718,1711
2054,1719,1751
1891,1766,1974
1895,1761,1970
1905,1707,1761
1938,1739,1902
1785,1681,1786
1729,1633,1815
1851,1627,1899
1911,1680,1825
2231,1795,1937
1926,1726,1857
1619,1605,1770
1972,1611,1836
2131,1669,1934
1616,1553,1824
1655,1579,1879
1831,1679,1937
1884,1685,1907
1846,1588,1847
1933,1535,1801
1956,1526,1771
1822,1520,1778
1946,1635,1892
1949,1621,1920
1904,1584,1770
1747,1636,1824
1645,1489,1904
1791,1488,1789
1947,1577,1878
1919,1633,1999
1984,1535,1859
1890,1523,1611
1844,1600,1875
1761,1615,2035
1826,1531,1840
1937,1565,1756
1888,1620,1952
1792,1632,1958
1983,1639,1918
1922,1580,1803
1783,1597,1728
1851,1694,1875
1887,1616,1889
1967,1584,1823
1893,1642,1886
1866,1689,1987
1744,1668,1889
1754,1629,1773
1872,1573,1807
2010,1664,1936
1881,1712,1963
1779,1641,1808
1834,1630,1915
1823,1679,2013
1857,1650,1860
2146,1609,1569
1953,1662,1827
1654,1709,1962
1836,1687,1947
2071,1616,1745
1820,1682,1855
1789,1731,1991
1867,1683,1821
2108,1674,1707
1793,1682,1887
1776,1726,2031
1710,1668,1885
1868,1680,1776
1874,1659,1815
1916,1733,2010
1889,1725,1982
1884,1629,1735
1943,1710,1868
1850,1738,1915
1873,1709,1857
2047,1648,1781
1959,1700,1759
1666,1735,1923
1701,1738,2014
1808,1670,1851
1929,1723,1869
1910,1773,1925
1883,1742,1859
1882,1665,1756
1882,1709,1778
1872,1775,1934
1838,1795,2043
2000,1707,1852
1907,1737,1741
1872,1744,1878
1834,1735,1911
1775,1696,1867
1827,1772,1884
1871,1803,1895
1946,1763,1872
1815,1718,1801
1807,1751,1904
1787,1808,1965
1991,1783,1816
2032,1722,1744
1793,1755,1855
1835,1779,1956
1718,1754,1987
1830,1735,1840
1979,1776,1802
1823,1860,1936
1793,1792,1856
1839,1709,1799
1935,1758,1870
1898,1807,1805
2064,1795,1879
1814,1722,1917
1693,1799,1894
1797,1865,1898
1781,1796,1826
1840,1741,1771
1885,1853,1836
1910,1835,1995
1868,1776,1882
1863,1713,1792
2032,1808,1758
1836,1827,1889
1682,1794,1907
1821,1756,1802
1869,1823,1862
2015,1885,1937
1895,1820,1833
1701,1769,1792
1777,1776,1799
1806,1873,1981
1822,1808,1936
1918,1760,1712
1899,1822,1841
1819,1911,1881
1873,1890,1867
1918,1776,1807
1886,1792,1873
1799,1843,2001
1905,1860,1815
1903,1791,1709
1766,1744,1708
1773,1885,1889
1824,1875,2029
1839,1808,1872
1834,1808,1847
2079,1904,1834
1872,1853,1829
1694,1821,1789
1762,1825,1822
1817,1856,1903
1918,1897,1856
1891,1818,1849
1774,1828,1890
1686,1899,1860
1997,1877,1905
1851,1794,1773
1806,1840,1818
1819,1899,1916
1841,1885,1902
1846,1805,1782
1841,1829,1837
2031,1919,1945
1950,1904,1787
1789,1795,1767
1735,1840,1883
1787,1903,1911
1885,1872,1872
1813,1809,1735
1807,1856,1763
1914,1920,1925
1843,1903,1926
1788,1808,1789
1727,1834,1835
1954,1887,1936
2038,1903,1839
1819,1830,1719
1742,1858,1793
1886,1925,1987
1904,1885,1808
1786,1822,1750
1920,1811,1808
1984,1922,1957
1686,1878,1968
1767,1842,1846
1862,1883,1802
1837,1899,1862
1931,1871,1825
2112,1850,1687
1968,1874,1780
1676,1937,1964
1725,1875,1864
1855,1797,1803
1859,1882,1802
1776,1925,1936
1737,1894,1889
1936,1831,1807
1969,1902,1753
1789,1963,1928
1739,1881,1920
1874,1821,1835
1962,1877,1794
1965,1936,1874
1890,1894,1899
1851,1826,1705
1909,1905,1766
1815,1930,1955
1751,1915,1937
1802,1857,1794
1907,1877,1781
2005,1915,1849
1771,1885,1904
1844,1840,1811
1866,1882,1762
1776,1920,1926
1738,1883,1874
1920,1868,1796
1936,1882,1829
1927,1941,1962
1795,1929,1883
1783,1834,1770
1874,1862,1840
1917,1963,1941
1792,1893,1858
1814,1824,1769
1827,1869,1776
1881,1938,1888
1865,1898,1885
1937,1849,1834
1917,1876,1840
1874,1937,1898
1829,1940,1891
1847,1867,1828
1985,1877,1813
1871,1917,1840
1846,1935,1861
1866,1861,1769
1895,1871,1874
1779,1920,1979
1808,1925,1930
1841,1847,1725
1877,1910,1763
1869,1946,1955
1811,1904,1954
1867,1854,1786
2038,1872,1757
1926,1897,1904
1808,1881,1879
1854,1898,1771
1855,1894,1856
1911,1920,1969
1841,1930,1903
1847,1847,1715
1883,1909,1750
1974,1934,1870
1959,1879,1834
1845,1857,1839
1715,1898,1904
1754,1920,1973
1799,1917,1904
1872,1862,1799
1936,1888,1817
1903,1946,1907
1842,1903,1850
1917,1834,1776
1905,1867,1847
1809,1931,1952
1824,1954,1863
1862,1877,1746
1897,1886,1811
1910,1922,1872
1888,1891,1898
1897,1856,1793
2000,1901,1825
1836,1942,1967
1773,1920,1903
1777,1841,1791
1878,1877,1840
1993,1927,1950
1894,1913,1902
1782,1866,1763
1960,1906,1792
1984,1936,1887
1851,1907,1909
1786,1854,1808
1910,1901,1822
1854,1917,1959
1793,1919,1944
1856,1873,1793
1898,1873,1798
1899,1935,1885
1851,1929,1887
1930,1887,1799
1915,1893,1842
1807,1941,1904
1806,1877,1920
1911,1835,1774
1991,1882,1815
1942,1925,1934
1818,1921,1919
1830,1875,1776
1879,1897,1844
1871,1936,1917
1833,1891,1884
1879,1810,1807
1877,1871,1835
1875,1942,1875
1866,1935,1824
1937,1840,1772
1954,1871,1799
1839,1926,1939
1803,1907,1924
1966,1859,1787
1931,1886,1819
1798,1930,1939
1895,1932,1891
1920,1845,1712
1819,1870,1841
1774,1916,1984
1792,1904,1933
1907,1840,1754
1953,1883,1799
1914,1940,1911
1856,1915,1867
1871,1831,1761
1849,1839,1814
1822,1913,1902
1968,1886,1884
1904,1825,1738
1877,1858,1790
1861,1916,1917
1859,1879,1918
1834,1835,1761
1835,1872,1828
1889,1911,1968
1950,1901,1839
1851,1794,1695
1820,1855,1815
1839,1914,1936
1825,1914,1897
1910,1855,1761
2047,1876,1786
1887,1904,1903
1744,1873,1904
1791,1802,1785
1872,1872,1776
1904,1943,1854
1921,1904,1906
1957,1840,1813
1915,1844,1810
1949,1911,1918
1822,1862,1824
1783,1824,1810
1857,1893,1858
1878,1922,1923
1943,1899,1840
1825,1803,1751
1829,1856,1813
1935,1953,1962
1857,1893,1872
1870,1845,1815
1923,1856,1800
1974,1898,1914
1834,1902,1873
1872,1859,1767
1897,1865,1794
1790,1904,1961
1790,1881,1899
1989,1840,1734
2034,1882,1787
1829,1895,1936
1749,1861,1937
1807,1851,1803
1879,1873,1801
1983,1962,1820
1984,1920,1892
1813,1871,1840
1799,1834,1845
1843,1895,1921
1819,1911,1846
1881,1861,1742
2106,1968,1741
1917,1886,1862
1690,1888,1904
1773,1843,1834
1893,1855,1871
1931,1904,1927
1923,1904,1851
1938,1877,1775
1893,1894,1785
1841,1920,1926
1807,1877,1842
1908,1818,1680
1933,1843,1757
1813,1895,1989
1783,1933,1983
1835,1860,1791
1913,1936,1799
1868,1961,1842
1909,1826,1809
2025,1878,1774
1935,1921,1782
1766,1891,1916
1794,1898,1941
1841,1840,1783
1898,1865,1729
1863,1883,1877
1870,1897,1868
1963,1840,1749
1907,1904,1775
1776,1888,1913
1781,1808,1906
1936,1870,1765
1984,1831,1789
1841,1920,1899
1766,1872,1885
1827,1850,1776
1931,1877,1776
1941,1933,1904
1935,1872,1833
1904,1834,1733
1877,1883,1781
1829,1963,1941
1846,1885,1907
1823,1857,1726
1959,1855,1783
1963,1898,1918
1866,1896,1899
1868,1872,1791
1925,1898,1782
1863,1867,1897
1806,1899,1888
1808,1867,1794
1885,1823,1829
1951,1904,1863
1920,1889,1853
1856,1835,1727
1840,1870,1798
1804,1937,1936
1821,1857,1904
1890,1819,1771
1959,1885,1792
1959,1968,1921
1869,1887,1875
1846,1840,1787
1920,1887,1794
1919,1955,1889
1771,1914,1937
1853,1854,1815
1979,1881,1819
1869,1927,1957
1781,1904,1904
1866,1842,1773
1900,1887,1838
1883,1932,1934
1894,1894,1835
1887,1855,1745
1870,1863,1826
1871,1931,1945
1858,1888,1904
1867,1840,1763
1955,1847,1777
1962,1919,1938
1913,1889,1891
1826,1815,1760
1830,1854,1786
1882,1949,1905
1869,1872,1921
1849,1809,1766
1862,1845,1763
1888,1920,1927
1872,1882,1899
1907,1802,1770
1898,1841,1814
1850,1903,1922
1857,1872,1872
1835,1825,1778
1875,1870,1782
1879,1927,1936
1892,1850,1908
1866,1790,1785
1883,1860,1783
1883,1933,1904
1835,1908,1904
1834,1808,1780
1851,1885,1808
1891,1905,1957
1829,1876,1822
1918,1805,1703
1911,1833,1840
1867,1928,1979
1839,1872,1904
1873,1895,1728
1888,1904,1781
1861,1902,1959
1842,1893,1951
1872,1860,1793
1889,1853,1794
1834,1851,1903
1867,1949,1852
1936,1855,1805
1879,1853,1808
1831,1905,1872
1859,1940,1888
1844,1835,1808
1909,1851,1866
1903,1904,1941
1925,1927,1882
1958,1840,1776
1858,1859,1775
1774,1922,1919
1765,1883,1914
1854,1822,1808
1904,1871,1825
1901,1958,1909
1858,1922,1899
1930,1824,1790
1887,1837,1837
1825,1907,1939
1893,1903,1922
1903,1851,1750
1925,1865,1827
1805,1907,1943
1808,1860,1891
1986,1824,1754
1925,1851,1808
1872,1982,1957
1793,1900,1934
1854,1840,1792
1897,1865,1771
1908,1937,1971
1870,1841,1922
1819,1869,1761
1895,1875,1811
1923,1998,1968
1919,1899,1899
1948,1828,1700
1936,1875,1792
1813,1926,1987
1798,1918,1936
1834,1840,1799
1889,1865,1824
1889,1920,1938
1872,1910,1913
1881,1851,1799
1930,1866,1855
1923,1936,1994
1922,1921,1907
1855,1854,1728
1840,1885,1819
1889,1911,1948
1959,1925,1958
1903,1872,1762
1919,1879,1809
1833,1918,1946
1792,1894,1926
1872,1843,1808
1973,1871,1790
1935,1935,1920
1847,1889,1893
1860,1827,1793
1923,1858,1842
1855,1893,1898
1792,1870,1894
1878,1831,1776
1936,1857,1804
1897,1906,1965
1916,1904,1938
1937,1842,1786
1852,1830,1808
1807,1881,1964
1809,1888,1910
1899,1842,1757
1933,1871,1777
1856,1872,1909
1837,1857,1899
1899,1842,1793
1882,1865,1782
1872,1899,1915
1808,1870,1914
1855,1836,1808
1939,1874,1811
1910,1905,1903
1842,1853,1853
1850,1834,1805
1877,1872,1854
1840,1921,1953
1877,1875,1910
1920,1830,1802
1851,1850,1776
1808,1887,1889
1828,1879,1857
1904,1811,1730
1916,1833,1815
1856,1930,1921
1827,1882,1878
1889,1818,1744
1954,1846,1802
1867,1901,1909
1846,1854,1898
1851,1813,1801
1921,1855,1802
1886,1899,1895
1788,1856,1903
1817,1805,1787
1888,1829,1822
1920,1914,1953
1900,1909,1894
1823,1809,1749
1863,1809,1769
1914,1901,1936
1858,1872,1872
1805,1803,1758
1846,1840,1810
1843,1886,1904
1831,1844,1843
1857,1797,1737
1946,1856,1823
1918,1878,1904
1775,1851,1872
1771,1789,1759
1840,1827,1808
1858,1879,1897
1837,1862,1879
1947,1808,1754
1881,1834,1793
1843,1875,1927
1936,1869,1904
1859,1808,1779
1823,1829,1773
1775,1894,1886
1808,1875,1870
1942,1840,1781
1904,1847,1786
1818,1872,1882
1793,1856,1899
1844,1798,1750
1937,1822,1776
1873,1920,1923
1861,1899,1904
1857,1827,1787
1947,1855,1783
1928,1891,1850
1840,1868,1866
1818,1827,1801
1856,1838,1792
1845,1907,1923
1837,1853,1867
1902,1813,1791
1911,1834,1813
1840,1894,1918
1809,1882,1889
1850,1794,1786
1847,1841,1780
1856,1894,1900
1819,1867,1867
1871,1793,1723
1904,1837,1776
1841,1899,1906
1818,1862,1852
1831,1811,1773
1885,1824,1775
1854,1877,1915
1890,1863,1851
1894,1791,1725
1774,1813,1776
1759,1877,1910
1772,1843,1856
1811,1790,1746
1840,1823,1778
1834,1873,1889
1794,1841,1872
1841,1801,1750
1888,1831,1757
1874,1879,1872
1855,1857,1840
1833,1808,1757
1885,1842,1826
1823,1887,1894
1859,1873,1893
1907,1817,1770
1898,1851,1837
1853,1904,1942
1835,1887,1894
1903,1838,1775
1917,1856,1771
1840,1889,1895
1774,1886,1938
1858,1843,1829
1939,1863,1792
1916,1910,1894
1854,1899,1968
1849,1840,1868
1870,1882,1805
1885,1917,1907
1861,1879,1875
1924,1835,1761
1891,1858,1805
1879,1899,1923
1847,1887,1939
1888,1858,1831
1921,1856,1810
1939,1904,1919
1872,1881,1903
1808,1846,1820
1866,1855,1795
1863,1904,1917
1806,1871,1909
1886,1823,1765
1935,1870,1803
1903,1931,1925
1819,1887,1904
1842,1808,1811
1898,1853,1775
1918,1926,1935
1901,1899,1846
1857,1840,1805
1934,1854,1826
1980,1905,1885
1799,1866,1883
1749,1802,1775
1794,1845,1854
1827,1904,1925
1828,1871,1859
1855,1814,1761
1919,1846,1808
1914,1908,1927
1856,1892,1913
1880,1845,1799
1881,1856,1808
1833,1918,1935
1827,1887,1917
1888,1850,1807
2001,1888,1829
2011,1907,1885
1899,1879,1890
1893,1846,1854
1799,1884,1843
1799,1920,1923
1812,1885,1877
1889,1822,1778
1984,1835,1758
1891,1893,1895
1779,1870,1903
1829,1833,1751
1936,1854,1735
1885,1873,1898
1760,1859,1927
1776,1792,1788
1884,1845,1793
1907,1887,1919
1811,1855,1806
1801,1805,1747
1887,1834,1775
1888,1899,1948
1815,1842,1867
1790,1791,1733
1840,1841,1785
1819,1897,1875
1791,1847,1850
1843,1797,1776
1861,1828,1808
1830,1894,1903
1811,1882,1891
1841,1813,1713
1878,1831,1807
1871,1902,1937
1846,1881,1907
1877,1783,1799
1891,1854,1793
1872,1917,1907
1898,1900,1936
2018,1840,1789
1979,1856,1802
1890,1915,1970
1925,1899,1908
1831,1847,1763
1806,1889,1873
1831,1929,1935
1856,1938,1941
1949,1875,1804
1952,1886,1885
1878,1945,1982
1819,1923,1941
1867,1852,1833
1920,1883,1826
1888,1927,1959
1919,1919,1953
1937,1867,1813
1958,1874,1805
1872,1920,1911
1917,1901,1894
2019,1857,1806
1901,1883,1808
1766,1921,1950
1749,1904,1963
1895,1854,1844
1965,1893,1842
1931,1927,1997
1831,1901,1868
1839,1839,1811
1889,1862,1808
1889,1922,1914
1883,1897,1893
1891,1826,1749
1870,1854,1815
1934,1923,1888
1934,1893,1874
1937,1840,1749
1890,1824,1850
1810,1902,1951
1827,1876,1938
1890,1824,1773
1867,1842,1808
1808,1901,1936
1807,1886,1936
1865,1856,1771
1874,1858,1795
1865,1899,1966
1825,1873,1883
1835,1821,1776
1897,1839,1799
1882,1885,1917
1838,1858,1866
1854,1830,1728
1899,1861,1811
1930,1907,1911
1855,1873,1907
1870,1822,1730
1872,1839,1797
1939,1904,1904
1835,1899,1906
1823,1830,1785
1975,1856,1828
1915,1890,1971
1781,1889,1981
1820,1837,1796
1903,1860,1793
1904,1934,1964
1875,1897,1961
1840,1808,1748
1912,1853,1726
1872,1919,1929
1841,1865,1920
1866,1808,1767
1942,1872,1813
1879,1915,1984
1813,1890,1906
1904,1830,1750
2044,1844,1776
1836,1904,1930
1765,1886,1948
1826,1840,1776
1907,1845,1822
1863,1889,1904
1844,1895,1954
