1815,1835,1777
1862,1812,1734
1855,1889,1871
1808,1902,1904
1842,1828,1776
1872,1832,1756
1856,1887,1886
1817,1901,1933
1819,1840,1791
1850,1831,1747
1855,1889,1872
1830,1892,1908
1819,1826,1788
1852,1819,1742
1864,1886,1840
1824,1904,1925
1840,1837,1798
1874,1815,1742
1857,1898,1877
1868,1905,1914
1825,1835,1763
1871,1831,1734
1845,1893,1861
1853,1901,1907
1849,1830,1769
1849,1822,1744
1856,1883,1869
1897,1904,1891
1874,1833,1767
1898,1822,1725
1806,1901,1887
1838,1914,1934
1815,1841,1791
1829,1830,1759
1819,1888,1886
1810,1914,1915
1877,1835,1778
1885,1825,1728
1867,1902,1872
1856,1908,1933
1845,1835,1803
1901,1834,1762
1889,1898,1872
1846,1926,1934
1899,1862,1813
1943,1841,1756
1902,1909,1884
1822,1909,1920
1881,1841,1782
1904,1831,1753
1880,1901,1889
1809,1930,1925
1893,1859,1805
1938,1856,1765
1842,1920,1904
1858,1920,1945
1863,1855,1814
1922,1866,1770
1903,1930,1905
1845,1935,1942
1862,1859,1784
1938,1856,1767
1910,1927,1917
1872,1943,1947
1904,1871,1808
1947,1859,1744
1912,1919,1899
1859,1922,1943
1842,1859,1814
1878,1867,1774
1968,1936,1919
1835,1936,1944
1865,1866,1817
1970,1875,1782
1910,1936,1878
1902,1926,1921
1830,1863,1808
1957,1885,1792
1931,1946,1921
1898,1936,1936
1878,1872,1807
1926,1875,1776
1893,1943,1920
1855,1949,1958
1910,1879,1817
1925,1855,1767
1901,1942,1895
1861,1954,1926
1900,1879,1797
1939,1870,1774
1891,1936,1911
1903,1955,1962
1898,1891,1819
1909,1888,1778
1933,1951,1920
1876,1939,1959
1893,1875,1814
1938,1873,1777
1921,1961,1917
1894,1965,1962
1908,1888,1819
1943,1875,1791
1950,1946,1907
1891,1951,1936
1872,1877,1815
1911,1885,1806
1938,1951,1921
1857,1955,1934
1889,1890,1830
1951,1879,1796
1937,1953,1914
1907,1958,1941
2020,1888,1797
1984,1887,1792
1938,1968,1949
1786,1967,1968
1885,1890,1837
1929,1890,1771
1933,1965,1919
1883,1967,1965
1901,1906,1844
1962,1899,1808
1931,1947,1897
1867,1973,1947
1895,1903,1834
1939,1899,1809
1952,1961,1936
1922,1962,1950
1889,1894,1814
1956,1903,1801
1947,1954,1904
1845,1965,1962
1840,1901,1841
1935,1901,1808
1883,1958,1949
1910,1962,1968
1967,1899,1824
1904,1889,1793
1947,1961,1936
1871,1967,1982
1906,1905,1840
1918,1902,1803
1915,1966,1929
1899,1959,1946
2000,1905,1846
1984,1888,1791
1909,1959,1953
1891,1986,1983
1899,1900,1823
1938,1899,1794
1845,1967,1936
1890,1970,1991
1927,1915,1871
1952,1906,1818
1942,1979,1942
1914,1976,1968
1968,1905,1840
1949,1900,1808
1934,1969,1937
1909,1968,1965
1927,1903,1840
1973,1904,1811
2053,1968,1939
2022,1968,1957
1965,1902,1837
1873,1904,1817
1901,1961,1934
1882,1963,1971
1920,1887,1835
1978,1893,1808
1985,1967,1940
1955,1987,1970
1929,1911,1837
1991,1889,1790
1951,1971,1953
1898,1967,1981
1963,1894,1851
1885,1898,1799
1946,1967,1922
1934,1967,1968
2000,1904,1827
1985,1897,1809
1905,1977,1946
1901,1969,1994
1925,1904,1839
1947,1908,1814
1946,1974,1967
1906,1981,1968
1959,1889,1808
2007,1893,1808
1945,1968,1991
1885,1988,2003
1922,1908,1857
1967,1903,1808
1940,1985,1967
1921,1987,2000
1922,1895,1827
2039,1895,1787
2023,1968,1904
1889,1966,1950
1967,1904,1823
1968,1904,1847
1952,1986,2001
1905,1981,2006
1891,1894,1838
1958,1885,1795
1946,1951,1966
1904,1981,1995
1969,1927,1856
2037,1916,1840
1949,1978,1979
1920,1968,1978
1999,1915,1846
2023,1911,1802
1927,1978,1959
1936,1977,1986
2021,1903,1828
1947,1894,1840
1854,1987,2007
1886,1995,2009
1987,1897,1838
2031,1886,1794
1989,1962,1959
1954,1984,1968
1904,1921,1879
1926,1904,1872
1923,1975,1974
1917,1966,1971
1968,1895,1869
1979,1915,1854
1954,1954,1930
1934,1967,1953
1974,1898,1872
1975,1915,1893
1927,1968,1962
1947,1984,1963
1986,1920,1871
2031,1916,1871
1950,1968,1977
1936,1962,1979
1984,1890,1829
2037,1915,1856
1968,1989,2000
1947,1977,1995
1971,1903,1857
2001,1908,1838
1925,1988,1972
1899,1985,1997
1954,1899,1859
2073,1904,1827
2064,1972,1943
2007,1980,1984
1907,1893,1849
1920,1917,1872
1932,1975,1975
1932,1969,1990
1971,1900,1859
2002,1895,1830
1994,1968,1962
1942,1952,1968
1994,1904,1847
2014,1899,1819
1947,1968,1956
1904,1983,2000
1941,1888,1850
2067,1902,1830
2034,1964,1936
1968,1966,1961
1893,1883,1846
1938,1876,1826
1964,1979,1979
1967,1975,1986
1979,1904,1860
1989,1903,1830
1965,1958,1933
1980,1968,1955
1936,1904,1851
1940,1893,1826
1968,1958,1953
1968,1957,1971
1911,1877,1843
2007,1893,1823
1987,1969,1956
1898,1967,1971
1927,1879,1828
1981,1889,1818
2005,1953,1942
1951,1969,1968
1949,1906,1842
1985,1901,1836
1973,1967,1973
1954,1941,1962
1954,1872,1801
2000,1888,1809
1962,1963,1958
1906,1954,1990
1914,1885,1840
1974,1872,1808
1957,1965,1935
1936,1954,1968
1967,1866,1834
2035,1867,1808
1988,1939,1904
1903,1936,1977
1897,1872,1845
1951,1887,1836
1973,1951,1936
1973,1932,1910
1967,1855,1797
1974,1884,1846
1983,1975,1971
1943,1955,1981
1907,1879,1830
1943,1871,1808
2015,1929,1923
1986,1930,1956
1904,1861,1851
1942,1878,1837
1979,1928,1887
1888,1934,1933
1908,1878,1840
1974,1889,1813
1949,1951,1927
1901,1945,1952
1927,1870,1814
1975,1867,1783
1958,1930,1904
1924,1937,1962
2021,1859,1815
2033,1874,1797
1935,1936,1909
1883,1935,1936
1890,1867,1822
1966,1872,1799
1968,1968,1929
1909,1950,1921
1899,1858,1801
1984,1875,1796
2013,1943,1909
1935,1934,1950
1872,1842,1801
1920,1893,1776
1962,1883,1907
1941,1936,1929
1936,1873,1798
1954,1834,1797
1925,1958,1930
1887,1962,1946
1914,1890,1811
1991,1821,1782
1962,1923,1925
1887,1929,1936
1931,1865,1825
1958,1872,1807
1968,1936,1925
1934,1918,1922
1945,1845,1789
1975,1867,1787
1968,1926,1937
1884,1917,1966
1879,1839,1823
1945,1853,1797
1950,1904,1908
1971,1892,1904
1935,1837,1791
1923,1861,1822
1905,1935,1966
1860,1901,1921
1968,1831,1807
2015,1852,1776
1907,1939,1903
1839,1915,1921
1891,1840,1793
1938,1840,1776
1937,1914,1917
1887,1882,1954
1904,1860,1810
1963,1841,1781
1989,1854,1904
1966,1901,1913
1886,1841,1797
1878,1846,1808
1898,1923,1936
1905,1916,1937
1951,1808,1764
1967,1870,1776
1902,1941,1915
1901,1933,1913
1879,1803,1778
1883,1838,1783
1933,1955,1911
1894,1965,1938
1911,1821,1802
1975,1808,1798
1961,1893,1918
1951,1903,1905
1904,1840,1786
1915,1829,1789
1904,1918,1920
1889,1949,1911
1901,1807,1792
1931,1847,1786
1901,1933,1918
1871,1906,1920
1921,1833,1759
1970,1815,1744
1898,1909,1889
1843,1936,1939
1879,1803,1805
1946,1890,1775
1943,1917,1899
1914,1904,1911
1895,1831,1776
1905,1854,1783
1910,1918,1903
1923,1904,1901
1936,1822,1744
1973,1834,1746
1899,1926,1941
1826,1931,1989
1871,1827,1823
1921,1867,1778
1907,1884,1883
1923,1924,1955
1932,1830,1799
1959,1907,1782
1923,1925,1941
1850,1998,1947
1858,1837,1775
1946,1845,1790
1925,1970,1925
1887,1909,1933
1915,1900,1781
1963,1833,1752
1917,1872,1879
1905,1910,1927
1915,1847,1824
1925,1826,1798
1874,1906,1935
1845,1914,1938
1878,1821,1795
1921,1843,1777
1909,1914,1923
1909,1923,1913
1942,1809,1779
1931,1792,1775
1862,1914,1902
1840,1946,1934
1876,1883,1802
1936,1827,1789
1936,1903,1904
1873,1884,1909
1885,1872,1781
1962,1850,1778
1937,1843,1915
1871,1840,1933
1855,1841,1797
1889,1831,1777
1876,1883,1904
1845,1868,1940
1865,1902,1808
1918,1861,1799
1907,1925,1921
1885,1825,1937
1904,1851,1799
1904,1836,1782
1874,1918,1934
1847,1891,1937
1875,1846,1791
1938,1850,1771
1905,1908,1903
1883,1877,1934
1931,1855,1781
1902,1840,1776
1843,1931,1921
1838,1907,1920
1881,1827,1795
1947,1846,1787
1888,1936,1917
1861,1914,1936
1853,1817,1782
1885,1818,1796
1871,1920,1933
1841,1943,1943
1871,1840,1803
1919,1877,1808
1895,1916,1929
1852,1899,1927
1874,1826,1783
1934,1822,1778
1897,1937,1923
1872,1899,1910
1871,1840,1794
1922,1845,1792
1955,1929,1930
1833,1924,1945
1828,1831,1792
1885,1841,1792
1892,1908,1921
1856,1899,1927
1840,1818,1790
1885,1842,1785
1871,1909,1931
1836,1904,1941
1847,1828,1798
1895,1854,1802
1879,1919,1930
1850,1905,1930
1872,1838,1791
1903,1851,1796
1874,1921,1930
1840,1906,1931
1863,1838,1791
1904,1853,1791
1874,1922,1925
1840,1908,1921
1866,1840,1783
1894,1851,1785
1872,1919,1922
1831,1910,1922
1867,1834,1789
1902,1843,1789
1877,1913,1920
1843,1905,1915
1869,1830,1776
1904,1842,1778
1883,1907,1911
1839,1893,1918
1851,1824,1781
1902,1840,1792
1872,1910,1921
1838,1895,1915
1860,1815,1778
1892,1829,1777
1870,1895,1906
1835,1889,1900
1858,1819,1781
1891,1834,1791
1863,1898,1915
1829,1875,1907
1850,1799,1758
1874,1814,1756
1845,1895,1907
1822,1875,1906
1847,1808,1767
1881,1820,1776
1856,1886,1903
1824,1872,1897
1846,1799,1757
1882,1823,1770
1857,1893,1904
1834,1873,1895
1854,1805,1758
1899,1809,1751
1881,1881,1884
1853,1877,1887
1886,1797,1757
1935,1816,1759
1914,1918,1895
1878,1893,1904
1904,1806,1774
1947,1839,1774
1936,1911,1894
1903,1898,1879
1920,1828,1776
1968,1846,1781
1947,1915,1901
1907,1889,1893
1936,1823,1751
1975,1837,1745
1951,1902,1867
1929,1903,1873
1954,1828,1743
1990,1840,1741
1963,1908,1859
1936,1894,1853
1952,1826,1711
1992,1851,1717
1968,1910,1850
1933,1883,1835
1943,1792,1691
1982,1827,1702
1955,1905,1823
1922,1894,1825
1936,1810,1687
1973,1835,1693
1951,1906,1819
1908,1916,1818
1915,1837,1695
1949,1861,1690
1924,1936,1830
1890,1936,1856
1906,1873,1840
1925,1889,1834
1886,1954,2176
1848,1942,2347
1867,1898,1873
1904,1917,1634
1885,1987,1745
1872,2000,1798
1903,1951,1706
1923,1968,1711
1888,2033,1825
1858,2032,1815
1890,1984,1710
1936,2005,1721
1909,2079,1856
1885,2089,1847
1913,2023,1712
1933,2054,1727
1909,2128,1859
1882,2129,1857
1914,2077,1731
1937,2098,1744
1904,2158,1862
955,2150,1857
0,2128,1761
0,2150,1778
0,2149,1837
0,2111,1805
0,2071,1714
0,2119,1764
0,2199,1903
0,2173,1875
730,2076,1712
2093,2080,1717
2283,2147,1856
2005,2155,1872
1835,2098,1749
1808,2112,1757
1836,2160,1874
1846,2143,1869
1849,2093,1745
1842,2112,1773
1840,2159,1904
1835,2138,1903
1839,2075,1776
1840,2080,1782
1838,2127,1904
1838,2102,1888
1840,2032,1766
1838,2034,1771
1835,2088,1903
1829,2070,1920
1835,2006,1789
1838,2002,1776
1836,2044,1895
1831,2030,1886
1831,1969,1773
1838,1973,1785
1831,2022,1904
1837,1997,1857
1834,1939,1760
1837,1947,1847
1830,1988,1873
1887,1968,1874
2019,1904,1763
2144,1907,1749
2213,1952,1883
2264,1939,1921
2374,1874,1740
2466,1875,1749
2487,1921,1861
2512,1904,1928
2609,1840,1808
2695,1845,1794
2698,1891,1888
2726,1877,1889
2815,1822,1779
2879,1826,1767
2865,1878,1906
2864,1858,1895
2937,1803,1772
3018,1814,1776
3002,1871,1910
2992,1856,1921
3061,1790,1763
3131,1803,1778
3108,1846,1902
3092,1834,1889
3161,1776,1770
3218,1779,1782
3164,1824,1910
3143,1802,1873
3223,1754,1786
3283,1773,1802
3216,1824,1900
3189,1799,1901
3269,1753,1776
3327,1764,1793
3267,1808,1863
3230,1794,1904
3299,1744,1792
3357,1760,1802
3286,1807,1906
3237,1795,1884
3280,1728,1776
3353,1754,1767
3299,1779,1874
3232,1775,1922
3289,1725,1807
3333,1735,1795
3283,1781,1866
3241,1762,1906
3281,1712,1808
3321,1719,1814
3250,1760,1911
3214,1744,1920
3248,1700,1769
3267,1698,1766
3184,1744,1856
3189,1746,1889
3253,1703,1822
3264,1703,1781
3187,1738,1915
3152,1740,1895
3184,1681,1778
3216,1680,1811
3146,1727,1921
3101,1712,1915
3142,1680,1768
3184,1697,1813
3117,1741,1924
3061,1725,1909
3118,1665,1795
3145,1680,1802
3071,1729,1921
3029,1714,1909
3059,1669,1783
3125,1685,1802
3058,1728,1891
2963,1710,1872
2992,1664,1793
3038,1681,1837
2994,1737,1878
2960,1728,1831
2983,1680,1808
2995,1693,1813
2943,1738,1936
2902,1718,1890
2915,1669,1775
2935,1682,1821
2880,1739,1922
2843,1727,1904
2877,1666,1770
2923,1686,1775
2859,1739,1905
2815,1729,1905
2919,1675,1793
2884,1686,1792
2093,1740,1893
1702,1731,1875
1719,1680,1776
1809,1712,1808
1846,1754,1908
1843,1734,1851
1837,1678,1765
1833,1717,1824
1837,1759,2010
1835,1794,1986
1835,1737,1808
1837,1726,1795
1829,1758,1962
1836,1749,1943
1829,1715,1839
1830,1717,1878
1827,1780,1936
1826,1763,1887
1824,1687,1823
1838,1708,1859
1834,1733,1842
1840,1724,1966
1831,1680,1803
1833,1680,1823
1830,1776,1905
1825,1741,1903
1835,1655,1826
1833,1682,1808
1829,1712,1946
1830,1707,1841
1833,1666,1808
1788,1684,1829
1772,1727,1978
1871,1687,1936
1895,1655,1866
1869,1653,1813
1885,1713,1957
1887,1710,1885
1931,1648,1782
1963,1651,1807
1997,1693,1978
1907,1629,1887
1934,1587,1779
1997,1633,1833
1941,1680,1916
1911,1655,1931
1943,1613,1799
1936,1593,1839
1968,1668,1984
1931,1664,1907
1929,1616,1769
2007,1584,1799
1991,1645,1910
1980,1618,1936
2013,1574,1777
1975,1523,1665
2035,1662,1974
2016,1661,1952
2008,1588,1842
2022,1600,1795
1968,1620,1916
2001,1599,1924
1979,1557,1819
2002,1584,1875
2025,1655,1957
1981,1617,1891
2000,1570,1799
2027,1593,1814
2003,1623,1909
2083,1605,1915
2037,1567,1834
1994,1591,1865
1963,1638,1927
1984,1599,1873
2090,1535,1744
2064,1579,1991
1991,1616,2081
1987,1616,2102
2046,1591,1877
1990,1599,1790
1920,1647,1803
1938,1626,1825
2001,1584,1837
2032,1600,1835
1983,1658,1834
1963,1632,1824
1999,1596,1830
2024,1634,1831
1996,1678,1830
1967,1648,1829
2019,1591,1825
2027,1632,1827
1965,1665,1829
1989,1669,1831
2076,1616,1826
2064,1649,1834
2001,1694,1831
1876,1700,1826
1921,1642,1847
2002,1653,1826
2038,1728,1822
1983,1699,1829
2001,1650,1830
2100,1694,1834
1971,1754,1828
1943,1712,1825
1984,1667,1830
2007,1703,1828
2010,1766,1834
2094,1731,1829
2217,1712,1863
2074,1728,2034
1946,1796,2226
1889,1762,2135
2059,1698,1907
2128,1763,1997
2002,1795,2135
1968,1813,2110
1980,1762,2001
2101,1750,1959
2091,1860,2115
1949,1823,2098
1953,1773,1998
2012,1805,1993
2007,1840,2105
1978,1815,2158
2023,1776,2035
2111,1808,2018
2069,1877,2121
2000,1882,2064
1985,1799,1927
1988,1831,2034
1984,1875,2112
1967,1875,2057
1949,1809,1920
2032,1818,1945
2000,1904,2097
1946,1894,2013
1972,1827,1979
2007,1851,2018
2032,1954,2064
2019,1922,1935
1990,1826,1949
1986,1875,2059
2059,1970,2112
1999,1926,2062
2070,1862,1951
2101,1885,1936
1936,1989,2086
1855,1926,2099
1959,1920,1963
2067,1901,1939
2095,1978,2115
1973,1961,2092
2000,1919,1962
2110,1937,1940
1977,1995,2026
1891,1907,1947
2031,1891,1896
2006,1958,2007
1997,2001,2099
1939,1978,1990
2013,1911,1872
2010,1922,1920
1984,1987,2075
1891,1980,2030
1973,1922,1907
2066,1967,1920
1968,1991,2033
1924,1947,1990
1978,1921,1879
1998,1968,1936
1968,2015,2033
1943,1973,1985
1994,1895,1897
2002,1941,1890
1968,2005,1941
1962,1968,1951
1951,1909,1906
1967,1941,1948
1920,2000,2013
2007,1984,1968
1939,1922,1822
1928,1939,1899
1995,1983,2002
1961,1966,1964
1930,1904,1813
1996,1950,1882
1867,2027,2032
1982,1967,1936
1971,1912,1840
1921,1935,1900
1890,2005,2015
1922,1971,1953
1993,1925,1846
2034,1943,1857
1948,1984,1965
1920,1991,1921
1932,1923,1814
1968,1926,1862
1952,2015,1973
1957,1971,1948
1952,1910,1842
1930,1969,1867
1918,2005,1997
1901,1980,1978
1964,1895,1834
1965,1945,1860
1930,2007,1984
1878,1975,1909
1978,1901,1777
1943,1933,1835
1965,1988,1968
1874,1995,1922
1947,1932,1835
1942,1929,1843
1931,1983,1992
1873,1971,1939
1927,1923,1799
2017,1946,1863
1933,1999,1963
1855,1982,1872
1927,1918,1781
1923,1937,1854
1938,2000,1954
1907,1984,1919
1927,1904,1793
1942,1961,1831
1885,2016,1930
1904,1968,1899
1903,1895,1814
1891,1936,1854
1872,1984,1907
1939,1950,1872
1997,1898,1742
1926,1931,1855
1846,1979,1984
1901,1964,1907
1969,1914,1792
1924,1924,1798
1872,1989,1936
1865,1946,1878
1874,1892,1773
1878,1925,1807
1919,1993,1942
1875,1971,1904
1905,1879,1728
1918,1925,1766
1933,1974,1927
1862,1955,1895
1882,1904,1793
1944,1904,1805
1905,1984,1914
1823,1937,1872
1839,1889,1779
1872,1921,1825
1919,1991,1936
1867,1955,1853
1881,1887,1757
1901,1914,1770
1867,1957,1917
1839,1920,1933
1879,1910,1799
1911,1937,1795
1893,1977,1904
1873,1955,1886
1919,1872,1712
1921,1902,1778
1841,1969,1941
1777,1935,1910
1846,1876,1798
1904,1895,1792
1922,1954,1855
1857,1924,1882
1829,1863,1776
1869,1889,1801
1853,1962,1926
1850,1923,1887
1905,1859,1749
1916,1875,1776
1904,1964,1931
1904,1929,1872
1856,1846,1744
1836,1907,1786
1813,1954,1914
1857,1934,1872
1878,1857,1709
1873,1872,1779
1846,1938,1917
1824,1921,1871
1849,1851,1741
1901,1882,1781
1874,1941,1903
1839,1906,1862
1850,1885,1722
1893,1876,1751
1945,1959,1898
1875,1929,1874
1773,1830,1766
1802,1867,1794
1865,1947,1904
1843,1924,1868
1851,1853,1776
1879,1877,1806
1853,1936,1898
1853,1904,1835
1862,1846,1731
1865,1899,1778
1839,1968,1885
1798,1886,1851
1859,1814,1709
1881,1854,1757
1831,1951,1915
1814,1931,1893
1872,1859,1750
1901,1863,1771
1860,1943,1904
1791,1903,1877
1810,1860,1743
1869,1890,1755
1831,1932,1847
1822,1874,1851
1895,1851,1728
1879,1875,1781
1783,1930,1936
1797,1901,1914
1819,1839,1760
1855,1873,1795
1853,1927,1921
1808,1903,1841
1821,1844,1698
1866,1843,1778
1858,1936,1936
1911,1905,1865
1845,1835,1715
1857,1865,1778
1801,1911,1918
1769,1903,1865
1854,1852,1721
1882,1875,1746
1801,1931,1943
1824,1906,1918
1841,1853,1772
1883,1872,1767
1871,1896,1808
1818,1891,1842
1782,1840,1777
1819,1885,1851
1792,1932,1892
1809,1904,1831
1856,1853,1755
1890,1874,1802
1831,1936,1946
1782,1897,1872
1823,1828,1754
1867,1872,1791
1834,1931,1911
1808,1901,1856
1834,1835,1719
1845,1838,1734
1838,1904,1863
1886,1889,1878
1900,1843,1778
1872,1871,1794
1903,1936,1909
1815,1894,1873
1774,1855,1785
1807,1891,1813
1802,1908,1890
1840,1894,1869
1893,1828,1739
1888,1871,1799
1805,1910,1907
1808,1893,1869
1849,1824,1742
1851,1866,1776
1823,1937,1890
1766,1876,1845
1835,1830,1762
1868,1865,1803
1870,1921,1919
1787,1873,1886
1795,1837,1746
1855,1855,1783
1879,1910,1870
1859,1880,1805
1819,1815,1777
1809,1851,1833
1793,1899,1919
1805,1861,1866
1875,1821,1738
1897,1847,1789
1793,1904,1899
1774,1879,1868
1855,1827,1751
1866,1856,1790
1808,1897,1904
1775,1857,1879
1849,1808,1728
1873,1845,1751
1841,1903,1899
1826,1845,1873
1822,1814,1797
1852,1856,1833
1831,1899,1913
1825,1873,1889
1859,1823,1763
1834,1843,1786
1762,1903,1896
1769,1853,1865
1837,1805,1757
1849,1847,1783
1802,1887,1906
1810,1837,1887
1851,1814,1745
1904,1837,1785
1863,1878,1927
1792,1868,1898
1798,1763,1755
1814,1830,1789
1818,1895,1895
1818,1873,1854
1856,1770,1743
1902,1809,1765
1872,1893,1900
1797,1839,1886
1790,1857,1782
1857,1831,1797
1840,1877,1929
1833,1862,1890
1840,1803,1767
1826,1826,1799
1815,1847,1905
1811,1802,1877
1862,1810,1744
1878,1826,1803
1846,1931,1903
1798,1839,1885
1867,1808,1738
1877,1809,1765
1791,1829,1927
1776,1834,1871
1827,1786,1745
1873,1774,1799
1834,1872,1934
1807,1840,1894
1894,1799,1754
1886,1831,1796
1789,1851,1911
1822,1842,1872
1885,1783,1747
1856,1824,1811
1776,1883,1959
1787,1846,1859
1847,1792,1750
1887,1818,1808
1831,1872,1938
1797,1823,1897
1844,1776,1763
1886,1834,1810
1886,1872,1905
1856,1799,1873
1818,1802,1776
1867,1869,1811
1811,1904,1943
1821,1840,1903
1849,1793,1771
1857,1838,1811
1829,1903,1931
1831,1799,1879
1871,1815,1782
1873,1853,1831
1847,1899,1929
1863,1874,1875
1897,1776,1756
1847,1825,1840
1791,1869,1963
1781,1811,1903
1845,1791,1728
1935,1848,1788
1931,1889,1931
1767,1850,1887
1787,1806,1799
1855,1853,1846
1842,1895,1958
1847,1872,1876
1898,1806,1762
1835,1841,1831
1809,1895,1961
1804,1844,1904
1834,1797,1754
1894,1846,1773
1843,1919,1925
1835,1871,1942
1843,1829,1824
1866,1840,1825
1858,1879,1904
1827,1891,1889
1872,1805,1774
1872,1874,1840
1856,1924,1966
1849,1891,1919
1957,1873,1752
1851,1831,1809
1814,1915,1940
1790,1853,1902
1808,1822,1791
1870,1851,1831
1826,1889,1970
1807,1865,1904
1866,1799,1761
1914,1849,1824
1840,1899,1955
1793,1867,1915
1840,1809,1795
1869,1853,1814
1817,1907,1936
1868,1900,1893
1889,1863,1797
1880,1898,1838
1799,1907,1936
1803,1907,1879
1892,1802,1757
1872,1842,1812
1825,1919,1935
1823,1876,1890
1892,1887,1809
1894,1897,1821
1791,1914,1948
1808,1885,1921
1846,1807,1806
1889,1830,1829
1893,1879,1950
1817,1891,1918
1839,1849,1787
1882,1876,1829
1872,1875,1934
1886,1871,1868
1842,1826,1792
1825,1872,1845
1823,1915,1936
1861,1856,1892
1874,1802,1744
1878,1922,1811
1838,1915,1958
1808,1886,1920
1837,1839,1791
1915,1877,1839
1887,1929,1935
1815,1886,1889
1851,1869,1809
1916,1890,1789
1869,1920,1939
1795,1878,1904
1831,1831,1791
1860,1856,1831
1837,1894,1957
1831,1868,1898
1878,1840,1798
1868,1866,1835
1809,1941,1920
1803,1965,1894
1861,1834,1791
1909,1755,1855
1876,1922,1938
1819,1914,1889
1839,1863,1756
1872,1923,1833
1871,1911,1966
1844,1906,1890
1839,1808,1797
1872,1888,1840
1859,1927,1931
1854,1862,1899
1872,1813,1765
1886,1873,1822
1835,1939,1936
1846,1889,1897
1871,1840,1813
1878,1878,1858
1853,1938,1962
1849,1903,1895
1873,1839,1748
1943,1866,1807
1851,1911,1946
1795,1894,1920
1845,1840,1788
1909,1883,1839
1923,1950,1932
1853,1877,1904
1801,1813,1782
1840,1865,1831
1851,1915,1968
1904,1889,1911
1936,1833,1783
1929,1878,1844
1824,1920,1969
1823,1886,1903
1874,1847,1783
1905,1871,1825
1855,1935,1979
1840,1898,1919
1900,1834,1777
1937,1872,1839
1894,1943,1947
1859,1905,1901
1877,1847,1799
1899,1871,1860
1867,1914,1967
1897,1885,1920
1951,1830,1776
2006,1859,1805
1917,1914,1948
1815,1883,1901
1839,1843,1795
1877,1870,1842
1886,1919,1959
1899,1874,1904
1921,1811,1744
1943,1879,1853
1885,1926,1968
1885,1899,1933
1923,1824,1776
1926,1857,1819
1901,1922,1963
1901,1907,1904
1895,1848,1778
1903,1875,1829
1874,1936,1959
1878,1899,1931
1904,1822,1776
1954,1870,1817
1940,1917,1935
1844,1875,1904
1881,1818,1769
2042,1877,1835
1909,1920,1933
1807,1888,1933
1878,1838,1808
1959,1873,1840
1902,1907,1950
1910,1879,1872
1927,1829,1757
1915,1878,1852
1855,1936,1977
1859,1903,1922
1902,1823,1790
1941,1867,1831
1918,1917,1929
1895,1879,1872
1936,1821,1762
1949,1872,1821
1902,1938,1931
1886,1903,1903
1867,1840,1813
1946,1874,1859
1967,1921,1942
1833,1867,1882
1837,1826,1802
1892,1887,1840
1894,1921,1930
1872,1878,1899
1917,1826,1795
1943,1872,1848
1897,1917,1954
1876,1909,1914
1910,1850,1786
1930,1872,1822
1911,1919,1940
1934,1892,1904
1934,1840,1790
1902,1871,1808
1888,1920,1909
1867,1893,1904
1883,1849,1806
1919,1878,1857
1928,1925,1968
1949,1869,1842
1930,1824,1735
1947,1866,1841
1884,1923,1984
1833,1872,1910
1882,1839,1770
1888,1887,1789
1905,1933,1935
1904,1873,1889
1936,1825,1777
1897,1862,1827
1893,1923,1959
1898,1883,1895
1901,1840,1791
1903,1879,1856
1876,1907,1947
1887,1875,1887
1913,1840,1748
1931,1874,1841
1937,1913,1919
1878,1872,1892
1898,1828,1799
1921,1872,1843
1905,1918,1908
1867,1872,1862
1872,1828,1801
1906,1872,1836
1925,1922,1953
1913,1866,1904
1930,1822,1800
1888,1883,1850
1858,1926,1946
1838,1875,1858
1909,1819,1755
1959,1872,1825
1905,1931,1953
1891,1887,1889
1895,1840,1776
1921,1876,1837
1887,1905,1923
1860,1867,1887
1894,1829,1773
1929,1878,1829
1904,1917,1975
1909,1874,1885
1906,1838,1761
1914,1877,1811
1894,1936,1947
1860,1882,1909
1863,1807,1753
1903,1851,1808
1914,1924,1956
1927,1901,1869
1919,1840,1759
1867,1861,1843
1852,1925,1975
1878,1893,1858
1929,1840,1789
1918,1860,1795
1883,1936,1923
1894,1874,1914
1929,1821,1782
1933,1883,1856
1855,1935,1943
1860,1872,1897
1936,1811,1824
1905,1878,1834
1871,1920,1936
1895,1866,1862
1919,1805,1767
1873,1870,1851
1851,1906,1973
1856,1867,1871
1922,1809,1728
2015,1871,1819
1939,1931,1901
1826,1871,1839
1843,1812,1761
1919,1859,1840
1875,1920,1968
1840,1873,1899
1888,1814,1772
1945,1861,1778
1903,1907,1899
1827,1867,1877
1875,1823,1803
1886,1877,1808
1937,1911,1893
1874,1862,1872
1865,1821,1782
1913,1872,1892
1911,1910,1947
1833,1870,1858
1850,1823,1754
1911,1853,1840
1921,1902,1946
1846,1871,1873
1859,1824,1793
1890,1861,1790
1875,1914,1920
1881,1872,1850
1951,1814,1795
1936,1870,1824
1865,1925,1962
1786,1849,1856
1866,1827,1794
1943,1873,1831
1897,1936,1939
1824,1864,1865
1856,1792,1755
1929,1872,1830
1870,1920,1935
1865,1868,1909
1861,1815,1776
1959,1872,1809
1998,1917,1894
1793,1856,1878
1791,1799,1783
1873,1857,1844
1920,1920,1958
1842,1878,1874
1853,1825,1776
1891,1851,1865
1883,1895,1967
1892,1862,1892
1897,1803,1746
1883,1858,1831
1872,1916,1951
1886,1840,1856
2011,1782,1706
1894,1835,1840
1805,1897,2096
1814,1843,2017
1913,1799,1793
1985,1862,1872
1871,1909,2025
1827,1856,1873
1834,1803,1753
1904,1831,1808
1851,1883,1994
1840,1839,1899
1901,1792,1776
1904,1838,1787
1903,1904,1953
1872,1851,1902
1879,1797,1771
1959,1852,1840
1964,1902,1953
1850,1841,1852
1818,1812,1744
1881,1868,1840
1822,1914,1990
1824,1858,1890
1858,1793,1790
1917,1822,1795
1926,1904,1934
1848,1850,1914
1840,1813,1782
1872,1871,1902
1870,1908,1981
1872,1862,1851
1945,1820,1727
1947,1847,1703
1907,1877,1929
1842,1856,1814
1793,1837,1781
1846,1867,1823
1826,1872,1875
1852,1861,1905
1885,1808,1773
1904,1856,1827
1872,1899,1905
1826,1867,1865
1834,1829,1765
