1840,1869,1853
1822,1917,1968
1835,1850,1822
1860,1830,1756
1843,1875,1856
1797,1882,1911
1851,1840,1797
1917,1830,1786
1862,1891,1904
1828,1920,1927
1828,1860,1846
1838,1840,1795
1828,1882,1878
1787,1883,1885
1837,1845,1793
1881,1840,1795
1858,1886,1869
1842,1894,1935
1826,1847,1878
1861,1840,1772
1846,1895,1859
1798,1903,1918
1840,1856,1855
1886,1840,1787
1851,1895,1865
1807,1906,1918
1835,1845,1831
1891,1815,1734
1882,1887,1866
1802,1904,1955
1825,1858,1840
1887,1811,1751
1840,1866,1841
1799,1873,1921
1844,1845,1840
1883,1840,1742
1865,1889,1858
1808,1904,1936
1841,1853,1855
1905,1829,1777
1894,1863,1829
1810,1890,1904
1813,1854,1841
1858,1840,1787
1843,1884,1861
1792,1902,1925
1827,1845,1824
1877,1815,1759
1886,1866,1849
1804,1903,1927
1864,1865,1837
1825,1840,1776
1790,1883,1866
1804,1904,1935
1846,1856,1855
1899,1833,1748
1859,1872,1820
1780,1904,1917
1798,1849,1837
1891,1839,1763
1855,1883,1840
1827,1899,1922
1890,1857,1852
1887,1840,1778
1811,1866,1855
1799,1894,1919
1831,1858,1836
1875,1836,1763
1859,1886,1862
1882,1907,1923
1867,1856,1829
1872,1840,1783
1846,1883,1845
1791,1894,1875
1839,1844,1803
1897,1840,1799
1849,1894,1872
1840,1891,1877
1858,1840,1807
1911,1831,1791
1877,1881,1881
1846,1911,1910
1836,1862,1851
1906,1847,1808
1828,1875,1846
1810,1887,1890
1866,1840,1786
1885,1805,1753
1887,1868,1856
1808,1907,1934
1810,1851,1861
1861,1821,1787
1888,1900,1846
1842,1915,1931
1819,1861,1846
1878,1837,1791
1887,1868,1843
1907,1875,1863
1835,1867,1840
1843,1845,1791
1818,1902,1882
1815,1916,1939
1825,1847,1825
1936,1872,1823
1856,1899,1879
1790,1895,1911
1857,1861,1840
1821,1837,1774
1840,1890,1872
1831,1900,1933
1845,1854,1833
1885,1854,1780
1863,1910,1904
1815,1899,1929
1803,1835,1815
1877,1833,1758
1883,1889,1861
1795,1907,1927
1839,1851,1852
1931,1847,1794
1895,1887,1857
1875,1897,1893
1850,1841,1840
1862,1824,1801
1876,1869,1871
1840,1879,1902
1850,1840,1840
1876,1839,1779
1855,1884,1872
1821,1891,1935
1866,1830,1836
1926,1835,1761
1888,1885,1857
1810,1905,1936
1783,1856,1872
1815,1828,1760
1872,1874,1845
1857,1902,1909
1900,1856,1843
1874,1828,1811
1873,1888,1882
1791,1886,1905
1831,1843,1827
1886,1825,1765
1760,1872,1851
1815,1893,1937
1858,1872,1872
1869,1839,1763
1873,1879,1834
1831,1915,1929
1814,1857,1829
1872,1839,1767
1901,1872,1851
1821,1883,1919
1833,1869,1837
1902,1840,1776
1873,1897,1879
1818,1900,1909
1798,1844,1823
1837,1840,1777
1871,1877,1870
1843,1883,1930
1813,1844,1830
1875,1843,1772
1872,1893,1869
1776,1913,1933
1836,1851,1830
1876,1840,1769
1808,1891,1871
1777,1893,1910
1813,1846,1831
1835,1838,1776
1874,1879,1871
1847,1888,1918
1851,1845,1835
1882,1824,1761
1872,1865,1866
1856,1915,1923
1839,1854,1831
1885,1837,1774
1879,1875,1827
1803,1895,1924
1815,1858,1858
1873,1822,1779
1887,1858,1824
1855,1898,1892
1850,1859,1856
1856,1827,1789
1855,1864,1829
1859,1898,1918
1858,1853,1866
1877,1837,1778
1841,1853,1810
1787,1879,1862
1842,1869,1837
1856,1840,1808
1853,1879,1856
1801,1901,1921
1847,1863,1829
1871,1847,1779
1927,1891,1894
1783,1879,1906
1879,1839,1808
1883,1808,1737
1812,1877,1858
1775,1905,1948
1819,1853,1826
1851,1819,1777
1875,1884,1877
1855,1917,1906
1810,1849,1808
1890,1814,1754
1870,1862,1809
1823,1905,1909
1819,1858,1861
1853,1827,1791
1855,1872,1846
1818,1901,1904
1878,1856,1835
1904,1839,1769
1834,1874,1858
1803,1914,1947
1824,1829,1795
1877,1808,1725
1851,1862,1852
1828,1883,1933
1853,1868,1885
1866,1840,1776
1862,1878,1849
1831,1913,1939
1887,1872,1849
1895,1819,1745
1875,1851,1776
1806,1891,1922
1828,1875,1887
1879,1845,1807
1881,1856,1809
1853,1896,1890
1834,1854,1827
1904,1837,1767
1861,1885,1843
1808,1891,1883
1857,1874,1894
1891,1836,1807
1907,1879,1840
1823,1908,1921
1792,1855,1830
1875,1831,1776
1878,1872,1837
1825,1890,1936
1847,1843,1793
1953,1846,1765
1877,1884,1856
1770,1893,1895
1823,1840,1811
1890,1841,1795
1855,1879,1881
1840,1904,1936
1863,1856,1843
1882,1808,1755
1895,1875,1836
1821,1899,1889
1823,1856,1814
1879,1835,1802
1883,1897,1902
1840,1901,1907
1870,1840,1790
1936,1831,1751
1922,1872,1872
1872,1895,1913
1859,1856,1840
1893,1834,1795
1882,1886,1889
1870,1923,1949
1920,1858,1839
1984,1813,1757
1999,1850,1831
1970,1891,1878
1971,1859,1851
2004,1850,1818
2000,1877,1879
1968,1903,1929
2034,1854,1808
2117,1824,1751
2080,1891,1890
1984,1918,1968
2001,1863,1856
2083,1844,1775
2096,1875,1867
2068,1879,1915
2126,1851,1833
2062,1819,1758
2026,1887,1871
2023,1911,1937
2085,1854,1811
2142,1837,1757
2089,1887,1864
2043,1907,1969
2066,1862,1867
2130,1842,1751
2141,1885,1862
2081,1902,1935
2061,1853,1840
2101,1843,1782
2114,1901,1886
2090,1904,1921
2094,1868,1840
2094,1838,1761
2070,1884,1873
2025,1906,1935
2097,1874,1857
2132,1845,1775
2073,1862,1825
2062,1901,1922
2026,1851,1776
2091,1845,1758
2119,1891,1919
2045,1898,1954
2066,1849,1834
2110,1826,1769
2081,1878,1866
2068,1906,1905
2055,1873,1872
2057,1836,1808
2039,1874,1867
2003,1904,1927
2031,1864,1847
2095,1844,1777
2071,1871,1867
1983,1887,1915
2022,1831,1818
2093,1840,1755
2047,1872,1870
2004,1903,1929
2025,1842,1810
2134,1823,1712
2011,1872,1872
1947,1903,1952
2013,1855,1863
2097,1815,1792
2034,1885,1879
1983,1909,1919
2030,1856,1840
2047,1831,1779
2003,1871,1840
1963,1886,1920
2000,1865,1838
2095,1857,1798
2068,1863,1840
1968,1894,1905
1987,1865,1859
2009,1848,1813
2047,1889,1891
1965,1903,1926
1987,1858,1840
2054,1834,1744
2065,1894,1831
1974,1903,1925
1913,1815,1813
2000,1827,1762
2003,1904,1890
1948,1911,1945
1958,1854,1854
2013,1895,1794
2018,1889,1873
1961,1878,1907
1969,1858,1820
2026,1833,1740
1985,1911,1841
1918,1839,1936
1980,1866,1841
2000,1868,1765
1943,1888,1901
1903,1891,1962
1931,1851,1850
1991,1840,1771
1975,1917,1870
1935,1888,1940
1938,1798,1823
1998,1877,1747
1995,1853,1863
1899,1944,1937
1919,1859,1841
1985,1810,1781
1968,1872,1863
1907,1902,1920
1925,1856,1845
1979,1833,1777
1985,1876,1859
1903,1890,1921
1965,1845,1842
1975,1825,1783
1933,1847,1867
1877,1904,1921
1924,1856,1851
1986,1857,1777
1969,1869,1837
1989,1925,1904
1937,1854,1844
1915,1851,1815
1904,1882,1888
1877,1893,1927
1918,1843,1831
1973,1835,1776
1950,1873,1868
1893,1862,1934
1915,1823,1849
1971,1872,1777
1939,1852,1855
1888,1870,1921
1923,1773,1854
1986,1858,1795
1939,1904,1858
1877,1828,1922
1910,1672,1850
1955,1803,1783
1931,1887,1851
1876,1883,1916
1898,1776,1825
1941,1780,1771
1929,1845,1866
1901,1933,1954
1929,1783,1872
1948,1729,1776
1911,1698,1895
1863,1881,1919
1939,1909,1883
2053,1733,1811
1967,1744,1878
1822,1865,1968
1826,1779,1813
1893,1737,1653
1904,1723,1767
1856,1759,1873
1883,1754,1799
1935,1831,1776
1914,1809,1887
1842,1822,1858
1866,1790,1758
1930,1884,1739
1905,1847,1824
1847,1808,1878
1871,1778,1808
1927,1803,1755
1919,1844,1826
1847,1811,1893
1872,1803,1807
1927,1818,1753
1904,1867,1841
1849,1873,1914
1870,1818,1834
1929,1872,1766
1915,1843,1854
1853,1885,1927
1872,1831,1840
1920,1798,1773
1905,1900,1861
1860,1874,1951
1872,1819,1844
1919,1843,1763
1904,1856,1842
1850,1921,1915
1872,1838,1845
1936,1821,1792
1907,1870,1876
1849,1887,1927
1863,1847,1831
1922,1813,1763
1903,1872,1849
1856,1899,1929
1891,1857,1872
1937,1887,1795
1883,1863,1853
1835,1899,1917
1869,1840,1840
1941,1815,1778
1935,1874,1839
1837,1893,1909
1830,1919,1895
1873,1849,1787
1873,1851,1843
1834,1954,1914
1844,1863,1835
1899,1788,1799
1872,1841,1868
1825,1904,1910
1842,1851,1821
1900,1891,1776
1877,1870,1863
1837,1930,1926
1847,1808,1842
1895,1849,1777
1878,1860,1861
1818,1882,1936
1840,1872,1844
1891,1817,1783
1872,1836,1865
1823,1899,1933
1842,1834,1840
1904,1792,1777
1872,1856,1859
1821,1900,1925
1847,1840,1840
1933,1826,1797
1914,1889,1872
1824,1888,1898
1850,1887,1808
1919,1825,1753
1905,1819,1837
1866,1939,1901
1895,1764,1819
1946,1847,1760
1938,1861,1855
1919,1875,1888
1894,1850,1808
1936,1810,1772
1936,1901,1859
1887,1921,1918
1905,1849,1833
1970,1835,1767
1950,1931,1853
1905,1905,1922
1909,1861,1829
1958,1859,1767
1942,1890,1847
1901,1915,1906
1915,1869,1835
1962,1840,1767
1943,1921,1858
1905,1917,1935
1979,1872,1824
2032,1840,1726
1905,1887,1847
1858,1915,1918
1901,1854,1813
2015,1825,1726
2210,1905,1835
1911,1931,1953
1851,1878,1886
1946,1860,1739
1857,1904,1843
1803,1930,1979
1860,1881,1872
1951,1863,1773
1946,1922,1858
1905,1907,1913
1893,1855,1827
1946,1865,1816
1931,1929,1887
1918,1941,1907
2064,1875,1774
1968,1851,1728
1931,1905,1903
1853,1927,1965
1871,1873,1831
1934,1834,1707
1933,1888,1856
1954,1887,1923
1971,1861,1831
1918,1819,1750
1982,1920,1901
1855,1950,1995
1842,1872,1856
1965,1825,1746
2091,1929,1887
1940,1927,1955
1830,1846,1857
1875,1807,1773
1925,1885,1872
1851,1870,1900
1987,1851,1798
2199,1858,1770
1936,1856,1876
1798,1889,1935
1863,1807,1898
1929,1792,1803
1979,1859,1807
1947,1876,1873
1885,1824,1821
1856,1801,1818
1858,1831,1888
1872,1857,1932
1904,1823,1837
2000,1801,1770
1989,1834,1815
1856,1840,1904
1867,1805,1841
1982,1808,1744
1901,1845,1813
1796,1857,1906
1829,1801,1840
1904,1806,1776
1879,1813,1856
1903,1855,1947
1950,1835,1862
1913,1794,1763
1914,1815,1821
1879,1874,1941
1841,1795,1872
1879,1794,1791
1953,1857,1815
1886,1871,1847
1855,1806,1836
1907,1773,1803
1832,1840,1840
1742,1863,1979
1811,1808,1872
1925,1797,1786
1806,1833,1861
1738,1851,1968
1808,1818,1840
1888,1797,1760
1957,1823,1836
1831,1834,1935
1780,1808,1860
1797,1769,1787
1872,1838,1920
1835,1877,1936
1836,1814,1808
1855,1742,1681
1874,1831,1804
1749,1869,1995
1749,1792,1909
1883,1792,1797
1942,1835,1838
1776,1849,1923
1771,1799,1838
1829,1779,1767
1917,1867,1844
2141,1885,1857
1822,1812,1805
1694,1801,1884
1695,1834,1939
1743,1838,1915
1811,1794,1820
1843,1778,1751
1869,1827,1811
1931,1871,1915
1797,1807,1895
1887,1806,1814
1803,1857,1906
1729,1864,1977
1766,1805,1828
1910,1766,1717
1860,1829,1837
1818,1872,1984
1789,1818,1902
1825,1807,1804
1798,1826,1779
1871,1904,1888
1834,1841,1909
1849,1809,1797
1913,1834,1787
1840,1874,1963
1779,1811,1909
1815,1790,1758
1855,1840,1791
1840,1883,1936
1805,1839,1863
1858,1825,1817
1918,1881,1906
2011,1895,1910
1794,1841,1859
1724,1825,1827
1759,1856,1886
1773,1863,1921
1825,1843,1840
1831,1801,1647
1904,1869,1802
1802,1904,2011
1755,1813,1942
1826,1867,1770
1877,1870,1863
1827,1917,1990
1834,1823,1823
2000,1779,1703
1885,1891,1901
1713,1914,2023
1735,1856,1895
1847,1791,1721
1898,1872,1840
1811,1916,1967
1803,1877,1893
1859,1819,1765
1883,1856,1872
1823,1901,1915
1831,1845,1914
1845,1822,1809
1851,1871,1859
1795,1901,1917
1786,1840,1818
1925,1840,1776
1883,1899,1951
1780,1885,1926
1853,1825,1767
1904,1863,1795
1831,1898,1949
1784,1897,1989
1861,1841,1811
1913,1808,1692
1894,1899,1855
1725,1934,2010
1755,1866,1955
1865,1840,1789
1957,1852,1810
1829,1922,1966
1743,1875,1891
1799,1822,1755
1870,1858,1795
1825,1919,1966
1827,1872,1860
1851,1838,1782
1906,1905,1885
1870,1915,1923
1761,1808,1773
1872,1872,1808
1886,1916,1969
1846,1936,1950
1879,1870,1767
1847,1840,1743
1776,1904,1914
1747,1917,1984
1813,1828,1796
1936,1871,1787
1882,1923,1951
1747,1911,1946
1915,1898,1840
1936,1857,1776
1822,1872,1908
1780,1919,2019
1757,1850,1823
1951,1829,1709
1936,1889,1874
1798,1931,2007
1783,1874,1882
1872,1870,1841
1888,1901,1920
1842,1923,1904
1813,1903,1875
1873,1889,1872
1893,1904,1840
1867,1900,1887
1847,1888,1840
1889,1851,1765
1749,1890,1826
1728,1915,1890
1845,1905,1934
1902,1896,1856
1888,1908,1837
1834,1910,1878
1861,1858,1843
1892,1872,1793
1821,1921,1936
1808,1921,1901
1829,1872,1826
1915,1885,1881
1919,1910,1905
1888,1889,1835
1872,1885,1777
1840,1894,1809
1791,1939,1943
1806,1941,1991
1836,1878,1873
1890,1855,1759
1923,1939,1840
1821,1924,1871
1795,1872,1946
1880,1856,1744
1863,1915,1854
1782,1932,1919
1799,1885,1805
1939,1865,1781
2005,1892,1917
1872,1921,1935
1830,1857,1824
1798,1867,1834
1797,1910,1808
1762,1919,1923
1843,1888,1840
1920,1866,1791
1868,1895,1863
1823,1910,1939
1840,1878,1841
1923,1871,1776
1909,1890,1847
1918,1919,1919
1798,1889,1900
1817,1866,1867
1822,1887,1882
1843,1885,1866
1969,1872,1803
1872,1867,1709
1857,1915,1817
1773,1911,1991
1807,1867,1951
1869,1847,1760
1891,1907,1882
1878,1927,1917
1871,1840,1819
1895,1838,1838
1808,1886,1867
1811,1921,1842
1885,1874,1843
1863,1839,1759
1856,1904,1874
1841,1904,1914
1854,1856,1818
1856,1854,1787
1872,1909,1935
1856,1904,1947
1901,1849,1813
1922,1846,1739
1827,1850,1849
1723,1887,1940
1780,1882,1857
1872,1866,1837
1872,1904,1881
1813,1917,1938
1859,1872,1868
1904,1837,1779
1911,1872,1884
1890,1907,1929
1829,1867,1854
1881,1839,1723
1898,1886,1769
1790,1904,1903
1799,1849,1860
1917,1839,1772
1835,1871,1808
1879,1920,1933
1882,1856,1818
1836,1811,1760
1826,1872,1920
1808,1907,1970
1846,1871,1854
1931,1813,1781
1914,1857,1807
1852,1899,1888
1859,1840,1860
1875,1821,1834
1830,1856,1897
1818,1873,1914
1846,1851,1834
1937,1840,1808
1898,1881,1861
1810,1887,1921
1806,1810,1808
1911,1815,1784
1865,1866,1898
1813,1901,1941
1831,1849,1840
1923,1802,1819
1934,1839,1839
1861,1876,1892
1808,1840,1850
1867,1835,1808
1893,1891,1894
1883,1880,1909
1830,1832,1808
1857,1787,1720
1915,1885,1852
1852,1899,1970
1853,1831,1869
1877,1813,1797
1875,1863,1865
1871,1865,1901
1813,1827,1859
1857,1824,1802
1879,1862,1872
1834,1872,1926
1872,1837,1851
1904,1821,1757
1899,1844,1830
1845,1870,1905
1840,1820,1855
1887,1827,1829
1943,1867,1872
1811,1872,1901
1863,1834,1815
1937,1818,1789
1817,1872,1893
1842,1890,1936
1819,1827,1831
1866,1815,1769
1838,1855,1837
1930,1871,1881
1869,1841,1862
1881,1795,1829
1843,1852,1858
1807,1874,1917
1840,1838,1850
1940,1815,1781
1872,1851,1838
1818,1872,1883
1842,1832,1831
1926,1819,1770
1936,1859,1850
1767,1879,1936
1806,1843,1844
1847,1823,1764
1872,1862,1813
1823,1866,1881
1907,1834,1817
1908,1806,1717
1847,1840,1818
1779,1849,1930
1793,1807,1840
1917,1793,1770
1922,1863,1862
1899,1902,1952
1840,1837,1817
1886,1787,1757
1895,1850,1815
1826,1873,1915
1801,1822,1865
1901,1822,1787
1953,1877,1834
1869,1878,1885
1816,1831,1813
1870,1810,1773
1907,1861,1813
1840,1875,1913
1782,1835,1850
1921,1812,1714
1862,1862,1854
1787,1911,1963
1824,1857,1867
1920,1827,1802
1857,1861,1843
1799,1878,1863
1819,1840,1813
1874,1824,1771
1941,1868,1851
1829,1884,1900
1839,1851,1842
1854,1821,1785
1875,1861,1851
1872,1872,1881
1856,1859,1881
1906,1827,1804
1861,1861,1843
1775,1866,1902
1761,1822,1806
1891,1823,1782
1907,1871,1881
1883,1906,1959
1906,1824,1823
1927,1799,1731
1872,1853,1819
1813,1881,1904
1833,1858,1833
1902,1813,1771
1839,1854,1868
1819,1878,1936
1843,1823,1872
1893,1820,1801
1895,1872,1856
1856,1878,1911
1834,1821,1814
1829,1806,1745
1842,1861,1855
1755,1867,1907
1851,1824,1817
1867,1795,1776
1861,1842,1871
1748,1856,1936
1885,1821,1829
1930,1769,1742
1818,1823,1815
1792,1844,1897
1808,1809,1833
1877,1755,1763
1887,1802,1853
1846,1812,1923
1857,1739,1799
1901,1687,1744
1856,1712,1863
1808,1719,1923
1877,1674,1840
1901,1623,1769
1812,1622,1840
1840,1626,1917
1929,1575,1837
1965,1559,1749
1881,1579,1867
1763,1578,1940
1748,1515,1834
1879,1483,1776
1829,1501,1837
1863,1514,1877
1825,1457,1846
1923,1453,1792
1939,1460,1826
1890,1488,1904
1913,1438,1823
1841,1412,1779
1933,1453,1872
1823,1456,1927
1839,1424,1839
1973,1390,1776
1918,1410,1846
1743,1456,1925
1851,1418,1851
1905,1392,1783
1897,1428,1869
1828,1458,1925
1862,1411,1842
1844,1386,1783
1836,1423,1854
1831,1446,1918
1953,1430,1844
1959,1398,1727
1811,1424,1835
1758,1441,1955
1847,1437,1859
1902,1402,1776
1931,1431,1849
1840,1478,1938
1835,1445,1853
1933,1406,1758
1939,1463,1839
1849,1503,1931
1805,1466,1878
2011,1445,1809
1904,1499,1883
1817,1516,1917
1857,1469,1827
1813,1451,1769
1891,1499,1849
1903,1515,1872
1906,1495,1859
1903,1467,1808
1850,1520,1900
1822,1565,1937
1823,1511,1821
1883,1488,1723
1891,1535,1838
1822,1584,1946
1871,1523,1870
1936,1487,1785
1911,1577,1841
1821,1574,1926
1839,1535,1850
1903,1506,1735
1901,1573,1850
1822,1596,1950
1870,1557,1865
1867,1533,1790
1833,1566,1840
1842,1611,1936
1851,1577,1857
1895,1535,1782
1855,1591,1871
1810,1622,1911
1855,1595,1828
1924,1598,1771
1894,1655,1898
1818,1648,1943
1830,1584,1830
1901,1591,1791
1927,1643,1858
1840,1657,1895
1855,1649,1827
1932,1638,1755
1930,1678,1840
1791,1695,1950
1808,1658,1885
1906,1638,1777
1885,1699,1863
1833,1731,1920
1862,1692,1841
1897,1676,1775
1878,1723,1843
1840,1757,1955
1858,1712,1862
1940,1689,1757
1894,1746,1862
1798,1754,1920
1822,1735,1814
1904,1733,1778
1879,1783,1882
1813,1823,1966
1875,1756,1843
1938,1745,1758
1862,1790,1856
1809,1798,1906
1837,1761,1809
1930,1767,1783
2032,1834,1847
1838,1837,1951
1776,1791,1849
1847,1766,1783
1899,1819,1867
1863,1854,1911
1854,1827,1840
1874,1811,1798
1856,1843,1869
1822,1864,1930
1906,1839,1854
1983,1782,1731
1885,1834,1796
1744,1878,1925
1815,1857,1889
1897,1825,1807
1872,1876,1870
1815,1919,1927
1859,1869,1845
1913,1857,1775
1889,1886,1853
1867,1910,1943
1884,1877,1849
1851,1849,1744
1842,1904,1834
1820,1937,1930
1851,1889,1840
1985,1876,1776
1946,1915,1856
1809,1947,1939
1778,1905,1845
1902,1889,1744
1895,1930,1870
1819,1955,1968
1858,1919,1842
1904,1898,1761
1840,1938,1842
1819,1971,1941
1844,1927,1854
1900,1897,1761
1887,1942,1840
1839,1952,1924
1885,1923,1835
1904,1899,1791
1840,1958,1872
1803,1995,1925
1833,1948,1851
1872,1936,1779
1860,1959,1861
1831,2001,1929
1847,1953,1815
1898,1917,1743
1884,1970,1875
1839,2006,1957
1850,1958,1840
1902,1927,1750
1907,1985,1856
1815,2009,1951
1844,1968,1869
1913,1934,1753
1890,1985,1827
1818,2005,1922
1827,1959,1872
1891,1955,1811
1877,1993,1875
1824,2021,1910
1856,1954,1815
1927,1947,1780
1877,1986,1844
1809,2020,1925
1873,1985,1856
1914,1962,1776
1874,2006,1847
1808,2021,1904
1838,1981,1824
1873,1965,1779
1886,2000,1833
1858,2027,1885
1840,1984,1826
1884,1978,1794
1871,2017,1895
1799,2032,1904
1835,1971,1809
1987,1950,1738
1918,2009,1875
1806,2037,1957
1813,2002,1834
1877,1975,1754
1867,2011,1851
1835,2033,1910
1851,1973,1827
1897,1968,1785
1873,2032,1877
1808,2059,1930
1830,2002,1831
1927,1975,1742
1870,2022,1843
1825,2029,1931
1847,2030,1857
1923,1979,1789
1834,1995,1842
1798,2033,1905
1858,1978,1797
1924,1949,1744
1854,2035,1849
1796,2032,1904
1831,2014,1855
1904,1941,1767
1877,1999,1825
1808,2065,1886
1806,1927,1814
1872,1970,1789
1895,2032,1822
1808,1978,1858
1825,2000,1827
1888,1970,1744
1838,1991,1817
1807,2034,1906
1811,1975,1827
1867,1949,1683
1829,2025,1808
1792,2013,1909
1834,1950,1810
1877,1966,1719
1840,1936,1790
1803,2009,1894
1824,1951,1783
1886,1955,1719
1895,1997,1808
1813,1979,1882
1771,1958,1806
1840,1942,1732
1814,1991,1806
1735,1985,1857
1776,1923,1746
1846,1907,1703
1865,1950,1814
1794,1934,1849
1759,1914,1786
1802,1903,1686
1774,1964,1748
1739,1952,1842
1745,1910,1789
1799,1883,1719
1830,1952,1785
1771,1962,1845
1773,1917,1776
1818,1920,1743
1810,1902,1807
1792,1959,1851
1867,1947,1759
1879,1908,1738
1808,1968,1859
1776,2020,1902
1813,1939,1811
1937,1920,1781
1917,1975,1879
1795,1967,2000
1808,1965,1937
1913,1979,1909
1901,1979,1869
1818,2001,1904
1873,1980,1859
1925,1982,1807
1910,2015,1902
1836,2065,2365
1846,2011,2702
1921,2000,2080
1917,2004,1839
1840,2034,1904
1874,1995,1835
1954,1973,1760
1922,2006,1870
1879,2032,1925
1858,2000,1866
1909,1966,1776
1902,2011,1839
1869,2016,1959
1904,1971,1890
1885,1965,1790
1875,2003,1871
1886,2021,1939
1906,1977,1827
1923,1958,1782
1872,1985,1882
1822,2003,1969
1842,1961,1865
1938,1968,1776
1957,1994,1863
1873,2008,1948
1852,1951,1879
1966,1951,1787
1911,2058,1853
1790,1998,1915
1825,1951,1825
1936,1943,1776
1904,1985,1856
1875,2001,1919
1908,1937,1779
1935,1936,1779
1887,1984,1879
1834,1999,1957
1851,1929,1841
1955,1933,1772
1977,1985,1831
1870,2002,1904
1811,1942,1865
1876,1902,1786
1919,1970,1865
1860,1998,1943
1861,1931,1831
1939,1936,1785
1939,1872,1849
1849,1959,1936
1849,1981,1858
1906,1918,1781
1939,1988,1869
1877,1952,1920
1863,1933,1854
1911,1968,1787
1879,1917,1876
1867,1939,1954
1871,1925,1863
1905,1904,1807
1904,1936,1878
1865,1956,1898
1885,1924,3265
1929,1872,2994
1963,1885,2128
1845,1914,1600
1733,1839,1623
1822,1840,1771
1860,1915,1849
1840,1936,1835
1867,1874,1825
1890,1915,1825
1917,1899,1835
1866,1937,1827
1853,1886,1824
1842,1840,1833
1855,1903,1827
1843,1961,1827
1859,1871,1826
1909,1861,1829
1909,1937,1831
1904,1981,1830
1902,1894,1831
1909,1868,1827
1807,1863,1831
1789,1984,1827
1830,1859,1829
1870,1893,1834
1825,1879,1830
1794,1936,1831
1819,1913,1827
1918,1856,1827
1886,1893,1830
1829,1899,1824
1813,1846,1828
1825,1824,1827
1808,1889,1858
1840,1904,1877
1840,1840,1844
1863,1843,1803
1897,1890,1828
1812,1898,1932
1804,1861,1842
1874,1837,1717
1846,1876,1815
1819,1889,1891
1855,1860,1813
1949,1842,1763
1889,1856,1819
1776,1895,1904
1834,1857,1840
1897,1839,1770
1914,1895,1842
1802,1919,1920
1819,1856,1863
1895,1850,1778
1889,1904,1846
1858,1949,1935
1877,1863,1852
1959,1841,1744
1936,1903,1843
1887,1914,1901
1827,1863,1836
1865,1842,1771
1872,1893,1841
1855,1927,1957
1872,1889,1872
1905,1853,1780
1882,1888,1857
1862,1911,1913
1879,1890,1857
1929,1841,1783
1954,1890,1841
1853,1894,1924
1820,1866,1881
1889,1862,1829
1903,1878,1877
1879,1895,1935
1914,1841,1824
1916,1826,1777
1855,1879,1871
1818,1918,1974
1865,1872,1853
1967,1857,1799
1931,1869,1876
1856,1898,1946
1872,1856,1842
1923,1833,1769
1875,1882,1890
1819,1899,1963
1891,1840,1867
1936,1825,1809
1925,1872,1894
1855,1891,1937
1850,1835,1840
1936,1813,1744
1890,1872,1858
1867,1879,1938
1845,1835,1886
1882,1817,1808
1876,1865,1897
1825,1885,1936
1874,1819,1844
1962,1813,1805
1919,1837,1893
1856,1863,1936
1840,1836,1872
1889,1815,1762
1898,1859,1867
1857,1872,1984
1840,1813,1855
1903,1808,1814
1886,1857,1872
1831,1855,1927
1883,1822,1847
1910,1797,1805
1907,1862,1903
1822,1872,1970
1847,1814,1856
1943,1787,1775
1951,1830,1834
1897,1863,1956
1840,1835,1878
1823,1783,1777
1846,1837,1881
1839,1873,1957
1878,1827,1857
1948,1793,1777
1919,1805,1824
1841,1846,1927
1858,1836,1890
1877,1805,1815
1859,1824,1879
1847,1865,1959
1883,1837,1889
1936,1797,1791
1886,1819,1852
1878,1852,1946
1857,1797,1843
1902,1791,1782
1873,1840,1891
1839,1870,1986
1835,1833,1872
1904,1791,1794
1934,1838,1872
1894,1873,1959
1882,1818,1855
1922,1771,1760
1927,1808,1826
1884,1851,1937
1805,1816,1894
1846,1792,1798
1939,1829,1840
1904,1840,1944
1802,1805,1862
1845,1786,1778
1862,1828,1872
1872,1865,1950
1904,1822,1856
1915,1781,1777
1883,1822,1859
1813,1855,1969
1821,1817,1867
1892,1780,1754
1913,1823,1847
1899,1840,1962
1884,1806,1840
1890,1781,1776
1873,1837,1891
1794,1843,1963
1824,1808,1850
1906,1782,1774
1947,1840,1876
1843,1854,1936
1826,1805,1841
1904,1776,1783
1904,1826,1856
1821,1866,1930
1814,1791,1820
1906,1760,1781
1954,1825,1883
1824,1839,1966
1807,1776,1823
1926,1778,1767
1982,1855,1869
1873,1859,1947
1787,1803,1840
1853,1770,1759
1893,1840,1899
1837,1857,1968
1865,1808,1838
1915,1799,1754
1897,1831,1878
1921,1854,1962
1858,1808,1876
1843,1776,1808
1853,1819,1801
1851,1845,1953
1883,1809,1872
1922,1785,1793
1915,1840,1887
1889,1872,1966
1827,1811,1856
1856,1792,1764
1876,1837,1874
1857,1858,1909
1841,1811,1867
1926,1776,1744
1930,1839,1841
1822,1866,1999
1817,1789,1849
1897,1791,1775
1926,1851,1859
1842,1875,1955
1846,1840,1873
1865,1787,1776
1872,1840,1859
1824,1861,1899
1882,1839,1903
1935,1807,1828
1873,1828,1904
1830,1842,1919
1837,1811,1818
1901,1801,1757
1929,1859,1892
1834,1870,1988
1814,1822,1877
1893,1789,1776
1936,1838,1858
1841,1872,1914
1823,1826,1802
1906,1812,1803
1881,1839,1893
1813,1852,1920
1867,1815,1819
1919,1805,1793
1930,1845,1853
1858,1856,1942
1837,1812,1849
1910,1787,1773
1892,1840,1840
1802,1859,1929
1861,1832,1872
1934,1811,1782
1906,1841,1877
1822,1867,1954
1818,1829,1857
1903,1817,1791
1881,1849,1795
1881,1873,1937
1888,1818,1840
1905,1799,1776
1877,1843,1906
1794,1869,2007
1825,1845,1863
1917,1828,1787
1879,1853,1873
1826,1872,1897
1859,1835,1805
1947,1820,1783
1930,1851,1891
1817,1857,1920
1824,1835,1840
1911,1815,1762
1891,1858,1872
1808,1877,1975
1811,1830,1815
1900,1817,1737
1875,1855,1838
1856,1878,1963
1826,1840,1845
1873,1825,1759
1871,1865,1856
1837,1884,1920
1854,1840,1847
1934,1824,1776
1938,1846,1855
1935,1890,1899
1841,1823,1853
1867,1814,1754
1861,1858,1862
1801,1874,1977
1825,1822,1825
1882,1808,1770
1897,1863,1843
1829,1883,1927
1846,1843,1857
1921,1833,1767
1888,1837,1808
1850,1888,1921
