1878,1869,1874
1870,1870,1826
1872,1920,1808
1881,1893,1851
1875,1906,1869
1872,1855,1830
1877,1887,1808
1877,1895,1842
1871,1917,1859
1879,1840,1819
1875,1885,1800
1879,1917,1841
1877,1903,1862
1879,1878,1830
1872,1826,1797
1874,1875,1823
1875,1905,1866
1881,1864,1840
1879,1861,1814
1877,1878,1835
1872,1871,1859
1856,1855,1824
1856,1873,1807
1867,1897,1845
1868,1860,1857
1844,1749,1808
1838,1840,1776
1850,1886,1823
1860,1899,1855
1855,1846,1821
1850,1734,1793
1846,1834,1818
1840,1869,1815
1822,1851,1783
1856,1936,1808
1872,1891,1843
1856,1829,1858
1835,1816,1803
1823,1826,1791
1840,1828,1819
1840,1814,1834
1839,1809,1808
1834,1815,1775
1826,1819,1809
1835,1816,1843
1821,1805,1791
1831,1818,1776
1836,1820,1814
1817,1776,1803
1808,1746,1764
1832,1859,1796
1839,1882,1840
1825,1794,1839
1813,1788,1789
1813,1877,1761
1840,1818,1827
1833,1806,1829
1815,1800,1783
1804,1792,1764
1805,1765,1794
1813,1740,1840
1794,1834,1796
1793,1776,1746
1829,1809,1809
1831,1810,1840
1814,1791,1801
1801,1803,1780
1803,1811,1815
1800,1743,1811
1792,1833,1751
1807,1813,1766
1821,1791,1823
1809,1847,1825
1773,1777,1755
1786,1749,1757
1834,1829,1840
1834,1823,1856
1808,1776,1798
1798,1805,1767
1807,1821,1799
1808,1808,1824
1812,1810,1776
1829,1842,1715
1826,1831,1751
1792,1810,1841
1787,1808,1806
1817,1809,1721
1808,1831,1744
1746,1802,1788
1744,1767,1756
1776,1761,1687
1776,1742,1705
1707,1727,1735
1652,1751,1665
1667,1655,1582
1681,1705,1621
1654,1661,1702
1641,1680,1649
1680,1699,1587
1717,1711,1659
1717,1726,1763
1737,1797,1750
1782,1775,1693
1805,1811,1731
1773,1810,1812
1777,1794,1786
1837,1799,1737
1849,1809,1775
1813,1843,1853
1814,1942,1818
1839,1823,1718
1856,1744,1768
1835,1751,1856
1826,1776,1818
1862,1817,1757
1872,1826,1786
1823,1807,1854
1817,1901,1822
1870,1872,1755
1861,1741,1775
1799,1689,1826
1782,1731,1786
1821,1769,1712
1830,1779,1748
1795,1803,1835
1775,1749,1782
1808,1741,1690
1808,1749,1731
1775,1735,1804
1770,1753,1770
1808,1879,1702
1793,1729,1704
1737,1626,1761
1739,1737,1733
1777,1776,1655
1769,1687,1680
1718,1731,1765
1707,1787,1711
1726,1662,1609
1734,1587,1648
1687,1579,1728
1689,1648,1691
1739,1744,1635
1732,1694,1655
1690,1616,1743
1675,1646,1706
1714,1746,1606
1716,1637,1648
1653,1535,1726
1633,1639,1653
1691,1757,1610
1717,1645,1670
1649,1574,1729
1616,1599,1669
1642,1584,1594
1634,1572,1639
1535,1535,1710
1554,1570,1639
1660,1581,1535
1681,1522,1569
1585,1424,4058
1331,1261,1621
1345,1269,848
1485,1323,1463
1517,1317,1897
1483,1315,1936
1383,1327,1878
1403,1293,1805
1429,1219,1808
1415,1185,1823
1420,1219,1830
1409,1157,1831
1349,1079,1828
1314,1086,1828
1335,1117,1827
1347,1104,1831
1296,1038,1830
1272,1042,1826
1307,1078,1833
1327,1078,1827
1266,1058,1826
1235,1050,1824
1276,1073,1825
1289,1058,1831
1238,1018,1827
1219,990,1824
1248,1040,1830
1279,1084,1831
1229,1023,1830
1198,982,1827
1221,1031,1827
1242,1046,1832
1190,992,1829
1163,976,1813
1187,1049,1783
1200,1051,1825
1159,967,1874
1136,999,1997
1164,1053,1840
1202,1033,1722
1155,982,1737
1130,995,1674
1168,1067,1584
1200,1119,1630
1175,1011,1701
1171,1008,1712
1205,1087,1573
1230,1104,1535
1194,1091,2241
1177,1101,2135
1233,1179,1726
1279,1158,2593
1252,1138,2480
1231,1150,1939
1263,1200,1713
1296,1227,1753
1286,1218,1819
1286,1237,1840
1328,1261,1837
1347,1264,1830
1294,1253,1827
1264,1219,1825
1311,1261,1828
1342,1277,1922
1290,1234,1834
1185,1168,2793
1119,1135,1418
1125,1167,2349
1041,1021,1275
1055,1008,1392
1154,1105,1771
1217,1165,1900
1200,1163,1871
1164,1141,1827
1186,1168,1837
1199,1149,1846
1216,1158,2224
1171,1141,2033
1232,1266,1472
1345,1333,1638
1250,1219,3047
1104,1201,1187
1175,1271,1232
1267,1227,1715
1269,1168,1907
1264,1219,1794
1300,1294,1680
1331,1341,1812
1290,1302,1775
1284,1309,1881
1333,1347,1740
1353,1371,1801
1335,1385,1769
1378,1413,1815
1433,1456,1821
1467,1491,1856
1439,1494,1830
1424,1509,1828
1473,1535,1810
1520,1585,1808
1509,1584,1845
1499,1600,1801
1554,1647,1846
1585,1690,1838
1555,1716,1819
1533,1616,1819
1583,1639,1799
1600,1702,1808
1566,1689,1842
1535,1675,1811
1589,1712,1833
1606,1734,1835
1561,1712,1833
1535,1719,1817
1600,1766,1833
1648,1782,1831
1611,1776,1826
1595,1766,1830
1633,1786,1855
1663,1839,1795
1622,1808,1812
1617,1757,1792
1678,1788,1763
1710,1835,1790
1670,1831,1862
1653,1840,1810
1689,1859,1685
1702,1878,1726
1680,1860,1807
1666,1843,1751
1667,1869,1606
1680,1890,1645
1664,1839,1734
1627,1792,1655
1643,1806,1520
1648,1817,2365
1617,1792,2332
1584,1763,2192
1616,1787,1788
1648,1855,1610
1616,1808,1744
1609,1750,1841
1654,1791,1849
1707,1830,1836
1695,1831,1813
1680,1861,1788
1711,1901,1856
1733,1918,1879
1703,1861,2283
1626,1805,2310
1633,1802,1387
1682,1840,1445
1696,1835,1795
1699,1828,1889
1737,1875,1857
1773,1934,1862
1751,1886,1839
1733,1866,1818
1766,1906,1830
1808,1936,1825
1797,1918,1833
1776,1910,1846
1802,1930,1800
1837,1959,1817
1815,1953,1819
1807,1927,1822
1841,1959,1826
1882,1987,1824
1871,1968,1802
1837,1920,1744
1872,1955,1712
1930,2015,1744
1930,2018,1842
1910,2005,1811
1936,2046,1701
1977,2077,1741
1968,2055,1847
1961,2069,1808
1988,2090,1703
2021,2096,1751
2010,2096,1857
1991,2070,1766
2014,2089,1713
2058,2114,1726
2059,2135,1865
2025,2108,1814
2053,2155,1706
2069,2138,1790
2058,2107,1842
2039,2093,1808
2068,2112,1660
2105,2138,1730
2090,2129,1822
2058,2113,1760
2068,2127,1659
2118,2150,1719
2096,2150,1824
2074,2143,1786
2079,2115,1667
2107,2127,1666
2099,2139,1814
2080,2128,1777
2098,2135,1727
2127,2127,1712
2098,2127,1782
2077,2096,1733
2095,2096,1652
2125,2113,1865
2101,2116,1904
2066,2097,1822
2095,2110,1918
2109,2115,1774
2096,2095,1701
2061,2071,1758
2078,2079,1847
2114,2128,1869
2114,2108,1797
2077,2087,1803
2082,2076,1801
2112,2064,1802
2109,2067,1845
2084,2069,1806
2082,2077,1839
2110,2090,1822
2098,2076,1833
2093,2067,1835
2096,2074,1829
2123,2091,1877
2099,2059,1864
2074,2035,1826
2085,2065,1827
2113,2077,1830
2096,2053,1829
2075,2032,1803
2096,2059,1826
2114,2096,1838
2112,2039,1850
2089,2025,1823
2080,2016,1855
2106,2027,1857
2099,2017,1826
2064,2014,1753
2077,2032,1674
2122,2051,1737
2112,2032,1834
2082,2011,1760
2086,2016,1663
2112,2029,1722
2112,2035,1793
2072,1987,1783
2082,1998,1618
2105,2003,1718
2102,2000,1789
2082,1995,1782
2086,2001,1651
2112,2023,1687
2110,2015,1821
2067,1979,1767
2071,1988,1660
2099,2000,1692
2096,1998,1808
2062,1968,1746
2071,1979,1639
2106,1989,1690
2096,1977,1795
2070,1966,1756
2083,1967,1638
2111,1984,1681
2106,1983,1796
2074,1956,1752
2075,1959,1640
2108,1968,1691
2095,1966,1788
2079,1958,1761
2091,1939,1648
2112,1936,1685
2094,1920,1808
2068,1920,1787
2074,1933,1643
2096,1950,1658
2096,1938,1792
2067,1907,1776
2077,1907,1667
2098,1953,1671
2086,1949,1766
2061,1918,1733
2071,1919,1633
2105,1923,1692
2127,1917,1801
2019,1902,1779
2046,1919,1668
2007,1920,1710
2083,1907,1797
2065,1903,1750
2062,1921,1664
2095,1933,1717
2071,1922,1892
2069,1910,1990
2030,1872,1757
2097,1875,1710
2033,1883,1846
2059,1888,1727
2119,1904,1627
2085,1905,1664
2092,1899,1718
2081,1863,1657
2096,1860,1491
2028,1893,1577
2067,1899,1712
2039,1866,1587
2047,1895,1467
2087,1901,1529
2078,1889,1701
2064,1877,1614
2047,1877,1474
2110,1879,1519
2047,1873,1657
2073,1879,1611
2064,1883,1489
2059,1893,1478
2069,1906,1657
2018,1840,1616
2021,1840,1494
2062,1875,1535
2028,1936,1680
2030,1847,1569
2033,1831,1497
2063,1899,1572
2033,1817,1648
2018,1827,1615
2027,1869,1521
2064,1867,1584
2000,1840,1712
1983,1847,1655
2021,1843,1503
2061,1872,1519
2033,1870,1653
1997,1839,1669
2013,1819,1535
2090,1886,1612
1972,1860,1683
1933,1815,1667
2033,1839,1535
2031,1869,1553
2059,1883,1712
2035,1865,1692
1993,1822,1535
2065,1808,1622
2003,1831,1716
2011,1813,1654
2000,1882,1573
2038,1984,1663
2047,1835,1749
1969,1742,1651
2032,1783,1535
2012,1856,1630
2033,1872,1717
2030,1838,1706
2007,1821,1611
1997,1855,1632
2017,1871,1759
2028,1841,1738
1989,1818,1594
2011,1849,1643
2002,1840,1767
1975,1821,1741
1983,1850,1635
2023,1841,1714
2005,1822,1774
1968,1815,1701
1981,1823,1615
2017,1839,1664
2003,1872,1785
1967,1843,1739
1978,1809,1639
2017,1842,1712
1984,1840,1812
2000,1835,1769
1968,1823,1629
1954,1838,1707
1995,1860,1839
1956,1848,1750
1967,1837,1632
2032,1840,1699
1997,1844,1851
1955,1833,1778
1967,1846,1664
2019,1882,1721
2005,1869,1827
1958,1831,1792
1969,1829,1688
1998,1855,1737
1980,1854,1839
1952,1840,1807
1970,1843,1719
2027,1870,1776
1968,1855,1839
1947,1829,1792
1951,1840,1695
1907,1869,1757
2064,1860,1867
1981,1835,1808
2045,1833,1694
1969,1860,1744
1873,1862,1881
1907,1844,1841
1936,1827,1719
2034,1854,1758
1984,1860,1875
1926,1822,1834
1969,1830,1727
1987,1858,1782
1959,1878,1898
1950,1830,1856
1965,1797,1773
2002,1824,1755
1979,1826,1875
1945,1823,1850
1973,1819,1731
1927,1833,1771
1939,1827,1896
1998,1812,1866
1974,1840,1771
2112,1920,1869
2089,1896,1959
1879,1767,1830
1885,1744,1695
1941,1803,1767
1931,1815,1886
1918,1781,1847
1934,1792,1746
1971,1829,1797
1994,1809,1920
1936,1783,1891
1870,1808,1767
1964,1824,1792
1943,1808,1895
1923,1776,1872
1936,1771,1776
1938,1808,1819
1979,1806,1916
1959,1783,1878
1989,1792,1780
1968,1823,1823
1954,1813,1927
1929,1777,1904
1891,1806,1808
1968,1819,1826
1974,1793,1918
1895,1771,1889
1910,1798,1808
1959,1824,1829
1937,1789,1930
1906,1778,1902
1915,1795,1783
1935,1804,1802
1922,1782,1921
1899,1778,1898
1909,1784,1781
1941,1803,1813
1939,1816,1942
1930,1791,1920
1977,1819,1834
2085,1887,1872
1968,1792,1885
1797,1722,1831
1808,1750,1781
1886,1805,1840
1904,1811,1944
1883,1794,1913
1889,1808,1792
1914,1825,1826
1904,1813,1957
1877,1802,1926
1891,1808,1810
1921,1835,1847
1913,1841,1947
1877,1776,1902
1883,1776,1801
1918,1818,1840
1910,1827,1955
1885,1808,1909
1878,1799,1792
1904,1823,1816
1909,1808,1920
1871,1779,1916
1857,1792,1809
1899,1827,1813
1886,1833,1936
1845,1808,1898
1865,1810,1790
1907,1824,1871
1904,1825,2003
1869,1813,1877
1866,1823,1773
1910,1840,1890
1895,1839,2001
1872,1839,1898
1901,1855,1783
1904,1845,1815
1866,1839,1907
1856,1825,1879
1873,1826,1761
1901,1819,1785
1875,1817,1875
1846,1811,1851
1867,1818,1714
1891,1845,1748
1890,1840,1875
1856,1822,1844
1851,1830,1707
1883,1867,1733
1907,1861,1874
1925,1858,1887
1901,1857,1739
1855,1839,1712
1841,1825,1808
1850,1819,1809
1919,1858,1736
2085,1990,1950
1943,1888,1908
1781,1763,1705
1918,1959,1712
1904,1988,1735
1798,1706,1757
1799,1680,1745
1982,1858,1798
2031,2112,1840
1831,1844,1744
1778,1694,1791
1837,1751,1751
1840,1785,1714
1841,1813,1823
1844,1807,1825
1851,1821,1711
1904,1843,1734
1920,1847,1872
1888,1867,1872
1911,1878,1713
1951,1924,1754
1878,1862,1914
1775,1787,1852
1795,1803,1714
1882,1856,1771
1881,1877,1902
1792,1802,1811
1835,1819,1674
2036,1961,1813
2276,2147,2160
2030,1937,1977
1629,1607,1563
1674,1774,1616
1873,1863,1862
1781,1794,1765
1687,1769,1610
1778,1808,1693
1863,1855,1841
1920,1907,1840
1812,1847,1727
1781,1834,1793
1819,1842,1902
1872,1874,1888
1862,1886,1772
1843,1874,1782
1813,1861,1872
1819,1844,1840
1900,1885,1734
1971,1950,1814
1977,1925,1831
1701,1789,1641
1621,1808,1592
1797,1871,1671
2038,1931,1801
2047,1933,1826
1895,1899,1681
1698,1824,1610
1646,1824,1708
1679,1841,1727
1721,1855,1616
1771,1891,1621
1776,1872,1753
1797,1872,1767
1813,1906,1618
1808,1889,1603
1776,1855,1648
1765,1852,1663
1810,1870,1584
1825,1883,1588
1851,1863,1643
1856,1863,1633
1841,1873,1522
1773,1872,1487
1777,1872,1616
1818,1847,1600
1826,1846,1470
1840,1853,1505
1771,1838,1631
1734,1838,1599
1757,1860,1487
1814,1897,1565
1858,1893,1669
1855,1883,1614
1904,1885,1502
1840,1858,1515
1767,1862,1675
1750,1840,1626
1798,1904,1535
1856,1895,1696
1832,1885,1648
1754,1835,1494
1787,1781,1431
1829,1827,1520
1854,1854,1664
1831,1882,1642
1808,1807,1535
1830,1840,1589
1833,1872,1664
1855,1838,1648
1884,1906,1535
1947,1899,1535
1798,1840,1702
1723,1858,1715
1769,1815,1565
1883,1877,1641
1860,1879,1744
1774,1872,1679
1780,1872,1564
1842,1878,1616
1843,1854,1735
1830,1859,1733
1839,1894,1637
1875,1875,1650
1863,1872,1744
1834,1873,1744
1847,1873,1647
1906,1923,1658
1869,1875,1791
1871,1893,1787
1874,1852,1603
1840,1874,1614
1840,1872,1765
1835,1852,1790
1847,1861,1714
1884,1895,1749
1821,1879,1709
1795,1861,1703
1819,1875,1631
1868,1895,1703
1879,1899,1829
1852,1907,1826
1847,1913,1703
1841,1872,1691
1838,1854,1806
1841,1885,1823
1872,1885,1731
1885,1865,1756
1855,1874,1838
1831,1891,1813
1856,1919,1709
1897,1840,1733
1910,1866,1827
1801,1849,1840
1808,1865,1753
1874,1919,1799
1879,1948,1892
1872,1939,1871
1853,1883,1757
1869,1887,1776
1883,1887,1866
1846,1858,1822
1865,1891,1751
1911,1903,1828
1879,1922,1873
1851,1895,1854
1839,1897,1755
1869,1909,1808
1867,1895,1923
1843,1856,1879
1865,1872,1776
1893,1904,1855
1876,1910,1948
1856,1906,1858
1855,1877,1747
1893,1872,1807
1899,1882,1950
1861,1880,1910
1877,1887,1775
1890,1890,1793
1887,1901,1955
1852,1873,1906
1856,1858,1733
1859,1887,1805
1847,1892,1949
1851,1874,1939
1865,1887,1840
1889,1873,1851
1891,1913,1919
1861,1891,1894
1875,1889,1807
1893,1894,1828
1893,1885,1979
1887,1893,1968
1858,1931,1828
1871,1894,1834
1879,1891,1968
1890,1882,1907
1873,1866,1814
1875,1904,1875
1856,1913,2002
1857,1904,1974
1855,1888,1792
1867,1884,1808
1871,1861,1968
1854,1827,1968
1863,1847,1829
1904,1915,1847
1890,1929,1989
1841,1869,1949
1851,1853,1836
1890,1904,1871
1893,1879,2007
1855,1841,1969
1868,1890,1842
1904,1894,1874
1904,1904,1987
1866,1872,1965
1853,1878,1911
1869,1888,1838
1866,1924,1924
1851,1938,1936
1870,1895,1878
1905,1920,1904
1903,1935,1984
1868,1884,1943
1889,1893,1885
1941,1935,1934
1919,1919,2028
1843,1825,1931
1840,1846,1791
1936,1894,1925
1921,1906,2031
1808,1875,1900
1830,1866,1807
1879,1922,1874
1903,1904,1995
1872,1906,1966
1868,1897,1854
1959,1901,1893
1941,1947,2071
1808,1879,1948
1794,1872,1814
1904,1922,1899
1915,1894,2023
1841,1856,1981
1872,1930,1867
1975,1974,1913
1897,1860,1987
1808,1871,1915
1849,1858,1839
1967,1920,1913
2005,2001,2053
1826,1889,1936
1808,1916,1803
1885,1942,1875
1854,1917,1939
1840,1870,1937
1840,1873,1882
1903,1866,1917
1889,1900,2000
1855,1885,1938
1925,1873,1823
1879,1872,1841
1817,1878,2011
1821,1898,2006
1855,1904,1838
1931,1904,1865
1911,1870,2002
1881,1849,2005
1845,1862,1840
1856,1878,1801
1966,1908,2060
1913,1871,1947
1789,1835,1740
1823,1870,1829
1836,1875,1966
1847,1840,1987
1872,1842,1875
1921,1916,1897
1937,1905,2063
1859,1845,1936
1804,1853,1808
1866,1867,1875
1872,1898,1968
1834,1885,1910
1859,1903,1834
1910,1895,1879
1867,1827,1936
1822,1823,1920
1855,1835,1810
1904,1872,1827
1872,1880,2011
1827,1854,1943
1872,1872,1860
1858,1874,1818
1843,1866,1920
1793,1843,1875
1813,1872,1829
1930,1919,1904
1919,1879,1983
1821,1855,1934
1786,1840,1808
1845,1855,1818
1872,1847,1910
1856,1839,1973
1856,1860,1877
1886,1873,1818
1895,1874,1926
1871,1856,1923
1846,1840,1813
1923,1896,1919
1847,1893,1980
1782,1851,1935
1822,1846,1802
1881,1886,1827
1895,1879,1936
1826,1825,1890
1830,1854,1840
1872,1875,1842
1857,1872,1953
1867,1863,1954
1863,1850,1843
1853,1878,1855
1835,1872,1929
1834,1874,1951
1827,1855,1859
1879,1886,1902
1872,1904,1889
1821,1821,1845
1814,1811,1789
1904,1877,1855
1935,1919,2005
1850,1878,1927
1790,1846,1769
1866,1845,1814
1879,1858,1920
1840,1847,1935
1849,1861,1861
1872,1876,1821
1855,1874,1919
1862,1871,1913
1904,1863,1865
1894,1907,1885
1863,1910,1984
1791,1814,1862
1808,1828,1743
1885,1872,1822
1909,1888,2001
1839,1878,2013
1830,1883,1787
1879,1885,1791
1883,1876,1911
1838,1866,1878
1808,1842,1763
1844,1858,1774
1862,1883,1938
1838,1873,1968
1853,1874,1813
1873,1868,1807
1862,1858,1934
1851,1854,1931
1841,1872,1843
1871,1870,1846
1861,1847,1857
1834,1859,1872
1837,1862,1756
1861,1878,1776
1862,1878,1943
1847,1869,1965
1867,1853,1818
1874,1871,1826
1863,1883,1936
1817,1856,1865
1824,1825,1756
1872,1854,1840
1882,1861,1979
1847,1854,1889
1835,1857,1778
1856,1855,1859
1846,1857,1910
1829,1840,1850
1842,1836,1781
1878,1867,1808
1872,1883,1935
1865,1869,1923
1881,1858,1825
1904,1870,1807
1862,1887,1871
1826,1857,1831
1858,1856,1807
1909,1898,1845
1946,1889,1981
1931,1837,1947
1813,1841,1725
1806,1861,1753
1822,1871,1892
1827,1849,1890
1878,1856,1808
1889,1865,1808
1865,1899,1910
1825,1860,1857
1823,1856,1836
1868,1867,1783
1853,1872,1872
1844,1853,1891
1870,1869,1795
1911,1894,1818
1887,1872,1915
1848,1851,1893
1847,1872,1782
1895,1897,1808
1906,1874,1902
1847,1849,1903
1827,1849,1808
1843,1865,1773
1862,1893,1872
1863,1859,1920
1808,1841,1728
1835,1877,1813
1872,1901,1942
1863,1861,1927
1840,1839,1793
1878,1874,1771
1873,1857,1890
1883,1850,1938
1890,1852,1776
1847,1878,1798
1834,1889,1963
1827,1850,1915
1856,1854,1723
1895,1878,1714
1857,1869,1887
1829,1856,1876
1843,1859,1787
1855,1850,1759
1835,1865,1936
1839,1841,1967
1903,1856,1772
1936,1890,1698
1823,1872,1873
1781,1840,1904
1793,1837,1758
1849,1875,1796
1872,1874,1904
1869,1870,1935
1879,1875,1808
1870,1865,1781
1838,1861,1870
1826,1847,1898
1822,1858,1776
1856,1867,1754
1860,1856,1882
1834,1850,1867
1841,1858,1781
1867,1881,1813
1855,1873,1884
1818,1862,1877
1849,1875,1844
1840,1873,1742
1823,1861,1823
1814,1838,1899
1835,1849,1803
1882,1894,1763
1873,1890,1894
1822,1851,1917
1823,1809,1721
1872,1861,1777
1891,1873,1856
1851,1858,1859
1826,1869,1731
1852,1878,1757
1829,1874,1879
1826,1835,1908
1827,1841,1737
1879,1862,1927
1868,1877,1931
1808,1819,1815
1798,1826,1719
1890,1875,1757
1870,1873,1873
1791,1856,1876
1803,1855,1808
1858,1885,1785
1856,1886,1840
1809,1839,1861
1817,1854,1792
1879,1887,1733
1859,1867,1847
1815,1851,1891
1851,1867,1760
1889,1873,1781
1806,1874,1914
1801,1847,1936
1824,1830,1723
1856,1881,1745
1840,1867,1840
1845,1830,1923
1840,1846,1831
1862,1893,1771
1845,1879,1817
1819,1834,1855
1840,1845,1783
1895,1886,1738
1899,1887,1856
1852,1843,1903
1792,1827,1643
1846,1875,1806
1866,1891,1904
1823,1837,1839
1840,1840,1748
1840,1872,1759
1851,1886,1862
1837,1851,1905
1830,1852,1791
1889,1907,1791
1886,1874,1863
1833,1838,1946
1818,1853,1791
1872,1863,1709
1872,1849,1827
1829,1840,1916
1810,1842,1799
1855,1899,1758
1851,1883,1821
1831,1820,1887
1823,1822,1760
1859,1859,1765
1838,1867,1837
1831,1862,1889
1855,1871,1825
1871,1867,1745
1872,1858,1882
1793,1819,1897
1822,1827,1787
1859,1881,1814
1873,1858,1847
1826,1834,1875
1825,1841,1770
1868,1887,1763
1903,1882,1927
1825,1827,1918
1793,1813,1712
1840,1837,1712
1861,1840,1841
1867,1850,1920
1856,1856,1791
1863,1856,1840
1869,1858,1859
1818,1846,1869
1845,1843,1825
1893,1857,1819
1883,1867,1877
1872,1855,1914
1808,1823,1798
1844,1843,1766
1859,1871,1879
1838,1863,1873
1825,1819,1776
1854,1826,1751
1860,1844,1863
1841,1855,1872
1855,1873,1755
1862,1868,1840
1872,1857,1909
1831,1854,1828
1856,1854,1731
1882,1829,1778
1883,1843,1966
1805,1847,1824
1797,1855,1680
1842,1870,1723
1867,1872,1883
1847,1861,1991
1854,1850,1810
1871,1872,1849
1845,1858,1810
1822,1812,1847
1872,1854,1747
1875,1839,1776
1853,1838,1888
1805,1840,1890
1853,1872,1835
1877,1847,1778
1853,1813,1855
1856,1808,1904
1830,1829,1773
1813,1843,1781
1838,1851,1902
1856,1840,1995
1906,1852,1779
1872,1839,1680
1818,1847,1840
1813,1837,1917
1827,1847,1793
1903,1867,1794
1891,1853,1904
1856,1837,1937
1805,1825,1790
1808,1840,1689
1840,1849,1834
1837,1828,1879
1837,1840,1838
1932,1886,1808
1887,1857,1858
1802,1819,1881
1712,1819,1739
1827,1849,1761
1819,1853,1865
1878,1854,1898
1839,1837,1776
1879,1826,1798
1859,1822,1893
1869,1842,1878
1777,1827,1723
1867,1827,1735
1849,1846,1899
1790,1855,1923
1799,1857,1787
1812,1871,1781
1878,1840,1881
1939,1847,1895
1872,1865,1819
1808,1827,1683
1822,1819,1822
1809,1824,1886
1827,1830,1782
1910,1874,1805
1904,1877,1951
1811,1860,1893
1747,1819,1670
1808,1837,1680
1855,1855,1901
1825,1841,1902
1813,1840,1737
1904,1841,1762
1842,1855,1909
1829,1858,1911
1807,1828,1757
1839,1856,1781
1872,1881,1943
1835,1806,1923
1774,1798,1769
1815,1839,1759
1846,1859,1881
1815,1853,1821
1829,1842,1712
1872,1870,1743
1843,1873,1904
1857,1846,1891
1793,1840,1770
1893,1863,1808
1867,1875,1850
1808,1873,1885
1831,1870,1796
1841,1879,1781
1855,1861,1855
1826,1836,1859
1837,1841,1774
1885,1860,1761
1879,1860,1918
1881,1854,1923
1802,1847,1744
1821,1863,1744
1854,1888,1909
1837,1867,1890
1799,1848,1808
1867,1885,1793
1840,1859,1869
1769,1843,1882
1830,1870,1793
1893,1882,1757
1939,1876,1864
1808,1881,1947
1809,1871,1774
1876,1895,1763
1850,1880,1861
1800,1856,1914
1874,1872,1811
1836,1919,1783
1842,1909,1885
1823,1812,1873
1801,1815,1761
1881,1872,1778
1889,1863,1872
1830,1858,1886
1841,1874,1775
1904,1886,1826
1855,1878,1835
1779,1843,1866
1808,1871,1751
1863,1890,1797
1899,1889,1888
1850,1871,1883
1859,1847,1759
1819,1883,1777
1881,1901,1921
1839,1862,1956
1840,1887,1745
1858,1922,1737
1879,1894,1879
1838,1845,1893
1840,1840,1760
1777,1883,1753
1862,1885,1883
1895,1883,1971
1850,1889,1841
1857,1885,1729
1885,1883,1843
1842,1866,1878
1850,1887,1809
1872,1902,1771
1863,1873,1870
1840,1831,1929
1862,1840,1797
1943,1894,1722
1908,1899,1847
1872,1872,1934
1815,1875,1786
1869,1927,1818
1871,1902,1902
1807,1840,1875
1904,1841,1783
1905,1873,1763
1847,1879,1903
1823,1874,1903
1837,1875,1735
1890,1895,1767
1851,1881,1914
1846,1876,1885
1861,1882,1791
1844,1872,1756
1781,1859,1860
1840,1840,1900
1838,1861,1798
1904,1879,1739
1902,1863,1841
1850,1856,1895
1809,1860,1806
1904,1872,1772
1885,1898,1879
1874,1893,1890
1867,1856,1758
1859,1868,1766
1879,1869,1965
1825,1859,1933
1846,1858,1743
1867,1869,1749
1882,1886,1862
1867,1883,1899
1843,1849,1766
1883,1872,1739
1885,1872,1885
1927,1861,1904
1847,1863,1731
1840,1870,1791
1838,1860,1940
1853,1845,1909
1824,1851,1751
1914,1879,1778
1856,1904,1898
1836,1845,1927
1843,1854,1790
1896,1902,1775
1921,1909,1904
1842,1820,1874
1860,1817,1741
1834,1856,1776
1869,1869,1869
1840,1855,1917
1853,1857,1787
1919,1895,1773
1914,1904,1895
1865,1856,1920
1870,1845,1839
1886,1872,1769
1860,1858,1848
1856,1851,1858
1857,1874,1786
1936,1935,1831
1871,1863,1920
1827,1835,1907
1856,1846,1751
1887,1903,1713
1867,1910,1868
1845,1872,1873
1858,1833,1776
1891,1862,1807
1902,1895,1922
1868,1901,1946
1875,1856,1794
1921,1865,1776
1889,1873,1851
1840,1861,1872
1840,1851,1774
1873,1885,1781
1931,1942,1861
1851,1856,1877
1817,1823,1843
1856,1853,1788
1872,1868,1846
1863,1869,1886
1865,1872,1792
1905,1887,1779
1904,1890,1930
1855,1863,1950
1845,1860,1699
1867,1857,1695
1881,1908,1877
1849,1861,1906
1890,1851,1798
1932,1886,1805
1877,1887,1929
1831,1865,1909
1861,1863,1765
1900,1887,1750
1890,1917,1871
1847,1870,1895
1853,1843,1806
1910,1893,1792
1888,1871,1872
1858,1872,1904
1852,1850,1773
1889,1872,1761
1906,1889,1950
1857,1867,1907
1870,1852,1782
1892,1879,1751
1886,1887,1844
1872,1865,1904
1891,1849,1758
1904,1870,1735
1885,1882,1882
1855,1856,1917
1814,1843,1807
1861,1903,1790
1891,1899,1895
1895,1858,1951
1888,1845,1819
1888,1876,1715
1874,1879,1801
1853,1860,1872
1863,1874,1802
1904,1897,1787
1922,1897,1872
1877,1877,1928
1851,1862,1751
1874,1857,1798
1858,1866,1901
1856,1856,1893
1872,1852,1790
1907,1863,1771
1942,1893,1895
1875,1879,1902
1834,1842,1749
1898,1873,1741
1897,1878,1878
1850,1866,1917
1855,1876,1844
1904,1872,1776
1920,1872,1859
1878,1862,1882
1879,1886,1831
1894,1903,1802
1891,1861,1837
1854,1835,1873
1858,1847,1840
1889,1890,1810
1872,1885,1855
1856,1873,1887
1907,1873,1762
1911,1899,1776
1865,1867,1909
1842,1852,1919
1840,1841,1793
1886,1872,1787
1893,1872,1891
1866,1850,1890
1883,1858,1794
1913,1890,1747
1911,1872,1881
1872,1856,1946
1840,1850,1769
1895,1887,1774
1871,1870,1856
1842,1862,1949
1854,1869,1793
1888,1872,1749
1887,1875,1877
1850,1869,1904
1877,1856,1834
1906,1868,1810
1887,1867,1929
1873,1845,1870
1845,1834,1794
1843,1856,1806
1858,1877,1872
1840,1866,1898
1855,1849,1790
1919,1893,1797
1911,1878,1840
1860,1878,1895
1847,1869,1805
1887,1867,1780
1872,1872,1911
1814,1853,1904
1808,1842,1776
1899,1879,1815
1887,1870,1902
1863,1901,1926
1839,1853,1753
1831,1827,1700
1851,1861,1857
1861,1853,1923
1856,1851,1776
1904,1854,1787
1870,1885,1929
1818,1841,1907
1830,1827,1845
1901,1859,1855
1907,1851,1858
1883,1825,1861
1849,1841,1814
1885,1888,1847
1869,1853,1853
1870,1853,1861
1930,1883,1813
1859,1846,1811
1813,1835,1879
1805,1807,1988
1846,1819,1779
1915,1887,1710
1894,1871,1843
