1981,1718,1830
1968,1685,1904
1931,1670,1877
1962,1702,1768
2000,1727,1810
1978,1687,1911
1941,1673,1856
1961,1690,1758
1991,1713,1807
1974,1713,1891
1941,1695,1856
1963,1690,1765
1999,1701,1799
1979,1698,1904
1942,1700,1881
1962,1707,1770
1999,1709,1796
1985,1706,1893
1951,1712,1860
1967,1744,1766
1998,1697,1811
1975,1759,1911
1942,1724,1872
1962,1694,1774
1991,1742,1818
1974,1712,1916
1935,1667,1872
1898,1739,1761
1930,1712,1824
1954,1742,1919
1938,1673,1858
1951,1695,1767
1985,1725,1806
1965,1657,1907
1939,1680,1878
1959,1766,1781
1984,1751,1820
1973,1751,1911
1935,1712,1866
1947,1731,1776
1597,1744,1813
1778,1746,1898
1858,1784,1872
1859,1755,1785
1837,1682,1802
1826,1755,1895
1826,1715,1860
1824,1727,1783
1838,1745,1818
1834,1747,1904
1831,1747,1872
1834,1771,1789
1835,1751,1831
1831,1781,1904
1826,1745,1859
1830,1719,1779
1828,1770,1847
1835,1778,1920
1833,1763,1888
1830,1766,1795
1834,1747,1840
1834,1775,1927
1829,1776,1904
1834,1773,1823
1833,1822,1846
1836,1793,1940
1833,1750,1903
1838,1735,1791
1833,1726,1825
1837,1786,1936
1835,1787,1919
1839,1765,1803
1861,1822,1828
1850,1831,1924
1835,1826,1908
1866,1824,1840
1883,1759,1866
1863,1776,1943
1835,1776,1901
1855,1782,1810
1892,1855,1847
1874,1808,1943
1842,1761,1898
1870,1761,1814
1893,1771,1854
1878,1798,1937
1874,1807,1931
1898,1809,1848
1909,1786,1855
1888,1802,1940
1872,1833,1922
1873,1775,1813
1901,1790,1840
1875,1808,1918
1875,1783,1900
1903,1791,1820
1914,1798,1850
1886,1791,1923
1869,1789,1885
1882,1757,1807
1908,1762,1827
1892,1781,1887
1872,1763,1847
1872,1747,1808
1907,1807,1859
1907,1776,1897
1888,1806,1854
1872,1712,1808
1898,1781,1846
1897,1795,1877
1888,1759,1847
1893,1808,1818
1907,1799,1863
1920,1759,1910
1902,1777,1857
1891,1776,1819
1920,1791,1866
1926,1827,1905
1909,1706,1870
1911,1799,1829
1933,1822,1872
1937,1831,1905
1930,1814,1865
1921,1812,1821
1936,1840,1859
1947,1844,1915
1937,1844,1879
1934,1793,1833
1936,1810,1871
1943,1855,1909
1937,1808,1872
1936,1866,1828
1950,1889,1877
1953,1868,1911
1936,1815,1871
1927,1846,1829
1947,1884,1868
1943,1855,1918
1931,1887,1868
1922,1788,1808
1936,1843,1847
1922,1866,1875
1905,1808,1826
1899,1802,1783
1920,1856,1828
1917,1851,1856
1904,1819,1808
1891,1855,1761
1904,1805,1803
1903,1844,1837
1895,1808,1803
1885,1839,1749
1897,1847,1786
1895,1815,1818
1874,1806,1776
1862,1809,1739
1883,1810,1804
1885,1814,1841
1872,1811,1794
1872,1808,1746
1888,1839,1795
1895,1854,1846
1887,1839,1808
1888,1842,1767
1905,1866,1808
1914,1883,1854
1910,1872,1815
1903,1837,1779
1936,1907,1849
1933,1871,1874
1914,1890,1833
1909,1872,1797
1936,1900,1835
1940,1904,1872
1936,1923,1840
1931,1930,1808
1947,1883,1856
1964,2000,1909
1951,1941,1860
1944,1923,1817
1974,1959,1874
1968,1963,1905
1941,1898,1856
1943,1943,1827
1983,1984,1891
1966,1970,1906
1936,1942,1856
1938,1937,1827
1965,1970,1875
1985,1993,1932
1951,1953,1873
1938,1949,1822
1973,1994,1872
1984,2005,1915
1955,1967,1871
1975,1991,1856
2015,2043,1917
1942,1971,1879
1875,1906,1793
1894,1916,1777
1937,1971,1849
1967,2007,1907
1941,1969,1850
1914,1955,1803
1938,1972,1852
1958,1996,1903
1955,1984,1872
1938,1973,1821
1968,2010,1872
1975,2007,1905
1949,1980,1863
1938,1962,1817
1957,2000,1866
1970,2018,1906
1963,2000,1873
1960,2003,1845
1963,2007,1869
1941,1997,1887
1933,1983,1856
1935,1989,1831
1936,1994,1861
1953,2018,1904
1936,2000,1857
1927,1979,1822
1961,2017,1879
1957,2005,1891
1927,1979,1841
1905,1963,1782
1935,1986,1836
1974,2036,1905
1927,1971,1840
1906,1956,1782
1937,1990,1840
1947,2006,1891
1936,1986,1858
1930,1990,1820
1942,2010,1852
1939,2010,1882
1941,1999,1859
1925,1978,1826
1936,2005,1860
1954,2018,1906
1947,2011,1874
1933,1989,1830
1925,2000,1846
1952,2021,1895
1904,1962,1813
1887,1935,1771
1923,1984,1840
1937,2003,1883
1930,1972,1850
1936,1986,1823
1939,1999,1860
1919,1997,1879
1946,2016,1878
1902,1961,1801
1887,1962,1807
1907,1990,1867
1936,1999,1867
1887,1961,1783
1867,1939,1791
1890,1964,1843
1909,1971,1835
1898,1960,1789
1911,1982,1829
1920,1993,1869
1905,1971,1831
1904,1958,1793
1905,1990,1834
1921,1997,1874
1904,1967,1827
1881,1943,1776
1879,1952,1806
1915,1983,1873
1905,1968,1838
1874,1944,1775
1881,1958,1809
1898,1973,1856
1879,1969,1831
1829,1913,1745
1863,1945,1805
1890,1971,1856
1863,1934,1808
1850,1919,1765
1866,1952,1802
1873,1957,1845
1863,1926,1808
1869,1946,1788
1919,1998,1852
1890,1968,1856
1851,1930,1797
1822,1905,1746
1853,1942,1808
1856,1948,1843
1856,1936,1805
1859,1927,1775
1900,1969,1840
1935,2006,1910
1869,1938,1811
1827,1889,1733
1846,1911,1791
1872,1931,1847
1846,1920,1807
1840,1920,1763
1872,1950,1827
1875,1942,1859
1869,1935,1825
1839,1891,1765
1852,1920,1798
1891,1959,1872
1872,1940,1835
1851,1919,1776
1847,1914,1801
1840,1911,1823
1851,1920,1815
1855,1915,1787
1850,1928,1806
1855,1924,1839
1850,1901,1801
1865,1927,1791
1893,1965,1856
1829,1903,1832
1809,1872,1781
1834,1883,1760
1859,1914,1823
1866,1931,1862
1875,1921,1843
1850,1892,1786
1834,1881,1793
1838,1904,1835
1823,1881,1802
1836,1889,1776
1856,1923,1827
1873,1936,1884
1825,1869,1808
1816,1860,1774
1853,1906,1815
1872,1937,1878
1836,1891,1818
1831,1891,1813
1854,1916,1828
1857,1921,1841
1821,1874,1807
1805,1850,1783
1825,1885,1819
1856,1930,1875
1840,1895,1813
1809,1869,1749
1835,1890,1837
1849,1915,1838
1843,1897,1840
1840,1886,1818
1831,1895,1799
1872,1938,1918
1846,1914,1831
1805,1859,1762
1819,1873,1760
1825,1895,1840
1809,1865,1790
1818,1872,1774
1825,1884,1792
1819,1886,1840
1825,1879,1840
1839,1885,1828
1861,1918,1845
1842,1907,1854
1808,1872,1776
1815,1869,1795
1840,1890,1819
1849,1904,1846
1850,1905,1835
1792,1842,1727
1809,1871,1773
1847,1921,1890
1861,1929,1854
1791,1847,1753
1767,1837,1762
1822,1882,1811
1813,1863,1771
1792,1846,1760
1829,1899,1839
1827,1893,1870
1812,1871,1820
1795,1871,1793
1808,1895,1808
1811,1904,1853
1825,1893,1837
1810,1865,1777
1819,1882,1838
1835,1915,1897
1840,1906,1842
1761,1824,1763
1771,1827,1780
1810,1859,1807
1798,1851,1803
1777,1833,1792
1808,1871,1817
1839,1887,1858
1810,1872,1857
1807,1851,1743
1808,1878,1794
1827,1887,1856
1834,1870,1815
1819,1844,1811
1828,1872,1829
1851,1904,1870
1803,1838,1772
1776,1824,1738
1805,1841,1769
1823,1859,1845
1821,1856,1836
1822,1859,1792
1837,1881,1827
1815,1857,1843
1800,1840,1809
1795,1846,1792
1803,1859,1813
1813,1831,1843
1806,1815,1819
1783,1823,1774
1803,1841,1812
1819,1855,1880
1808,1840,1845
1794,1814,1792
1796,1809,1793
1797,1838,1831
1793,1819,1814
1791,1811,1781
1830,1871,1839
1808,1853,1915
1771,1817,1795
1770,1801,1750
1803,1823,1808
1827,1856,1867
1791,1826,1808
1791,1833,1776
1813,1849,1842
1815,1830,1855
1799,1799,1805
1791,1791,1774
1838,1840,1841
1866,1877,1911
1802,1825,1818
1787,1838,1779
1804,1807,1811
1818,1817,1846
1779,1774,1787
1779,1770,1749
1808,1806,1834
1831,1827,1865
1856,1841,1879
1809,1800,1772
1776,1783,1770
1789,1791,1851
1795,1769,1790
1793,1782,1764
1830,1836,1840
1814,1817,1889
1795,1776,1812
1808,1751,1804
1813,1792,1793
1819,1808,1870
1813,1776,1828
1794,1760,1747
1800,1783,1840
1824,1799,1903
1829,1781,1886
1837,1784,1852
1824,1788,1855
1819,1803,1883
1808,1753,1895
1795,1738,1823
1810,1762,1863
1833,1777,1923
1824,1760,1886
1803,1757,1811
1794,1763,1856
1798,1767,1887
1783,1743,1851
1803,1734,1840
1838,1775,1894
1813,1782,1913
1806,1754,1873
1807,1740,1810
1801,1757,1845
1799,1762,1899
1808,1740,1885
1808,1725,1808
1758,1691,3920
1570,1535,1367
1571,1535,1136
1677,1600,1648
1745,1663,1955
1361,1712,1899
1669,1681,1813
1872,1658,1806
1829,1701,1822
1872,1714,1817
1857,1685,1830
1840,1709,1799
1831,1744,1809
1828,1731,1822
1830,1706,1824
1837,1707,1830
1830,1749,1829
1830,1757,1826
1831,1727,1824
1827,1715,1825
1836,1759,1830
1831,1770,1825
1831,1757,1826
1828,1771,1826
1830,1780,1830
1808,1763,1829
1714,1725,1828
1471,1759,1827
2014,1787,1833
2064,1789,1829
1891,1766,1829
1809,1764,1825
1810,1776,1827
1829,1798,1877
1834,1791,2593
1839,1757,3184
1827,1711,2389
1872,1695,1462
1903,1671,1365
1939,1681,1535
1984,1725,1808
1994,1747,1879
1984,1722,1856
2019,1723,1827
2037,1744,1824
2031,1758,1825
1989,1744,1830
2103,1774,1829
2095,1801,1826
2061,1784,1827
2021,1744,1828
2007,1739,1830
2065,1777,1828
2032,1797,1827
2074,1790,1827
1999,1775,1827
2055,1810,1829
2096,1814,1831
2030,1797,1827
2039,1798,1827
2054,1847,1828
2054,1872,1826
2058,1834,1824
2015,1810,1827
2017,1841,1829
1995,1851,1828
1980,1838,1831
1997,1818,1832
2012,1862,1831
2037,1905,1853
1979,1870,1819
1904,1806,1677
1969,1860,1759
1988,1889,1877
1955,1823,1802
1918,1830,1697
1927,1877,1751
1968,1875,1853
1982,1867,1781
1997,1872,1693
1968,1871,1715
1968,1888,1798
1963,1872,1747
1922,1857,1683
1932,1893,1731
1970,1933,1801
1959,1907,1795
1904,1872,1727
1903,1883,1870
1928,1901,2039
1915,1872,1866
1887,1867,1626
1903,1885,1803
1869,1874,2359
1777,1760,2702
1644,1649,1333
1744,1706,1409
1754,1695,2156
1725,1616,1966
1562,1508,2431
1429,1456,873
1467,1488,1109
1631,1520,1497
1740,1590,1844
1732,1663,1906
1776,1705,1856
1831,1696,1821
1810,1712,1821
1783,1765,1822
1848,1808,1823
1815,1808,1823
1831,1811,1827
1858,1827,1826
1865,1867,1829
1869,1847,1826
1894,1854,1829
1877,1884,1828
1875,1913,1825
1842,1908,1834
1899,1913,1827
1887,1943,1829
1903,1967,1833
1917,1959,1808
1894,1930,1754
1908,1984,1798
1931,2016,1835
1893,1969,1749
1878,1969,1696
1905,2010,1751
1931,2018,1761
1956,2013,1681
1957,2005,1649
1866,2003,1685
1775,2026,1743
1889,2032,1717
1907,2032,1643
1934,2061,1647
1922,2067,1727
1872,2063,1743
1841,2028,1697
1886,2079,1714
1879,2075,1719
1769,2033,1663
1903,2026,1613
1891,2065,1667
1886,2083,1707
1884,2059,1658
1872,2046,1600
1904,2087,1666
1887,2087,1680
1877,2064,1650
1872,2039,1613
1863,2061,1631
1839,2057,1651
1856,2042,1643
1851,2058,1601
1842,2070,1631
1877,2084,1687
1902,2073,1638
1857,2059,1583
1840,2059,1655
1872,2096,1680
1855,2091,1616
1830,2059,1648
1808,2077,1611
1806,2095,1607
1856,2080,1589
1872,2035,1581
1852,2064,1645
1839,2103,1649
1847,2075,1601
1792,2027,1633
1837,2064,1667
1842,2086,1648
1808,2063,1597
1833,2037,1535
1824,2038,1585
1808,2087,1639
1833,2045,1665
1794,2001,1589
1765,2063,1579
1811,2092,1648
1807,2032,1622
1801,1984,1535
1827,2025,1649
1799,2029,1651
1808,2001,1601
1839,2000,1574
1759,2006,1694
1838,2002,1701
1777,1983,1598
1809,1990,1507
1819,2033,1611
1812,2021,1693
1803,1954,1623
1744,1950,1584
1795,2000,1650
1818,1997,1706
1833,1984,1663
1783,1968,1557
1773,1991,1573
1777,1970,1710
1808,2064,1684
1855,1953,1579
1790,1904,1567
1764,1870,1602
1770,1855,1579
1749,1926,1612
1819,2102,1693
1838,2019,1733
1744,1890,1621
1697,1802,1496
1712,1818,1523
1779,2124,1722
1791,2027,1759
1752,1870,1602
1693,1821,1519
1717,1790,1641
1759,1765,1679
1817,1899,1667
1744,1867,1616
1743,1892,1744
1734,1930,1649
1742,1894,1583
1770,1883,1650
1777,1910,1725
1777,1911,1717
1732,1919,1616
1760,1939,1702
1763,1941,1712
1776,1923,1671
1730,1837,1653
1721,1909,1725
1759,1983,1733
1785,1941,1699
1738,1874,1620
1719,1837,1634
1744,1895,1671
1795,1939,1752
1799,1881,1743
1748,1835,1671
1737,1902,1647
1764,1907,1676
1767,1845,1665
1775,1909,1673
1726,1939,1650
1733,1937,1675
1735,1859,1678
1760,1861,1683
1771,1933,1730
1771,1967,1755
1776,1933,1712
1763,1827,1703
1755,1811,1724
1775,1851,1744
1755,1906,1663
1768,1999,1742
1744,1936,1773
1723,1840,1698
1740,1815,1675
1742,1872,1697
1779,1957,1759
1755,1873,1758
1747,1877,1724
1776,1889,1778
1789,1924,1777
1777,1894,1713
1760,1853,1680
1725,1802,1671
1740,1877,1761
1778,1919,1783
1748,1898,1701
1743,1888,1791
1746,1845,1781
1759,1872,1742
1781,1931,1714
1760,1994,1790
1767,1823,1823
1749,1746,1723
1746,1774,1675
1771,1889,1781
1776,1952,1786
1757,1886,1744
1756,1840,1779
1780,1891,1775
1782,1994,1779
1732,1795,1809
1711,1734,1699
1750,1808,1706
1758,1885,1747
1775,1881,1807
1779,1826,1777
1762,1895,1743
1778,1845,1823
1754,1778,1781
1750,1835,1719
1739,1898,1711
1749,1829,1811
1747,1776,1829
1782,1818,1819
1799,1839,1811
1759,1897,1744
1741,1901,1729
1715,1782,1731
1743,1818,1791
1787,1906,1857
1777,1841,1839
1744,1753,1731
1758,1792,1766
1776,1870,1866
1760,1865,1827
1733,1775,1706
1765,1817,1788
1793,1840,1873
1800,1849,1795
1794,1841,1769
1738,1838,1761
1744,1808,1878
1744,1877,1776
1750,1844,1723
1770,1813,1802
1750,1739,1824
1743,1780,1803
1735,1744,1757
1747,1855,1776
1766,1883,1834
1757,1839,1813
1769,1811,1789
1776,1844,1830
1787,1903,1906
1805,1834,1935
1782,1853,1781
1707,1781,1679
1706,1836,1775
1743,1840,1808
1753,1765,1808
1776,1763,1841
1778,1816,1874
1747,1828,1819
1759,1812,1879
1776,1888,1871
1767,1893,1759
1749,1834,1742
1759,1723,1771
1782,1745,1824
1738,1810,1861
1734,1872,1833
1745,1788,1798
1763,1777,1830
1758,1811,1873
1746,1791,1863
1763,1844,1839
1781,1840,1823
1794,1870,1873
1764,1861,1840
1750,1801,1803
1738,1776,1815
1795,1822,1885
1774,1805,1801
1761,1780,1823
1797,1831,1947
1807,1936,1914
1802,1898,1852
1754,1891,1810
1729,1714,1813
1758,1746,1903
1776,1845,1946
1781,1883,1825
1769,1828,1791
1789,1777,1885
1782,1808,1886
1744,1791,1836
1777,1805,1875
1787,1873,1930
1797,1922,1879
1778,1771,1833
1777,1808,1936
1793,1882,2000
1790,1927,1873
1756,1863,1777
1776,1881,1840
1782,1847,1936
1788,1792,1929
1779,1799,1907
1799,1901,1968
1806,1890,2002
1758,1782,1894
1771,1819,1891
1820,1874,2023
1811,1831,2055
1826,1872,1973
1802,1766,1967
1806,1867,1936
1817,1927,1971
1793,1866,1936
1757,1802,1889
1776,1866,2003
1807,1898,2001
1821,1830,1977
1801,1843,1919
1783,1815,1943
1781,1764,2016
1792,1794,1991
1815,1838,1952
1841,1939,1989
1824,1887,2037
1785,1934,1950
1811,1899,1901
1799,1769,1919
1777,1776,1966
1776,1793,1979
1823,1851,1984
1794,1925,1905
1790,1919,1934
1808,1915,1961
1799,1803,1922
1811,1856,1927
1820,1843,1999
1811,1765,1995
1823,1807,1950
1822,1868,1904
1795,1918,1911
1813,1814,1919
1811,1835,1918
1845,2067,1990
1855,1917,1989
1797,1753,1893
1776,1757,1863
1811,1823,1920
1833,1830,1987
1840,1813,1978
1856,1940,1957
1835,1927,1887
1808,1810,1894
1782,1755,1898
1814,1771,1882
1828,1826,1925
1854,1936,2031
1822,1879,1908
1791,1808,1813
1821,1855,1911
1846,1927,1947
1877,1975,1948
1782,1879,1794
1777,1777,1863
1803,1802,1935
1818,1871,1929
1843,1893,1952
1829,1856,1869
1808,1809,1873
1803,1766,1886
1808,1872,1874
1853,1904,1967
1865,1847,1950
1809,1968,1879
1789,1834,1805
1827,1773,1855
1857,1781,1937
1852,1885,1899
1838,1906,1850
1837,1819,1907
1808,1829,1901
1818,1922,1927
1814,1840,1835
1840,1833,1869
1875,1904,1923
1842,2032,1904
1799,1812,1819
1827,1776,1819
1857,1879,1903
1846,1861,1878
1862,1855,1875
1835,1771,1840
1823,1819,1873
1821,1865,1894
1834,1859,1879
1866,1910,1894
1825,1866,1799
1799,1757,1800
1812,1815,1814
1855,1915,1889
1872,2006,1915
1827,1778,1841
1808,1829,1783
1827,1887,1840
1842,1958,1904
1840,1743,1899
1823,1815,1797
1855,1838,1860
1839,1766,1824
1822,1827,1805
1843,1915,1859
1849,1936,1861
1861,1887,1913
1876,1907,1869
1829,1777,1733
1847,1868,1799
1840,1910,1887
1856,1872,1878
1862,1906,1859
1838,1817,1750
1847,1913,1843
1858,1870,1826
1847,1914,1799
1842,1884,1799
1823,1786,1826
1818,1798,1812
1831,1858,1825
1845,1857,1872
1863,1866,1856
1853,1887,1827
1827,1947,1761
1843,1861,1795
1844,1776,1812
1838,1747,1806
1871,1874,1825
1881,1979,1920
1856,1916,1889
1829,1730,1761
1834,1808,1758
1863,1917,1866
1867,1936,1887
1840,1821,1819
1840,1726,1761
1842,1808,1798
1882,1930,1843
1859,1889,1808
1857,1904,1787
1872,1873,1811
1858,1889,1861
1840,1868,1823
1845,1877,1791
1890,1890,1841
1873,1840,1847
1858,1837,1822
1856,1873,1776
1855,1834,1762
1849,1854,1816
1867,1901,1877
1882,1815,1830
1842,1898,1793
1843,1962,1829
1861,1862,1826
1860,1776,1753
1890,1835,1801
1888,1892,1858
1853,1795,1781
1834,1794,1763
1872,1963,1857
1838,1835,1825
1815,1840,1746
1850,1897,1761
1879,1853,1819
1875,1796,1808
1847,1840,1815
1853,1840,1774
1887,1941,1797
1888,1982,1824
1856,1909,1807
1855,1866,1790
1827,1825,1811
1827,1817,1824
1856,1855,1827
1854,1869,1798
1850,1845,1748
1870,1835,1814
1859,1907,1821
1857,1840,1805
1869,1799,1762
1861,1854,1767
1833,1831,1786
1840,1871,1806
1886,1893,1854
1872,1877,1831
1872,1893,1787
1879,1857,1851
1879,1861,1847
1885,1959,1819
1872,2043,1767
1811,1712,1684
1840,1702,1776
1879,1906,1891
1843,1873,1782
1850,1921,1757
1854,1941,1811
1869,1914,1903
1872,1762,1843
1844,1776,1707
1839,1859,1728
1850,1920,1838
1861,1863,1821
1854,1843,1762
1863,1807,1814
1883,1856,1855
1845,1838,1850
1856,1853,1771
1878,1931,1802
1859,1937,1860
1841,1904,1846
1856,1841,1803
1867,1822,1760
1883,1919,1825
1870,1782,1808
1833,1798,1793
1854,1834,1799
1852,1904,1795
1863,1881,1777
1862,1877,1776
1869,1870,1833
1858,1825,1863
1881,1825,1871
1867,1808,1781
1870,1857,1806
1846,1872,1825
1830,1808,1813
1836,1868,1754
1840,1847,1744
1889,1914,1874
1894,1891,1838
1866,1967,1833
1835,1792,1797
1825,1713,1789
1849,1752,1779
1857,1787,1787
1889,1933,1875
1907,2065,1909
1856,1867,1829
1827,1715,1764
1845,1749,1733
1878,1840,1821
1870,1843,1785
1842,1829,1771
1862,1882,1827
1875,1936,1890
1883,1878,1875
1856,1824,1808
1856,1879,1808
1850,1895,1808
1855,1870,1808
1849,1782,1798
1862,1846,1808
1869,1890,1821
1895,1859,1839
1859,1872,1799
1839,1858,1773
1871,1922,1873
1870,1817,1858
1872,1767,1821
1872,1872,1796
1839,1904,1801
1835,1887,1847
1855,1791,1790
1855,1771,1781
1851,1897,1808
1862,1943,1808
1869,1872,1789
1875,1840,1792
1872,1854,1857
1868,1819,1858
1855,1755,1799
1855,1865,1797
1856,1927,1835
1842,1917,1795
1846,1815,1751
1851,1792,1776
1867,1904,1863
1868,1872,1814
1858,1847,1769
1846,1825,1801
1894,1861,1871
1867,1836,1834
1841,1856,1807
1866,1932,1822
1893,1970,1863
1849,1790,1786
1822,1712,1780
1846,1797,1781
1883,1891,1868
1883,1835,1840
1825,1808,1781
1870,1875,1840
1873,1937,1936
1841,1840,1795
1838,1797,1762
1859,1901,1837
1887,1912,1906
1847,1817,1856
1842,1865,1827
1885,1917,1842
1891,1849,1849
1850,1775,1838
1853,1803,1729
1855,1921,1779
1861,1873,1841
1840,1743,1748
1833,1770,1761
1871,1898,1850
1897,1968,1876
1879,1895,1825
1872,1794,1823
1855,1843,1829
1850,1949,1858
1858,1776,1760
1844,1774,1714
1871,1814,1802
1862,1855,1931
1886,1872,1874
1865,1865,1749
1905,1951,1810
1872,1846,1837
1878,1856,1902
1865,1915,1742
1877,1820,1755
1862,1776,1832
1849,1809,1856
1867,1824,1793
1882,1936,1803
1888,1975,1851
1889,1845,1841
1888,1712,1776
1891,1789,1806
1887,1863,1885
1870,1866,1813
1867,1847,1761
1884,1867,1794
1882,1923,1850
1883,1845,1802
1887,1878,1762
1897,1872,1776
1906,1923,1903
1891,1834,1889
1847,1679,1753
1856,1760,1754
1883,1873,1835
1893,1854,1819
1897,1916,1872
1906,2007,1839
1871,1773,1806
1872,1799,1782
1887,1910,1819
1912,1814,1879
1891,1776,1858
1872,1843,1808
1847,1870,1730
1867,1838,1732
1877,1869,1825
1868,1821,1814
1858,1808,1744
1889,1885,1841
1881,1906,1871
1885,1856,1856
1890,1801,1819
1920,2000,1868
1882,1877,1874
1854,1722,1735
1840,1732,1711
1876,1872,1811
1915,1904,1908
1855,1835,1801
1825,1835,1753
1886,1936,1843
1904,1874,1915
1850,1802,1759
1792,1697,1676
1832,1776,1815
1881,1961,1895
1879,1955,1933
1829,1790,1766
1830,1755,1791
1876,1920,1911
1851,1905,1840
1813,1781,1719
1813,1722,1769
1841,1830,1864
1843,1851,1895
1840,1942,1794
1839,1887,1791
1826,1744,1831
1791,1755,1818
1815,1813,1808
1846,1854,1839
1819,1926,1825
1822,1972,1872
1826,1819,1799
1803,1743,1769
1808,1803,1825
1827,1792,1846
1831,1826,1803
1830,2022,1822
1821,1884,1835
1785,1766,1813
1799,1809,1802
1809,1839,1808
1823,1777,1808
1793,1805,1838
1781,1777,1765
1802,1824,1854
1807,1898,1911
1795,1901,1796
1783,1895,1770
1813,1858,1867
1776,1795,1813
1766,1755,1779
1763,1804,1792
1809,1869,1864
1808,1840,1872
1783,1853,1770
1746,1790,1805
1771,1814,1793
1782,1858,1829
1813,2013,1871
1771,1840,1775
1785,1741,1817
1759,1728,1840
1760,1802,1805
1788,1872,1802
1799,1873,1781
1759,1810,1788
1741,1807,1797
1760,1815,1798
1785,1867,1835
1803,2025,1926
1774,2059,1835
1747,1717,1729
1747,1711,1747
1779,1815,1877
1789,1843,1907
1781,1888,1808
1770,1850,1750
1767,1808,1819
1771,1776,1904
1793,1904,1822
1801,1969,1856
1744,1833,1796
1749,1783,1803
1767,1805,1851
1801,1824,1879
1805,1900,1851
1790,1890,1885
1776,1913,1801
1765,1794,1730
1744,1771,1771
1771,1840,1798
1783,1870,1829
1817,1966,1909
1811,1991,1862
1757,1751,1781
1735,1731,1718
1793,1853,1806
1808,1948,1899
1808,1927,1955
1794,1840,1828
1757,1812,1722
1760,1851,1778
1793,1841,1818
1789,1825,1805
1790,1849,1847
1795,1897,1846
1803,1840,1835
1789,1873,1785
1805,1857,1810
1802,1856,1877
1834,1962,1911
1782,1872,1812
1772,1697,1737
1775,1720,1794
1781,1878,1799
1797,1889,1779
1813,1904,1831
1848,2000,1923
1819,1827,1875
1758,1749,1739
1774,1835,1773
1807,1869,1895
1826,1898,1895
1807,1808,1765
1829,1852,1840
1822,1920,1872
1805,1831,1767
1803,1753,1744
1798,1840,1826
1861,1925,1936
1808,1936,1875
1802,1786,1776
1813,1848,1791
1835,1882,1893
1844,1817,1842
1774,1872,1778
1824,1844,1840
1837,1850,1821
1786,1854,1833
1812,1835,1822
1821,1952,1851
1796,1869,1835
1758,1777,1782
1824,1825,1822
1841,1910,1881
1858,2037,1920
1821,1824,1808
1793,1703,1757
1781,1776,1779
1840,1919,1890
1856,1943,1867
1787,1894,1805
1858,1827,1847
1803,1799,1883
1825,1792,1844
1827,1846,1786
1856,1923,1822
1839,1965,1889
1849,1858,1872
1834,1819,1808
1839,1826,1818
1826,1890,1846
1820,1890,1864
1826,1877,1836
1855,1884,1802
1849,1921,1855
1792,1863,1870
1804,1771,1839
1807,1810,1825
1830,1895,1820
1807,1901,1793
1840,1789,1818
1863,1829,1838
1855,1873,1861
1813,1840,1834
1829,1840,1803
1803,1864,1823
1872,1946,1862
1837,1806,1822
1819,1829,1808
1835,1862,1806
1808,1889,1838
1839,1856,1831
1856,1899,1874
1795,1958,1802
1847,1909,1837
1777,1825,1780
1806,1773,1801
1836,1773,1845
1845,1829,1847
1852,1869,1829
1815,1828,1766
1824,1888,1799
1834,1905,1830
1827,1984,1801
1846,1882,1801
1790,1821,1805
1808,1741,1842
1828,1808,1872
1855,1902,1826
1823,1830,1754
1808,1789,1790
1833,1831,1834
1808,1869,1771
1825,1870,1802
1840,1951,1862
1838,1915,1878
1840,1797,1798
1861,1877,1836
1842,1873,1877
1850,1746,1841
1767,1776,1744
1825,1895,1798
1859,1952,1882
1809,1827,1857
1795,1831,1803
1729,1909,1807
1845,1861,1869
1838,1802,1816
1904,1838,1801
1866,1974,1851
1892,1947,1904
1819,1729,1808
1815,1835,1781
1851,1831,1879
1887,1890,1905
1854,1870,1820
1807,1845,1769
1830,1936,1826
1853,1990,1904
1843,1791,1821
1836,1710,1781
1856,1794,1823
1833,1889,1889
1847,1968,1857
1830,1963,1782
1826,1815,1808
1786,1699,1835
1802,1792,1851
1831,1872,1863
1869,1936,1844
1823,1927,1872
1849,1938,1873
1829,1902,1788
1790,1766,1798
1837,1758,1853
1867,1840,1837
1892,1872,1815
1871,1846,1846
1882,2018,1925
1840,1931,1840
1772,1668,1755
1802,1805,1871
1861,1998,1917
1875,1810,1833
1822,1729,1739
1840,1840,1817
1885,1953,1885
1808,1815,1887
1825,1807,1817
1843,1840,1824
1808,1923,1863
1839,1890,1808
1808,1827,1759
1838,1867,1843
1865,1867,1968
1825,1821,1838
1821,1809,1755
1843,1873,1796
1907,1917,1825
1823,1904,1841
1837,1861,1831
1835,1692,1840
1859,1921,1891
1872,1953,1884
1842,1785,1766
1867,1787,1749
1799,1821,1861
1863,1885,1854
1837,1874,1815
1803,1808,1823
1890,1856,1894
1840,1868,1859
1841,1888,1803
1799,1795,1776
1866,1852,1853
1861,1897,1840
1838,1830,1857
1843,1866,1866
1846,1909,1869
1835,1865,1830
1857,1905,1826
1893,1856,1877
1855,1847,1856
1814,1793,1786
1810,1825,1760
1846,1911,1824
1873,1979,1902
1861,1822,1890
1823,1797,1781
1842,1872,1808
1854,1840,1883
1840,1801,1845
1840,1808,1776
1869,1878,1802
1878,1944,1875
1840,1841,1863
1831,1933,1807
1831,1916,1779
1855,1777,1882
1860,1779,1855
1828,1870,1774
1808,1876,1811
1819,1901,1841
1818,1822,1808
1807,1769,1766
1827,1835,1840
1904,1927,1939
1863,1872,1860
1840,1868,1811
1858,1891,1808
1850,1906,1838
1845,1849,1821
1839,1731,1844
1849,1798,1837
1881,1949,1852
1853,1965,1807
1827,1895,1787
1855,1912,1852
1881,1943,1901
1852,1814,1851
1827,1792,1782
1842,1857,1855
1855,1808,1833
1838,1813,1790
1821,1846,1785
1845,1837,1834
1872,1840,1875
1879,1873,1853
1855,1882,1805
1843,1907,1818
1845,1873,1861
1821,1835,1795
1829,1806,1765
1856,1873,1817
1873,1857,1941
1871,1873,1839
1833,1854,1753
1841,1885,1827
1856,1877,1875
1858,1863,1872
1835,1780,1792
1855,1821,1811
1872,1856,1871
1863,1867,1849
1835,1822,1786
1852,1818,1838
1863,1920,1891
1838,1875,1850
1823,1783,1777
1839,1856,1780
