1794,1759,1888
1776,1725,1872
1719,1685,1787
1730,1710,1805
1755,1730,1866
1765,1763,1872
1760,1722,1837
1759,1745,1834
1761,1732,1881
1745,1737,1872
1743,1728,1835
1747,1695,1847
1747,1748,1888
1751,1737,1879
1731,1718,1827
1744,1782,1840
1763,1751,1900
1743,1689,1878
1729,1703,1838
1731,1713,1843
1755,1755,1910
1733,1751,1894
1731,1698,1851
1743,1746,1859
1744,1791,1893
1728,1695,1881
1722,1765,1848
1741,1744,1863
1737,1739,1893
1733,1728,1897
1716,1733,1854
1721,1766,1857
1729,1726,1904
1712,1731,1887
1699,1708,1843
1717,1785,1872
1718,1729,1914
1712,1744,1904
1696,1757,1867
1712,1727,1875
1715,1767,1918
1707,1751,1908
1710,1761,1872
1715,1821,1888
1705,1776,1911
1697,1770,1904
1711,1776,1872
1721,1791,1899
1695,1766,1907
1686,1757,1901
1675,1747,1855
1696,1772,1875
1707,1787,1930
1705,1797,1927
1707,1787,1889
1711,1758,1908
1696,1810,1936
1687,1750,1926
1693,1776,1885
1696,1783,1889
1706,1875,1933
1698,1837,1936
1698,1783,1898
1701,1792,1891
1691,1797,1927
1691,1776,1927
1680,1809,1882
1719,1814,1919
1705,1808,1938
1693,1793,1931
1691,1789,1886
1696,1797,1899
1711,1824,1942
1703,1797,1929
1683,1789,1875
1697,1818,1900
1699,1862,1936
1712,1823,1936
1692,1794,1879
1689,1841,1882
1700,1851,1935
1696,1796,1929
1694,1808,1889
1719,1793,1911
1738,1890,1962
1707,1843,1930
1684,1854,1869
1687,1763,1876
1705,1796,1935
1703,1786,1932
1703,1841,1891
1718,1836,1899
1733,1857,1957
1702,1833,1935
1687,1814,1872
1704,1826,1879
1707,1840,1935
1714,1822,1937
1712,1770,1901
1712,1871,1897
1726,1860,1937
1718,1844,1930
1712,1835,1886
1695,1828,1877
1684,1808,1907
1684,1817,1914
1698,1833,1877
1712,1869,1903
1735,1897,1949
1701,1850,1910
1681,1839,1867
1707,1871,1884
1719,1889,1934
1711,1853,1927
1689,1846,1871
1706,1872,1879
1723,1884,1931
1737,1865,1942
1712,1881,1882
1701,1865,1872
1709,1857,1913
1697,1867,1910
1706,1875,1873
1724,1899,1887
1728,1894,1922
1698,1866,1905
1680,1861,1856
1696,1807,1871
1715,1914,1931
1711,1906,1925
1702,1887,1872
1715,1904,1879
1727,1920,1938
1743,1938,1949
1712,1909,1882
1706,1905,1864
1710,1911,1906
1702,1901,1904
1705,1897,1862
1717,1920,1869
1727,1938,1925
1733,1936,1935
1706,1901,1851
1707,1917,1847
1728,1922,1905
1735,1913,1908
1723,1919,1862
1717,1919,1863
1719,1922,1906
1727,1920,1909
1726,1913,1857
1728,1927,1874
1737,1943,1931
1723,1927,1919
1728,1936,1871
1733,1946,1873
1712,1923,1886
1706,1905,1874
1722,1936,1856
1724,1936,1861
1728,1948,1909
1722,1936,1904
1723,1936,1863
1729,1941,1872
1727,1952,1905
1722,1949,1895
1713,1935,1837
1730,1945,1850
1735,1957,1901
1733,1949,1908
1723,1936,1852
1744,1959,1862
1750,1968,1905
1729,1935,1885
1714,1922,1827
1723,1945,1840
1743,1963,1902
1738,1940,1898
1737,1937,1858
1744,1949,1856
1744,1955,1894
1741,1954,1886
1733,1931,1840
1742,1936,1844
1763,1963,1903
1740,1950,1883
1711,1921,1812
1715,1927,1821
1734,1936,1873
1744,1939,1887
1718,1922,1830
1728,1946,1838
1742,1951,1882
1735,1936,1872
1735,1935,1827
1742,1946,1834
1744,1943,1872
1748,1936,1881
1751,1931,1841
1761,1953,1855
1744,1945,1877
1726,1919,1859
1727,1915,1817
1767,1936,1834
1765,1952,1882
1759,1943,1879
1750,1936,1834
1757,1952,1839
1756,1955,1875
1757,1939,1875
1749,1927,1831
1758,1933,1839
1766,1936,1879
1755,1919,1872
1750,1911,1824
1757,1920,1825
1765,1921,1867
1766,1925,1872
1760,1919,1824
1770,1925,1834
1761,1920,1870
1743,1904,1861
1754,1894,1819
1754,1898,1816
1765,1913,1872
1775,1905,1872
1758,1901,1811
1759,1914,1824
1774,1925,1872
1774,1921,1874
1760,1905,1819
1773,1907,1821
1771,1917,1866
1776,1901,1861
1761,1890,1809
1781,1904,1824
1792,1911,1878
1783,1903,1871
1772,1891,1821
1775,1913,1829
1778,1917,1872
1775,1902,1865
1773,1893,1823
1777,1904,1824
1787,1913,1877
1781,1909,1881
1775,1893,1814
1775,1909,1810
1781,1922,1855
1795,1907,1867
1791,1902,1818
1797,1913,1826
1803,1927,1871
1797,1911,1868
1777,1897,1811
1781,1907,1812
1797,1927,1870
1809,1936,1878
1810,1933,1839
1800,1906,1809
1786,1899,1840
1774,1877,1829
1776,1877,1792
1798,1900,1811
1810,1910,1863
1808,1904,1858
1792,1893,1802
1798,1899,1808
1812,1908,1856
1808,1904,1852
1807,1891,1808
1808,1903,1821
1814,1906,1864
1810,1893,1855
1798,1877,1808
1805,1904,1814
1818,1909,1860
1812,1897,1852
1799,1885,1799
1807,1902,1810
1822,1903,1859
1809,1890,1854
1807,1878,1803
1815,1893,1809
1813,1904,1851
1803,1888,1872
1795,1872,1791
1815,1887,1848
1821,1898,1850
1823,1887,1844
1795,1872,1830
1795,1885,1779
1804,1882,1842
1807,1872,1872
1797,1861,1778
1797,1872,1803
1807,1886,1872
1794,1875,1844
1776,1855,1726
1776,1856,1795
1795,1869,1807
1805,1862,1836
1805,1858,1792
1814,1872,1792
1803,1869,1834
1783,1846,1822
1792,1828,1777
1819,1861,1807
1819,1867,1840
1807,1846,1841
1791,1819,1748
1795,1821,1770
1805,1840,1887
1791,1835,1835
1779,1811,1770
1781,1821,1776
1781,1821,1803
1785,1810,1814
1788,1801,1741
1819,1819,1808
1825,1835,1845
1801,1814,1799
1778,1793,1779
1779,1805,1765
1786,1809,1799
1792,1791,1774
1787,1785,1776
1776,1789,1770
1777,1798,1817
1793,1805,1815
1792,1790,1777
1798,1792,1781
1808,1794,1826
1792,1787,1807
1775,1774,1747
1790,1778,1763
1805,1778,1829
1791,1766,1806
1787,1763,1751
1809,1772,1805
1808,1757,1829
1776,1739,1770
1765,1723,1763
1778,1741,1791
1785,1744,1794
1782,1735,1779
1770,1725,1681
1776,1726,1658
1776,1745,1811
1759,1758,1847
1749,1746,1738
1772,1718,1693
1767,1712,1728
1747,1724,1815
1759,1727,1776
1776,1723,1657
1744,1719,1696
1725,1718,1798
1755,1712,1728
1776,1719,1659
1756,1714,1727
1715,1712,1794
1717,1696,1706
1753,1696,1670
1738,1693,1735
1714,1705,1798
1744,1715,1735
1774,1719,1693
1745,1691,1747
1691,1666,1751
1654,1651,1633
1702,1653,1648
1728,1674,1729
1687,1669,1750
1680,1650,1728
1695,1655,1627
1686,1663,1677
1665,1658,1765
1690,1680,1681
1740,1686,1648
1732,1687,1770
1686,1667,1763
1660,1666,1680
1683,1679,1655
1609,1682,1709
1697,1678,1755
1837,1661,1659
1859,1654,1597
1842,1639,1659
1811,1626,1715
1836,1643,1638
1840,1675,1611
1808,1677,1677
1856,1653,1712
1842,1650,1618
1833,1687,1622
1837,1681,1729
1827,1666,1745
1838,1680,1649
1836,1705,1600
1828,1703,1723
1833,1707,1840
1839,1713,1659
1833,1729,1648
1838,1709,1759
1829,1686,1676
1838,1724,1695
1831,1761,1677
1837,1739,1802
1834,1705,1744
1825,1715,1674
1830,1751,1650
1840,1728,1735
1829,1702,1777
1829,1719,1670
1834,1730,1601
1827,1705,1684
1818,1685,1769
1811,1711,1655
1840,1725,1595
1824,1690,1680
1765,1652,1710
1766,1670,1630
1806,1697,1600
1801,1681,1680
1770,1649,1735
1785,1678,1643
1812,1690,1583
1815,1671,1655
1778,1651,1714
1765,1649,1610
1808,1682,1535
1810,1671,1663
1807,1659,1744
1808,1667,1650
1833,1677,1585
1809,1637,1665
1760,1596,1744
1769,1599,1615
1817,1622,1535
1823,1595,1625
1778,1535,1664
1768,1535,1569
1801,1572,1531
1814,1535,1600
1792,1511,1734
1788,1515,1616
1831,1535,1909
1822,1520,2055
1779,1491,1792
1794,1521,1535
1843,1527,1486
1850,1492,1611
1808,1463,1678
1807,1479,1599
1872,1535,1574
1883,1523,1663
1841,1492,1726
1840,1505,1631
1885,1535,1567
1888,1535,1649
1861,1515,1716
1854,1519,1645
1882,1535,1561
1897,1535,1648
1875,1535,1710
1858,1535,1647
1876,1552,1561
1903,1535,1635
1837,1510,1717
1817,1517,1637
1825,1525,1513
1814,1499,1561
1758,1454,1603
1719,1448,1519
1776,1474,1488
1823,1454,1535
1690,1347,1501
1598,1349,1475
1636,1379,1618
1691,1365,1776
1648,1328,1845
1568,1313,1850
1593,1328,1836
1624,1323,1835
1583,1296,1820
1520,1254,1822
1517,1280,1828
1567,1322,1834
1602,1328,1826
1648,1383,1825
1629,1450,1833
1709,1478,1832
1723,1472,1830
1712,1456,1825
1728,1493,1830
1754,1563,1829
1733,1520,1831
1676,1505,1826
1744,1535,1827
1798,1575,1831
1824,1577,1827
1762,1575,1830
1779,1618,1829
1823,1627,1829
1785,1603,1830
1774,1617,1833
1817,1663,1831
1821,1639,1831
1806,1607,1830
1801,1639,1829
1937,1737,1831
1891,1745,1840
1858,1712,1819
1883,1718,1723
1855,1751,1728
1934,1759,1849
1965,1746,1985
1904,1722,1745
1869,1758,1641
1922,1798,1792
1942,1808,1899
1967,1781,1863
1951,1796,1725
1952,1838,1776
1968,1792,1871
1930,1767,1791
1978,1800,1767
1990,1815,1830
1941,1835,1885
1943,1787,1783
1983,1795,1754
2000,1821,1824
1991,1828,1853
1930,1825,1779
1932,1793,1664
2021,1789,1797
1965,1788,1851
1904,1775,1735
1879,1809,1643
1931,1831,1783
1982,1776,1919
1953,1785,1744
1980,1860,1682
1914,1803,1822
1831,1757,1865
1824,1713,1683
1893,1760,1651
1870,1763,1721
1855,1733,1760
1874,1728,1687
1944,1760,1670
1865,1754,1722
1827,1749,1787
1835,1746,1751
1852,1680,1676
1851,1667,1776
1831,1681,1776
1827,1690,1652
1847,1685,1616
1869,1694,1679
1811,1663,1774
1788,1642,1679
1840,1642,1609
1857,1663,1739
1831,1618,1769
1765,1600,1647
1839,1613,1594
1798,1586,1805
1787,1565,1738
1785,1535,1535
1838,1595,1586
1785,1584,1689
1801,1520,1745
1807,1526,1734
1827,1555,1585
1861,1569,1636
1806,1535,1753
1789,1557,1683
1834,1558,1602
1870,1571,1733
1841,1577,1802
1801,1523,1701
1795,1524,1596
1810,1558,1658
1793,1519,1719
1792,1509,1626
1850,1535,1577
1829,1552,1719
1821,1569,1747
1822,1530,1653
1841,1535,1619
1795,1566,1703
1754,1552,1766
1767,1531,1712
1826,1555,1578
1822,1579,1623
1793,1535,1701
1879,1535,1639
1808,1574,1603
1790,1577,1675
1778,1593,1786
1861,1535,1712
1870,1556,1617
1811,1612,1702
1813,1586,1726
1801,1578,1601
1830,1610,1535
1857,1574,1671
1801,1559,1775
1759,1535,1778
1808,1593,1583
1823,1590,1664
1742,1599,1723
1819,1600,1635
1815,1615,1616
1805,1618,1681
1789,1590,1785
1831,1584,1677
1808,1637,1527
1803,1637,1630
1809,1603,1782
1777,1607,1683
1810,1663,1579
1799,1632,1648
1785,1600,1728
1798,1615,1667
1787,1653,1588
1856,1655,1734
1809,1631,1890
1776,1656,1687
1873,1671,1535
1859,1633,1652
1823,1664,1776
1833,1684,1640
1799,1671,1595
1761,1665,1744
1803,1681,1843
1797,1687,1627
1791,1669,1501
1787,1661,1661
1843,1699,1824
1778,1719,1699
1773,1691,1554
1791,1702,1671
1787,1712,1815
1796,1688,1716
1802,1676,1518
1781,1702,1636
1793,1737,1799
1792,1701,1745
1790,1703,1609
1814,1704,1651
1792,1717,1745
1779,1747,1710
1822,1734,1639
1845,1705,1674
1793,1693,1719
1731,1712,1648
1774,1758,1647
1829,1761,1745
1783,1727,1718
1748,1712,1626
1815,1744,1617
1831,1760,1723
1792,1728,1765
1791,1744,1719
1815,1777,1651
1842,1778,1725
1815,1747,1802
1771,1728,1710
1770,1761,1568
1808,1799,1634
1817,1769,1770
1792,1754,1665
1825,1792,1673
1836,1825,1777
1817,1774,1762
1787,1728,1606
1796,1787,1616
1815,1813,1776
1774,1775,1808
1769,1781,1670
1795,1797,1650
1823,1779,1781
1785,1760,1766
1781,1744,1692
1809,1770,1646
1819,1801,1772
1771,1826,1800
1784,1815,1653
1838,1839,1610
1849,1810,1771
1839,1773,1830
1751,1809,1770
1772,1798,1680
1807,1781,1692
1776,1790,1727
1747,1815,1658
1879,1871,1611
1856,1867,1800
1766,1830,1879
1722,1829,1749
1822,1841,1648
1792,1825,1690
1788,1818,1856
1792,1814,1771
1806,1823,1610
1809,1857,1750
1797,1843,1843
1791,1810,1695
1819,1869,1612
1831,1861,1792
1791,1839,1855
1759,1808,1668
1793,1817,1626
1829,1855,1765
1781,1858,1819
1750,1818,1740
1808,1869,1716
1837,1856,1745
1819,1862,1883
1767,1853,1709
1776,1863,1616
1838,1851,1795
1810,1847,1808
1763,1809,1695
1798,1851,1681
1802,1847,1791
1799,1856,1869
1789,1865,1748
1843,1904,1686
1803,1872,1804
1771,1859,1825
1807,1837,1724
1850,1874,1648
1809,1867,1787
1759,1837,1938
1772,1878,1744
1813,1891,1698
1809,1855,1764
1791,1840,1863
1792,1877,1766
1846,1879,1680
1851,1869,1761
1745,1834,1872
1741,1830,1791
1819,1921,1698
1839,1862,1744
1826,1872,1825
1805,1878,1839
1851,1874,1710
1795,1877,1783
1790,1890,1904
1782,1861,1771
1790,1840,1716
1830,1850,1776
1829,1870,1873
1786,1893,1779
1815,1920,1683
1794,1936,1883
1808,1896,1886
1804,1844,1753
1867,1872,1735
1868,1904,1918
1783,1856,1871
1730,1870,1713
1809,1879,1703
1867,1838,1818
1814,1867,1895
1763,1885,1794
1847,1911,1797
1859,1917,1904
1839,1886,1935
1795,1825,1777
1826,1875,1685
1839,1872,1819
1797,1843,1935
1792,1857,1756
1794,1871,1664
1823,1886,1902
1830,1859,2016
1808,1843,1777
1802,1860,1621
1858,1866,1845
1822,1863,1949
1825,1867,1790
1808,1906,1739
1811,1915,1859
1794,1877,1957
1809,1843,1797
1811,1842,1697
1850,1879,1870
1821,1872,1959
1791,1861,1776
1819,1873,1699
1834,1901,1872
1824,1897,1930
1826,1826,1857
1839,1854,1757
1811,1873,1893
1825,1891,1921
1801,1867,1744
1790,1805,1697
1822,1883,1859
1827,1887,1947
1841,1881,1843
1837,1888,1748
1803,1835,1869
1803,1842,1915
1791,1840,1818
1853,1888,1783
1857,1853,1777
1779,1833,1926
1792,1833,1820
1850,1822,1723
1867,1938,1839
1815,1931,1942
1804,1904,1880
1819,1829,1777
1835,1872,1854
1807,1840,1925
1774,1851,1802
1814,1857,1705
1854,1886,1866
1838,1893,1923
1831,1904,1781
1798,1840,1758
1840,1834,1868
1829,1839,1894
1837,1869,1872
1829,1869,1798
1802,1891,1879
1805,1871,1856
1817,1835,1734
1827,1869,1774
1857,1936,1917
1884,1878,1950
1800,1812,1829
1801,1808,1776
1903,1842,1827
1854,1869,1885
1776,1920,1806
1812,1923,1765
1859,1895,1877
1865,1904,1936
1829,1849,1833
1849,1847,1855
1856,1861,1917
1809,1840,1834
1793,1814,1723
1856,1895,1770
1871,1968,1921
1823,1903,1916
1813,1891,1751
1856,1863,1791
1904,1830,1922
1824,1883,1911
1777,1837,1746
1887,1879,1775
1875,1922,1878
1776,1872,1893
1745,1786,1782
1815,1834,1739
1885,1925,1878
1873,1903,1987
1807,1843,1748
1822,1852,1781
1831,1890,1851
1822,1840,1863
1822,1819,1751
1858,1858,1722
1872,1891,1882
1856,1863,1931
1807,1873,1808
1821,1874,1718
1861,1887,1931
1839,1831,1920
1827,1853,1851
1859,1885,1709
1838,1835,1771
1766,1824,1855
1786,1844,1805
1856,1921,1804
1876,1971,1853
1808,1847,1883
1802,1808,1761
1851,1801,1754
1863,1811,1865
1840,1846,1909
1811,1857,1802
1840,1899,1677
1850,1872,1777
1835,1822,1919
1808,1904,1819
1815,1858,1725
1854,1885,1873
1871,1859,1958
1818,1823,1757
1823,1838,1713
1837,1889,1771
1823,1877,1862
1792,1859,1814
1839,1898,1785
1853,1834,1811
1834,1818,1904
1820,1833,1839
1866,1846,1712
1903,1901,1822
1891,1821,1882
1803,1840,1781
1806,1827,1692
1859,1917,1821
1869,1918,1920
1877,1802,1854
1842,1867,1683
1835,1835,1814
1808,1847,1922
1826,1885,1829
1871,1893,1749
1869,1850,1776
1851,1878,1909
1847,1887,1860
1846,1779,1698
1859,1868,1764
1839,1885,1889
1826,1883,1837
1863,1875,1811
1902,1812,1783
1871,1813,1824
1823,1856,1776
1825,1840,1677
1851,1872,1777
1849,1863,1905
1878,1934,1843
1865,1903,1779
1854,1883,1837
1804,1833,1840
1818,1862,1774
1872,1884,1749
1897,1917,1819
1852,1847,1915
1815,1764,1805
1838,1857,1670
1858,1871,1793
1873,1923,1904
1872,1830,1841
1869,1904,1670
1872,1882,1750
1838,1823,1875
1803,1861,1762
1852,1872,1762
1877,1860,1914
1854,1856,1847
1827,1855,1730
1857,1855,1727
1884,1893,1850
1862,1866,1882
1845,1808,1821
1866,1895,1709
1885,1890,1808
1863,1871,1895
1826,1769,1760
1837,1858,1680
1874,1863,1825
1878,1877,1922
1865,1871,1850
1872,1860,1659
1857,1862,1779
1857,1872,1931
1845,1858,1741
1875,1872,1667
1977,1918,1837
1856,1845,1966
1779,1811,1799
1825,1855,1712
1879,1899,1793
1871,1904,1886
1843,1846,1808
1889,1870,1730
1890,1883,1809
1863,1871,1910
1850,1830,1777
1877,1856,1747
1910,1872,1828
1875,1872,1883
1861,1840,1786
1844,1863,1680
1878,1887,1895
1883,1863,1879
1830,1849,1788
1862,1841,1707
1892,1869,1840
1844,1852,1910
1846,1886,1777
1869,1918,1744
1889,1890,1873
1890,1803,1856
1846,1801,1712
1859,1861,1705
1883,1872,1827
1869,1853,1989
1840,1856,1778
1870,1890,1726
1898,1881,1831
1901,1898,1938
1856,1882,1808
1839,1872,1753
1867,1855,1808
1862,1846,1880
1851,1863,1825
1878,1874,1755
1891,1866,1807
1856,1872,1874
1831,1885,1794
1861,1889,1746
1885,1895,1871
1856,1897,1952
1835,1857,1827
1875,1869,1759
1887,1876,1827
1841,1845,1872
1839,1856,1819
1871,1890,1815
1892,1920,1856
1873,1882,1897
1857,1859,1826
1875,1882,1764
1893,1918,1919
1873,1904,1942
1853,1826,1763
1893,1834,1729
1870,1884,1863
1838,1882,1971
1825,1858,1842
1866,1871,1739
1888,1890,1931
1859,1887,1916
1826,1840,1740
1857,1892,1712
1888,1936,1889
1869,1849,1922
1845,1850,1845
1850,1882,1728
1858,1867,1843
1887,1862,1915
1841,1910,1850
1859,1914,1847
1873,1873,1849
1859,1843,1911
1854,1865,1782
1873,1902,1717
1872,1915,1855
1840,1898,1909
1845,1849,1827
1869,1865,1733
1893,1902,1835
1867,1897,1966
1866,1869,1859
1877,1893,1790
1867,1875,1808
1861,1891,1869
1865,1886,1835
1870,1887,1734
1893,1904,1853
1855,1856,1895
1797,1872,1856
1878,1913,1857
1872,1919,1807
1840,1935,1878
1824,1883,1810
1877,1850,1842
1886,1884,1838
1874,1877,1867
1846,1906,1825
1869,1901,1787
1875,1918,1871
1855,1857,1920
1819,1887,1806
1856,1939,1775
1891,1899,1842
1872,1842,1908
1809,1840,1809
1831,1867,1753
1871,1913,1875
1885,1924,1917
1859,1918,1887
1842,1935,1728
1827,1856,1748
1856,1840,1878
1842,1823,1812
1872,1879,1735
1899,1904,1885
1863,1890,1958
1827,1874,1819
1847,1883,1786
1909,1936,1881
1877,1911,1891
1813,1899,1839
1821,1835,1726
1854,1853,1769
1845,1899,1856
1825,1885,1791
1893,1903,1765
1903,1919,1920
1839,1856,1899
1813,1795,1757
1872,1872,1683
1875,1911,1804
1858,1879,1951
1819,1904,1858
1853,1873,1728
1861,1862,1805
1842,1838,1895
1851,1887,1829
1856,1889,1698
1887,1883,1795
1849,1825,1879
1841,1875,1818
1842,1873,1758
1859,1874,1940
1846,1879,1877
1828,1856,1757
1874,1877,1691
1879,1872,1817
1840,1874,1917
1813,1856,1778
1863,1915,1711
1887,1920,1873
1869,1824,2016
1835,1840,1791
1849,1834,1707
1877,1862,1809
1856,1892,1861
1824,1877,1808
1851,1879,1733
1885,1903,1853
1872,1889,1943
1910,1936,1839
1878,1869,1716
1808,1824,1775
1810,1812,1899
1840,1805,1830
1872,1874,1763
1904,1905,1833
1861,1846,1847
1819,1872,1809
1861,1934,1716
1902,1904,1792
1863,1847,1875
1822,1815,1811
1857,1878,1751
1885,1899,1850
1882,1867,1983
1827,1824,1775
1826,1856,1658
1858,1899,1799
1857,1897,1947
1853,1872,1828
1877,1879,1737
1887,1853,1825
1843,1808,1904
1840,1826,1932
1904,1845,1873
1872,1866,1890
1845,1883,2000
1840,1854,1935
1883,1859,1914
1859,1890,2069
1821,1865,2193
1831,1867,2079
1869,1885,2096
1878,1870,2139
1867,1866,2217
1824,1843,2211
1856,1871,2099
1885,1887,2288
1872,1862,2274
1805,1839,2060
1830,1837,2053
1875,1893,2113
1896,1919,2256
1840,1825,2046
1834,1827,1904
1855,1840,2043
1867,1867,2125
1863,1902,1856
1857,1822,1664
1842,1808,1872
1873,1818,1985
1853,1831,1883
1865,1888,1698
1881,1917,1715
1845,1853,1799
1842,1872,1748
1865,1886,1625
1874,1855,1692
1845,1817,1721
1851,1851,1644
1872,1840,1535
1894,1891,1612
1886,1840,1718
1846,1795,1630
1844,1885,1515
1876,1931,1621
1872,1840,1721
1865,1827,1631
1847,1829,1463
1849,1847,1505
1859,1836,1599
1837,1858,1523
1840,1863,1490
1875,1875,1583
1866,1875,1600
1840,1835,1535
1859,1837,1485
1883,1871,1530
1873,1894,1655
1836,1850,1577
1851,1883,1500
1871,1877,1579
1847,1824,1619
1835,1811,1557
1882,1904,1535
1872,1917,1586
1851,1875,1652
1855,1837,1571
1854,1837,1522
1862,1920,1584
1852,1905,1656
1845,1851,1518
1875,1914,1477
1901,1923,1566
1861,1883,1742
1831,1868,1639
1875,1889,1554
1883,1843,1593
1851,1872,1680
1825,1904,1535
1851,1926,1596
1863,1887,1638
1888,1901,1681
1863,1875,1599
1830,1891,1588
1863,1931,1655
1862,1897,1750
1835,1847,1714
1872,1936,1611
1873,1968,1681
1842,1889,1737
1823,1828,1609
1861,1846,1563
1873,1920,1676
1866,1895,1776
1854,1862,1625
1859,1910,1535
1859,1934,1703
1844,1903,1770
1831,1917,1677
1853,1915,1600
1871,1906,1642
1862,1872,1786
1839,1865,1666
1840,1915,1603
1898,1942,1714
1835,1894,1722
1825,1883,1652
1857,1921,1610
1879,1908,1726
1842,1858,1806
1817,1873,1769
1845,1878,1595
1868,1904,1712
1856,1913,1857
1835,1926,1721
1861,1914,1695
1865,1935,1724
1842,1901,1755
1839,1859,1733
1895,1888,1729
1885,1944,1705
1819,1915,1830
1820,1875,1732
1872,1900,1664
1872,1936,1690
1842,1922,1796
1841,1851,1749
1844,1905,1634
1855,1957,1721
1842,1955,1825
1837,1856,1799
1850,1872,1671
1925,1938,1790
1844,1909,1834
1812,1855,1765
1841,1885,1648
1889,1923,1812
1827,1939,1840
1814,1922,1802
1862,1904,1717
1879,1935,1780
1863,1883,1840
1808,1872,1806
1847,1923,1710
1872,1953,1754
1849,1909,1847
1830,1889,1854
1847,1861,1711
1873,1923,1789
1856,1955,1939
1834,1895,1789
1861,1883,1693
1923,1929,1805
1855,1933,1904
1873,1910,1840
1886,1935,1680
1863,1900,1792
1837,1890,1904
1765,1894,1856
1827,1894,1783
1882,1911,1794
1829,1883,1916
1872,1906,1829
1851,1947,1744
1850,2007,1826
1811,1875,1903
1782,1833,1777
1883,1870,1762
1857,1903,1846
1932,1904,1951
1854,1887,1849
1851,1882,1729
1933,1985,1808
1875,1931,1901
1779,1862,1801
1826,1889,1751
1900,1959,1888
1869,1898,1976
1817,1852,1836
1828,1888,1680
1880,1897,1806
1870,1919,1980
1891,1995,1898
1819,1893,1671
1851,1855,1789
1834,1850,1949
1821,1867,1941
1869,1888,1845
1904,1910,1749
1839,1893,1823
1808,1856,1808
1857,1878,1763
1895,1890,1873
1849,1903,1984
1867,1901,1842
1887,1935,1808
1829,1915,1846
1808,1831,1919
1797,1813,1803
1847,1841,1767
1877,1899,1854
1904,1855,1976
1863,1840,1825
1791,1910,1770
1794,1904,1840
1802,1892,1930
1877,1866,1877
1876,1869,1794
1889,1895,1806
1795,1856,1900
1859,1819,1826
1850,1858,1799
1877,1899,1898
1846,1874,1971
1778,1872,1827
1862,1869,1733
1925,1892,1840
1828,1883,1946
1853,1862,1874
1855,1845,1833
1877,1887,1925
1835,1854,1894
1779,1809,1761
1879,1858,1744
1871,1851,1859
1856,1859,1968
1812,1911,1886
1874,1894,1808
1869,1852,1887
1827,1796,1882
1834,1838,1819
1840,1869,1762
1866,1911,1860
1821,1839,1953
1826,1841,1919
1847,1855,1755
1885,1913,1821
1876,1895,2034
1819,1818,1883
1807,1820,1728
1922,1872,1829
1891,1891,1901
1847,1834,1853
1772,1851,1754
1854,1885,1829
1851,1840,1971
1739,1821,1926
1807,1874,1843
1891,1863,1879
1874,1909,1904
1877,1862,1808
1837,1802,1744
1861,1808,1871
1850,1831,2065
1844,1870,1888
1845,1863,1686
1909,1890,1779
1833,1883,1910
1844,1819,1833
1815,1871,1766
1850,1919,1887
1823,1835,1973
1793,1802,1898
1845,1815,1728
1959,1893,1834
1883,1918,1955
1872,1904,1913
1872,1886,1775
1862,1843,1837
1809,1807,1929
1781,1797,1813
1842,1870,1726
1908,1911,1858
1808,1862,1963
1883,1837,1865
1843,1887,1815
1878,1939,1819
1793,1895,1889
1827,1797,1862
1843,1814,1835
1889,1875,1857
1858,1865,1889
1854,1842,1901
1904,1887,1802
1872,1907,1780
1794,1861,1917
1818,1856,1812
1850,1895,1802
1921,1862,1847
1835,1840,1890
1829,1826,1843
1914,1842,1762
1872,1881,1893
1853,1914,1946
1824,1863,1849
1840,1864,1767
1843,1852,1789
1833,1837,1904
1810,1856,1840
1810,1862,1791
1877,1874,1808
1840,1831,1920
1797,1839,1875
1799,1881,1753
1867,1887,1808
1870,1843,1933
1831,1872,1883
1819,1904,1713
1865,1871,1743
1853,1859,1915
1855,1814,1904
1855,1830,1788
1843,1846,1819
1793,1872,1887
1835,1853,1855
1819,1888,1747
1887,1902,1850
1894,1899,1911
1829,1899,1808
1823,1851,1735
1869,1829,1837
1852,1822,1936
1810,1885,1814
1835,1829,1728
1882,1887,1834
1863,1901,1995
1844,1898,1872
1872,1855,1702
1878,1840,1770
1831,1898,2000
1818,1863,1855
1839,1834,1664
1894,1855,1895
1858,1891,1890
1796,1890,1781
1836,1869,1739
1866,1877,1854
1858,1866,1965
1843,1835,1901
1855,1879,1728
1883,1905,1783
1843,1877,1933
1828,1822,1845
1871,1839,1755
1894,1899,1837
1841,1847,1872
1856,1825,1843
1891,1882,1717
1835,1869,1802
1799,1862,1933
1835,1936,1936
1879,1931,1808
1870,1837,1808
1845,1794,1843
1827,1808,1823
1858,1860,1744
1872,1916,1792
1873,1890,1971
1840,1865,1863
1865,1920,1776
1881,1934,1841
1859,1855,1862
1821,1773,1790
1858,1823,1696
1895,1904,1847
1904,1888,1919
1824,1813,1837
1827,1892,1774
1858,1930,1823
1864,1932,1990
1883,1904,1907
1839,1830,1734
1841,1808,1728
1822,1858,1855
1837,1877,1866
1856,1904,1779
1899,1906,1873
1856,1920,1919
1827,1874,1815
1827,1835,1714
1861,1837,1784
1860,1821,1933
1885,1955,1940
1871,1943,1699
1839,1840,1749
1811,1831,1872
1836,1865,1904
1884,1959,1791
1918,1923,1823
1857,1821,1904
1809,1843,1823
1840,1877,1692
1873,1918,1805
1873,1936,1942
1858,1888,1923
1877,1864,1719
1880,1830,1751
1850,1859,1927
1872,1909,1899
1840,1904,1690
1849,1872,1776
1840,1823,1922
1883,1845,1872
1875,1863,1814
1854,1951,1791
1823,1871,1855
1823,1840,1808
1869,1870,1794
1918,1936,1855
1887,1903,1871
1830,1855,1806
1838,1872,1754
1893,1842,1837
1861,1803,1949
1808,1853,1775
1840,1891,1695
1885,1919,1799
1866,1869,1939
1829,1845,1852
1874,1874,1760
1925,1961,1903
1876,1915,1934
1782,1745,1793
1814,1827,1702
1872,1881,1792
1889,1889,1899
1814,1882,1813
1823,1858,1658
1877,1885,1862
1907,1872,2003
1846,1859,1767
1845,1854,1643
1854,1873,1776
1856,1870,1872
1856,1855,1845
1851,1892,1775
1873,1889,1803
1879,1867,1895
1869,1862,1936
1840,1895,1715
1853,1925,1787
