1826,1769,1734
1837,1746,1881
1808,1729,1903
1813,1760,1770
1840,1777,1767
1815,1727,1867
1766,1695,1857
1761,1727,1713
1856,1776,1773
1879,1766,1935
1815,1722,1920
1807,1742,1762
1844,1760,1740
1829,1715,1840
1767,1698,1840
1779,1747,1765
1840,1777,1773
1839,1759,1903
1812,1741,1915
1803,1748,1768
1842,1777,1745
1841,1749,1877
1807,1742,1919
1817,1776,1787
1857,1799,1770
1843,1771,1891
1771,1722,1879
1778,1753,1746
1844,1779,1743
1861,1778,1907
1834,1762,1943
1838,1788,1823
1874,1809,1798
1856,1779,1905
1797,1742,1899
1808,1766,1757
1855,1793,1749
1838,1769,1882
1813,1759,1920
1857,1798,1815
1908,1840,1808
1872,1808,1922
1807,1764,1906
1837,1795,1805
1901,1837,1822
1877,1803,1923
1815,1771,1905
1858,1806,1811
1925,1841,1827
1904,1815,1937
1831,1776,1909
1838,1777,1782
1922,1838,1839
1920,1834,1971
1886,1813,1989
1901,1826,1854
1938,1842,1827
1901,1808,1933
1867,1789,1949
1907,1817,1850
1953,1840,1856
1922,1822,1957
1873,1739,1963
1906,1792,1846
1954,1808,1897
1936,1806,2119
1872,1817,2032
1874,1777,1775
1926,1779,1758
1905,1814,1811
1872,1774,1840
1891,1747,1835
1953,1850,1833
1943,1798,1829
1906,1808,1827
1913,1786,1824
1954,1802,1826
1947,1840,1831
1819,1867,1829
1866,1830,1827
1968,1828,1830
1973,1820,1829
1917,1805,1831
1911,1779,1831
1951,1813,1834
1931,1808,1826
1920,1810,1826
1935,1812,1825
1975,1840,1833
1958,1806,1834
1904,1831,1827
1917,1807,1829
1968,1830,1831
1962,1859,1830
1920,1787,1829
1909,1799,1830
1955,1812,1830
1974,1824,1827
1936,1808,1827
1936,1801,1822
1974,1830,1881
1965,1840,1984
1921,1822,1965
1903,1856,1858
1936,1817,1845
1947,1835,1963
1926,1819,2000
1934,1825,1884
1958,1833,1869
1951,1840,1967
1907,1831,1966
1899,1782,1844
1963,1840,1859
1963,1855,1977
1921,1840,1982
1907,1779,1837
1953,1839,1814
1947,1809,1947
1900,1867,1959
1891,1837,1840
1939,1888,1841
1939,1830,1949
1894,1886,1937
1890,1854,1821
1941,1899,1851
1953,1938,1968
1904,1875,1946
1899,1886,1812
1936,1856,1808
1936,1903,1938
1901,1877,1939
1913,1851,1834
1958,1862,1822
1946,1895,1931
1904,1930,1943
1921,1871,1840
1971,1838,1833
1965,1870,1921
1904,1891,1939
1903,1882,1827
1968,1905,1824
1970,1923,1933
1909,1908,1943
1918,1906,1837
1971,1937,1834
1959,1935,1921
1887,1909,1899
1904,1943,1808
1986,1949,1839
1991,1968,1954
1919,1917,1927
1907,1907,1809
1967,1942,1828
1968,1983,1955
1913,1935,1952
1911,1927,1815
1953,1940,1807
1945,1961,1922
1895,1958,1926
1899,1914,1797
1951,1941,1792
1946,1938,1904
1889,1936,1933
1884,1931,1808
1935,1951,1797
1921,1959,1908
1874,1950,1917
1889,1938,1788
1934,1953,1779
1910,1954,1894
1853,1931,1887
1876,1915,1773
1936,1947,1790
1920,1951,1904
1842,1925,1867
1821,1931,1718
1913,1988,1789
1925,1988,1931
1863,1903,1903
1856,1897,1746
1879,1901,1722
1859,1911,1843
1805,1900,1850
1811,1921,1712
1872,1931,1716
1885,1975,1860
1805,1851,1855
1793,1879,1702
1869,1947,1706
1865,1920,1850
1807,1866,1849
1810,1909,1724
1863,1946,1721
1837,1915,1806
1774,1863,1808
1789,1947,1680
1843,1949,1683
1840,1918,1821
1786,1891,1833
1805,1981,1700
1851,1968,1692
1844,1935,1827
1789,1903,1823
1798,1968,1692
1854,1942,1680
1810,1882,1776
1787,1882,1821
1839,2007,1724
1892,2000,1725
1854,1920,1825
1790,1936,1818
1790,1891,1685
1856,1943,1683
1837,1915,1783
1785,1892,1796
1793,1922,1664
1859,1926,1679
1867,1933,1809
1792,1939,1791
1763,1939,1632
1830,1933,1634
1837,1893,1774
1786,1883,1786
1810,1929,1668
1869,1972,1645
1808,1872,1713
1735,1839,1734
1743,1919,1617
1793,1969,1606
1797,1917,1742
1751,1872,1749
1743,1922,1610
1763,1968,1571
1771,1914,1696
1744,1887,1734
1733,1941,1602
1758,1973,1579
1756,1923,1706
1729,1904,1729
1756,1968,1616
1767,1995,1584
1744,1923,1696
1709,1895,1693
1711,1945,1535
1761,1994,1535
1757,1937,1680
1707,1889,1683
1703,1932,1521
1770,1983,1523
1757,1936,1668
1686,1894,1661
1698,1938,1519
1724,1968,1477
1739,1924,1615
1749,1925,1684
1792,1985,1564
1808,1993,1474
1773,1926,1579
1719,1890,1598
1733,1949,1488
1801,1989,1495
1803,1945,1619
1772,1911,1625
1766,1945,1474
1815,1988,1463
1846,1961,1629
1808,1929,1648
1781,1968,1474
1820,1986,1456
1830,1960,1600
1787,1943,1620
1799,1987,1478
1852,2030,1488
1876,2014,1637
1814,1965,1622
1801,1991,1471
1859,2046,1472
1855,2031,1607
1807,1998,1606
1825,2054,1492
1879,2085,1502
1865,2075,1603
1798,2015,1584
1808,2023,1456
1896,2065,1499
1905,2060,1631
1831,2026,1631
1813,2046,1485
1869,2085,1495
1904,2089,1678
1870,2038,1700
1878,2039,1520
1929,2057,1470
1867,2018,1616
1823,1983,1687
1850,2003,1581
1906,2045,1535
1935,2037,1654
1904,2010,1680
1860,1991,1552
1904,2017,1531
1936,2022,1676
1899,1975,1712
1878,1987,1584
1922,2022,1534
1935,2003,1683
1898,1987,1718
1906,2015,1622
1970,2034,1598
1956,2000,1712
1893,1968,1731
1891,2001,1585
1944,2032,1579
1958,2003,1719
1910,1958,1759
1902,1975,1594
1963,2007,1595
1961,1985,1743
1894,1936,1744
1903,1987,1637
1982,2034,1654
1980,2003,1783
1929,1968,1806
1920,1977,1673
1968,2010,1665
1979,2004,1821
1936,1964,1838
1936,1972,1705
1968,1999,1697
1940,1965,1836
1875,1913,1776
1872,1947,1610
1981,2029,1727
2011,2009,1911
1957,1969,1906
1923,1980,1734
1958,2019,1691
1951,1983,1828
1898,1954,1863
1892,1972,1753
1950,2015,1761
1958,2000,1899
1910,1965,1921
1899,1972,1815
1950,2001,1813
1942,1977,1904
1891,1949,1894
1877,1966,1792
1937,2007,1784
1930,1968,1913
1869,1923,1903
1855,1957,1769
1910,1982,1770
1890,1945,1919
1858,1933,1971
1893,1993,1870
1947,2015,1857
1939,1981,1962
1889,1948,1980
1867,1959,1850
1906,1990,1835
1901,1975,1957
1853,1935,2013
1862,1955,1850
1902,1983,1804
1891,1955,1966
1850,1936,2000
1862,1965,1881
1882,1972,1875
1867,1958,2005
1841,1941,2002
1841,1959,1871
1882,1954,1874
1884,1955,2013
1840,1930,2047
1843,1948,1949
1893,1982,1945
1904,1957,2073
1815,1904,1990
1801,1913,1846
1872,1954,1887
1881,1949,2099
1824,1888,2088
1806,1873,1989
1872,1919,1909
1878,1905,2096
1821,1865,2091
1797,1844,1967
1868,1869,1946
1872,1867,2141
1807,1824,2088
1750,1811,1929
1792,1858,1910
1810,1821,2066
1769,1744,2067
1798,1799,2018
1835,1835,1974
1829,1818,2155
1792,1796,2082
1810,1822,1952
1847,1835,1968
1833,1809,2109
1777,1776,2101
1764,1782,1950
1823,1809,1968
1843,1813,2119
1794,1820,2203
1776,1807,2016
1787,1791,1959
1797,1773,2113
1775,1771,2170
1776,1815,2019
1808,1840,2006
1811,1810,2166
1775,1765,2183
1745,1774,2039
1809,1835,2082
1792,1813,2131
1735,1765,2126
1725,1791,2010
1781,1833,1994
1791,1805,2142
1744,1774,2157
1759,1805,2089
1783,1819,2054
1787,1808,2172
1728,1767,2169
1696,1764,1968
1744,1808,1994
1797,1808,2202
1775,1803,2240
1742,1813,2054
1781,1846,2028
1779,1814,2179
1744,1776,2179
1741,1809,2131
1750,1815,2022
1755,1803,2099
1706,1774,2154
1707,1797,2060
1744,1834,1997
1754,1823,2198
1735,1809,2219
1743,1840,2106
1771,1859,2098
1798,1845,2224
1766,1811,2241
1680,1796,2023
1707,1825,1982
1735,1838,2212
1731,1831,2245
1744,1875,2098
1778,1899,2076
1754,1847,2192
1710,1809,2209
1729,1845,2081
1775,1897,2095
1745,1872,2165
1712,1839,2224
1697,1855,2053
1745,1897,2021
1766,1880,2179
1744,1858,2235
1735,1879,2126
1773,1926,2070
1745,1889,2135
1692,1840,2183
1680,1867,2053
1742,1905,2029
1777,1904,2320
1744,1887,2222
1733,1905,2090
1757,1904,2039
1759,1899,2161
1712,1883,2114
1717,1911,2078
1769,1937,2054
1766,1907,2183
1713,1872,2217
1713,1899,2080
1770,1942,2111
1783,1926,2096
1744,1903,2215
1726,1915,2064
1731,1937,1982
1726,1919,2128
1697,1901,2145
1708,1931,2046
1764,1968,2106
1761,1951,2171
1728,1910,2177
1700,1917,2009
1747,1969,2005
1765,1961,2162
1712,1921,2219
1697,1931,2046
1745,1959,2032
1747,1947,2128
1714,1934,2242
1761,1957,2096
1802,1983,2096
1733,1935,2092
1679,1910,2114
1695,1936,1984
1753,1977,1999
1765,1971,2155
1728,1931,2189
1716,1939,2032
1746,1977,2000
1735,1951,2153
1693,1937,2122
1687,1951,2032
1761,2000,2015
1776,2000,2175
1726,1945,2144
1712,1955,2060
1761,1985,1973
1754,1963,2096
1698,1926,2129
1712,1973,2019
1779,2020,2025
1751,1961,2129
1703,1919,2139
1710,1964,1990
1759,1985,1979
1744,1968,2086
1705,1933,2111
1695,1947,1936
1757,1989,1956
1776,1987,2101
1723,1952,2160
1712,1959,1985
1769,2008,1937
1759,1974,2074
1721,1951,2149
1723,1966,2025
1766,1995,1911
1762,1990,2109
1727,1957,2155
1735,1979,2022
1773,2003,1968
1763,1977,2125
1719,1940,2091
1714,1963,1941
1789,2001,1958
1757,1971,2061
1694,1934,2075
1696,1951,1921
1761,1990,1912
1755,1968,2064
1729,1936,2082
1712,1966,1941
1761,1998,1911
1762,1983,2020
1725,1951,2066
1732,1979,1943
1761,1997,1910
1764,1968,2054
1723,1933,2062
1723,1975,1924
1765,1999,1925
1774,1966,2066
1733,1936,2057
1725,1969,1885
1772,2002,1871
1795,1981,2025
1730,1934,2041
1710,1958,1900
1771,1994,1903
1769,1968,2032
1728,1938,2035
1721,1957,1869
1763,1986,1846
1770,1946,1968
1738,1919,2015
1729,1947,1905
1786,2000,1879
1791,1986,2037
1689,1930,2035
1710,1929,1862
1733,1967,1823
1790,1939,1979
1776,1908,2018
1737,1950,1911
1786,1989,1876
1743,1977,1962
1749,1950,2001
1792,1949,1872
1759,1983,1867
1789,1961,1998
1751,1926,2000
1741,1933,1836
1787,1979,1837
1856,1970,1996
1758,1938,2019
1744,1936,1895
1786,1984,1842
1808,1958,1968
1734,1904,1966
1725,1937,1844
1786,1984,1830
1753,1935,1922
1779,1911,1991
1742,1936,1858
1792,1984,1843
1791,1954,1959
1712,1917,1984
1771,1957,1857
1841,1984,1834
1802,1941,1966
1803,1921,2078
1780,1962,1856
1778,1965,1790
1776,1952,1900
1770,1909,1945
1779,1936,1833
1815,1968,1801
1795,1936,1936
1733,1915,1953
1758,1939,1819
1783,1962,1819
1815,1938,1978
1787,1923,1970
1786,1936,1815
1836,1971,1811
1817,1953,1938
1779,1909,1968
1808,1925,1842
1790,1969,1797
1808,1936,1904
1761,1912,1953
1808,1942,1855
1840,1952,1796
1823,1936,1911
1744,1911,1961
1791,1925,1825
1839,1964,1781
1843,1941,1958
1776,1903,1961
1818,1929,1806
1823,1935,1747
1840,1933,1929
1834,1903,1979
1789,1911,1818
1838,1936,1808
1806,1920,1879
1737,1875,1893
1826,1902,1808
1864,1967,1825
1856,1943,1958
1808,1898,1953
1795,1903,1802
1851,1928,1785
1840,1921,1934
1803,1884,1947
1813,1910,1804
1860,1943,1769
1861,1904,1921
1814,1876,1948
1815,1920,1832
1888,1963,1808
1875,1937,1903
1753,1872,1893
1775,1888,1743
1846,1933,1749
1831,1936,1920
1827,1901,1924
1791,1899,1781
1855,1933,1755
1902,1936,1909
1856,1902,1951
1827,1898,1808
1903,1942,1771
1856,1909,1886
1808,1877,1914
1838,1899,1813
1889,1935,1792
1904,1935,1954
1860,1911,1946
1791,1903,1715
1843,1921,1727
1868,1915,1936
1840,1888,1959
1834,1914,1780
1873,1922,1725
1831,1914,1865
1828,1887,1939
1825,1904,1772
1865,1936,1763
1899,1923,1926
1909,1929,1942
1823,1938,1809
1872,1948,1738
1883,1918,1906
1749,1879,1914
1839,1885,1779
1865,1945,1765
1904,1921,1888
1808,1879,1936
1823,1895,1760
1897,1936,1758
1884,1932,1933
1837,1864,1942
1823,1875,1757
1894,1907,1764
1882,1902,1905
1843,1851,1910
1824,1863,1775
1858,1914,1716
1888,1904,1843
1866,1893,1931
1855,1913,1806
1866,1924,1723
1872,1870,1878
1827,1826,1916
1829,1888,1761
1855,1883,1707
1856,1843,1811
1818,1838,1873
1839,1863,1747
1953,1883,1737
1867,1855,1878
1851,1854,1898
1825,1855,1742
1871,1883,1739
1899,1887,1904
1841,1874,1936
1827,1858,1765
1866,1871,1734
1865,1859,1849
1868,1838,1883
1831,1856,1759
1927,1921,1808
1904,1873,1890
1872,1828,1871
1841,1851,1751
1865,1884,1751
1918,1880,1877
1884,1886,1930
1872,1882,1811
1887,1874,1758
1872,1842,1873
1863,1870,1897
1839,1876,1747
1888,1886,1819
1891,1891,1872
1847,1875,1872
1853,1891,1745
1908,1920,1733
1905,1882,1881
1855,1865,1915
1849,1877,1776
1923,1933,1754
1922,1937,1899
1857,1871,1895
1821,1837,1742
1879,1857,1726
1901,1867,1858
1858,1872,1893
1863,1904,1825
1901,1931,1766
1904,1904,1861
1872,1856,1902
1837,1845,1728
1876,1870,1713
1878,1870,1854
1872,1845,1947
1861,1857,1777
1904,1904,1717
1919,1886,1872
1871,1859,1901
1843,1883,1738
1911,1903,1809
1922,1909,1920
1866,1872,1874
1842,1872,1705
1887,1894,1713
1904,1886,1876
1866,1843,1941
1859,1851,1804
1920,1893,1735
1935,1902,1874
1871,1856,1893
1850,1851,1746
1907,1893,1751
1906,1899,1847
1863,1842,1900
1882,1856,1840
1919,1885,1727
1917,1893,1840
1860,1858,1887
1851,1861,1749
1904,1903,1760
1919,1904,1906
1860,1834,1915
1845,1830,1723
1905,1886,1718
1904,1876,1872
1867,1846,1943
1873,1855,1793
1927,1915,1749
1903,1899,1856
1839,1838,1852
1845,1840,1733
1909,1882,1733
1918,1875,1872
1866,1853,1891
1855,1872,1762
1915,1896,1755
1910,1891,1860
1857,1831,1881
1852,1831,1776
1887,1886,1751
1895,1904,1819
1853,1874,1849
1851,1850,1744
1919,1861,1746
1921,1871,1872
1858,1856,1867
1840,1863,1733
1904,1890,1733
1921,1890,1910
1875,1872,1951
1863,1868,1772
1901,1879,1712
1913,1893,1852
1872,1846,1870
1863,1867,1761
1914,1890,1713
1904,1847,1843
1851,1845,1879
1857,1881,1718
1918,1927,1698
1904,1902,1851
1871,1877,1931
1845,1855,1740
1889,1858,1701
1913,1875,1842
1878,1872,1893
1865,1873,1749
1911,1910,1744
1914,1891,1910
1878,1872,1957
1879,1872,1792
1891,1872,1691
1884,1891,1834
1852,1898,1835
1856,1879,1723
1885,1872,1703
1901,1872,1843
1861,1859,1897
1838,1847,1737
1879,1883,1698
1893,1890,1856
1861,1872,1909
1861,1875,1777
1891,1898,1751
1897,1887,1885
1849,1854,1899
1854,1845,1792
1918,1911,1750
1892,1897,1856
1863,1862,1879
1857,1858,1749
1901,1889,1739
1898,1883,1840
1856,1854,1899
1846,1847,1808
1875,1858,1683
1887,1893,1806
1856,1861,1876
1849,1841,1757
1904,1922,1769
1922,1915,1887
1856,1828,1876
1853,1834,1808
1904,1898,1727
1904,1904,1840
1873,1888,1904
1853,1866,1758
1899,1857,1739
1907,1870,1858
1867,1891,1911
1867,1885,1781
1898,1873,1703
1870,1867,1809
1840,1869,1850
1854,1883,1757
1903,1903,1736
1895,1878,1901
1845,1840,1918
1840,1834,1735
1894,1894,1728
1879,1901,1851
1855,1851,1888
1822,1789,1739
1869,1867,1728
1904,1879,1891
1862,1872,1897
1852,1843,1745
1905,1867,1758
1895,1857,1906
1821,1819,1872
1814,1811,1746
1877,1933,1744
1902,1885,1858
1841,1885,1867
1828,1862,1759
1871,1887,1731
1872,1873,1865
1835,1846,1889
1831,1893,1767
1872,1890,1733
1870,1849,1850
1835,1843,1919
1826,1855,1733
1879,1887,1693
1874,1888,1831
1823,1818,1861
1836,1818,1745
1889,1858,1747
1882,1857,1903
1826,1872,1824
1808,1829,1689
1879,1872,1727
1909,1849,1922
1851,1835,1915
1830,1858,1722
1857,1858,1719
1878,1905,1846
1841,1855,1843
1839,1839,1745
1877,1863,1728
1882,1865,1860
1840,1843,1867
1836,1840,1733
1878,1859,1712
1888,1881,1885
1839,1856,1913
1840,1845,1755
1904,1894,1762
1895,1921,1869
1853,1872,1873
1839,1921,1734
1901,1872,1729
1892,1856,1865
1846,1791,1872
1835,1854,1739
1889,1839,1777
1923,1877,1979
1845,1847,1842
1824,1840,1737
1914,1927,1774
1869,1850,1772
1796,1839,1823
1808,1833,1728
1893,1965,1756
1904,1915,1907
1854,1850,1874
1841,1840,1750
1888,1856,1740
1881,1871,1902
1857,1870,1913
1822,1901,1683
1862,1854,1701
1888,1874,1915
1855,1871,1904
1840,1869,1760
1901,1920,1743
1893,1970,1878
1842,1875,1901
1818,1838,1771
1870,1845,1787
1883,1889,1885
1847,1855,1920
1840,1871,1774
1895,1901,1717
1903,1898,1925
1853,1910,1927
1824,1875,1729
1886,1798,1737
1869,1834,1840
1836,1823,1893
1833,1839,1779
1870,1904,1750
1898,1931,1933
1857,1918,1915
1841,1866,1712
1878,1890,1715
1901,1887,1919
1846,1840,1938
1823,1846,1744
1886,1908,1702
1888,1904,1855
1840,1869,1872
1831,1885,1767
1883,1899,1761
1904,1931,1947
1860,1867,1951
1837,1818,1776
1856,1827,1724
1867,1904,1847
1839,1881,1887
1841,1904,1783
1902,1913,1821
1906,1904,1939
1855,1909,1895
1826,1904,1732
1873,1904,1713
1879,1903,1872
1815,1808,1936
1817,1887,1729
1886,1823,1721
1885,1824,1906
1842,1849,1937
1840,1803,1746
1884,1859,1735
1902,1912,1914
1861,1879,1915
1827,1862,1796
1877,1899,1743
1897,1886,1846
1845,1864,1891
1838,1886,1781
1895,1904,1760
1899,1878,1904
1840,1878,1933
1810,1867,1765
1863,1918,1744
1903,1927,1889
1844,1872,1886
1829,1893,1773
1871,1890,1751
1890,1867,1872
1845,1840,1905
1841,1854,1776
1887,1887,1751
1893,1882,1937
1826,1851,1901
1821,1847,1734
1872,1932,1726
1913,1927,1927
1850,1872,1922
1819,1840,1749
1867,1873,1765
1879,1884,1913
1845,1870,1870
1809,1838,1716
1871,1863,1767
1894,1921,2013
1846,1903,1918
1819,1827,1677
1873,1894,1716
1895,1904,1984
1846,1859,1902
1810,1858,1664
1856,1875,1692
1899,1870,1904
1851,1840,1928
1837,1845,1802
1898,1882,1791
1903,1901,1940
1824,1872,1915
1819,1875,1719
1856,1874,1703
1873,1866,1867
1851,1859,1885
1840,1871,1767
1890,1868,1761
1894,1888,1904
1856,1858,1962
1834,1825,1775
1853,1883,1695
1856,1878,1808
1837,1872,1904
1842,1877,1815
1886,1876,1787
1867,1862,1870
1842,1857,1917
1851,1870,1827
1883,1886,1793
1872,1875,1839
1845,1851,1917
1853,1913,1798
1877,1909,1723
1890,1899,1890
1821,1854,1872
1815,1842,1744
1869,1891,1786
1900,1885,1935
1859,1849,1923
1821,1898,1756
1856,1885,1718
1845,1870,1842
1824,1827,1907
1808,1858,1770
1867,1887,1750
1876,1918,1904
1831,1884,1907
1831,1845,1776
1872,1847,1793
1887,1866,1926
1837,1849,1878
1815,1879,1726
1863,1894,1741
1883,1891,1914
1831,1872,1919
1808,1857,1760
1837,1895,1733
1856,1894,1920
1831,1867,1918
1814,1853,1757
1853,1887,1722
1862,1866,1887
1831,1871,1947
1826,1869,1795
1857,1900,1727
1869,1898,1860
1819,1868,1911
1819,1861,1757
1866,1938,1749
1889,1971,1895
1855,1906,1946
1808,1891,1791
1853,1927,1727
1881,1946,1888
1861,1962,1937
1863,1965,1833
1857,1958,1763
1851,1931,1831
1837,1903,1906
1829,1905,1853
1885,1984,1747
1897,1973,1853
1855,1977,1904
1845,1974,1797
1874,1966,1754
1894,1931,1934
1855,1943,1961
1839,1982,1794
1893,2013,1748
1898,1957,1879
1847,1909,1904
1840,1950,1781
1877,1967,1761
1894,1969,1920
1849,1973,1934
1822,1981,1742
1888,2007,1761
1862,1973,1886
1826,1947,1911
1822,1905,1777
1879,1935,1802
1896,1990,1918
1843,1982,1893
1808,1949,1694
1861,1978,1713
1876,1954,1882
1840,1919,1919
1813,1904,1789
1872,1983,1787
1878,1957,1894
1838,1936,1893
1825,1958,1776
1888,1985,1747
1886,1963,1872
1825,1917,1881
1808,1888,1737
1873,1977,1735
1888,1979,1893
1842,1975,1951
1826,1920,1783
1859,1901,1712
1888,1935,1867
1867,1925,1920
1823,1936,1767
1852,1951,1712
1876,1950,1855
1838,1900,1959
1822,1937,1754
1869,1989,1690
1879,1975,1856
1847,1922,1909
1856,1908,1808
1909,1963,1801
1880,1936,1882
1809,1887,1836
1831,1930,1812
1905,1954,1762
1902,1945,1856
1863,1929,1872
1841,1917,1739
1847,1925,1703
1873,1953,1891
1851,1904,1951
1849,1916,1810
1885,1946,1732
1904,1949,1887
1859,1889,1921
1820,1882,1729
1861,1943,1713
1872,1952,1863
1835,1902,1909
1842,1904,1776
1892,1936,1759
1888,1926,1875
1839,1897,1943
1838,1906,1761
1877,1919,1728
1879,1908,1852
1842,1859,1886
1825,1891,1737
1871,1948,1708
1902,1917,1889
1870,1895,1920
1839,1939,1787
1872,1930,1697
1890,1882,1838
1850,1861,1928
1824,1894,1763
1868,1936,1776
1890,1945,1898
1854,1904,1814
1826,1885,1715
1877,1915,1725
1902,1906,1882
1850,1856,1921
1821,1869,1750
1866,1933,1726
1892,1936,1894
1840,1894,1906
1826,1847,1728
1872,1898,1741
1887,1904,1863
1840,1873,1891
1841,1885,1787
1897,1926,1755
1878,1906,1859
1847,1871,1946
1839,1835,1726
1886,1903,1738
1902,1933,1891
1867,1903,1968
1827,1860,1751
1858,1883,1723
1875,1895,1882
1858,1869,1909
1840,1872,1733
1872,1887,1693
1879,1922,1876
1849,1883,1903
1841,1859,1762
1882,1925,1730
1872,1882,1872
1840,1846,1863
1822,1857,1763
1882,1907,1714
1901,1885,1827
1870,1846,1920
1853,1838,1770
1876,1888,1740
1886,1911,1917
1833,1874,1873
1831,1895,1738
1887,1909,1855
1895,1878,1863
1855,1842,1854
1846,1838,1761
1889,1872,1733
1895,1874,1915
1857,1863,1923
1827,1823,1808
1899,1884,1747
1907,1883,1875
1826,1839,1918
1830,1841,1786
1877,1886,1776
1905,1904,1962
1861,1846,1955
1845,1853,1716
1889,1865,1659
1895,1885,1862
1853,1853,1909
1854,1818,1791
1872,1838,1759
1915,1861,1978
1856,1813,1910
1840,1869,1715
1901,1914,1712
1903,1863,1938
1846,1823,1920
1846,1807,1769
1881,1868,1733
1904,1883,1933
1856,1840,1903
1829,1840,1698
1869,1865,1707
1897,1856,1915
1859,1841,1987
1851,1842,1770
1894,1857,1749
1889,1872,1879
1840,1838,1904
1842,1806,1792
1872,1871,1719
1903,1895,1915
1857,1827,1927
1842,1818,1777
1885,1871,1685
1908,1853,1846
1865,1809,1921
1837,1795,1790
1881,1856,1760
1904,1867,1877
1861,1855,1909
1850,1853,1825
1889,1859,1744
1914,1843,1891
1881,1835,1917
1841,1833,1689
1863,1831,1680
1877,1862,1865
1857,1853,1920
1853,1842,1790
1895,1838,1753
1905,1849,1904
1842,1834,1873
1829,1818,1662
1890,1876,1722
1904,1867,1873
1873,1818,2000
1842,1830,1739
1891,1867,1711
1894,1863,1943
1869,1835,1920
1854,1843,1739
1856,1838,1694
1872,1833,1859
1850,1818,1914
1840,1811,1806
1877,1822,1739
1893,1847,1879
1841,1844,1887
1824,1836,1711
1879,1873,1712
1911,1872,1907
1859,1835,1905
1840,1815,1759
1871,1867,1728
1902,1870,1905
1870,1808,1953
1847,1819,1775
1866,1847,1691
1889,1811,1885
1860,1799,1966
1847,1883,1775
1892,1904,1713
1903,1867,1904
1839,1808,1872
1830,1811,1773
1877,1869,1744
1893,1841,1850
1863,1815,1899
1851,1823,1776
1871,1847,1658
1889,1859,1913
1870,1818,1946
1856,1829,1794
1897,1902,1727
1889,1867,1845
1867,1830,1842
1826,1821,1702
1890,1858,1740
1925,1873,1951
1871,1831,1927
1863,1826,1797
1903,1823,1742
1888,1845,1871
1841,1840,1891
1829,1813,1776
1885,1868,1755
1911,1877,1878
1858,1859,1891
1854,1853,1756
1882,1830,1729
1904,1841,1911
1869,1843,1962
1861,1855,1744
1893,1858,1728
1911,1834,1897
1856,1845,1897
1843,1882,1760
1900,1919,1767
1903,1888,1936
1859,1858,1890
1841,1849,1741
1889,1879,1751
1933,1886,1926
1871,1817,1902
1825,1837,1721
1875,1881,1760
1889,1859,1887
1846,1813,1919
1854,1847,1750
1898,1897,1776
1899,1886,1919
1842,1818,1899
1806,1869,1717
1901,1920,1735
1925,1904,1904
1821,1837,1890
1849,1828,1712
1909,1871,1738
1903,1852,1931
1872,1821,1923
1835,1841,1776
1890,1858,1776
1909,1873,1871
1865,1842,1915
1839,1839,1741
1887,1884,1697
1899,1883,1875
1853,1845,1925
1866,1843,1745
1885,1858,1747
1917,1866,1926
1872,1843,1945
1847,1872,1760
1906,1923,1751
1920,1878,1952
1815,1821,1888
1856,1833,1714
1865,1876,1686
1868,1883,1870
1876,1863,1927
1865,1840,1791
1899,1837,1776
1894,1840,1882
1835,1886,1894
1814,1889,1759
1886,1872,1708
1893,1851,1859
1858,1855,1875
1870,1893,1782
1913,1884,1767
1885,1871,1872
1855,1849,1921
1808,1833,1773
1902,1889,1727
1922,1915,1938
1870,1850,1904
1828,1822,1729
1872,1871,1718
1872,1885,1869
1865,1833,1902
1841,1817,1744
1872,1878,1728
1887,1898,1872
1849,1854,1923
1851,1838,1786
1887,1884,1758
1892,1918,1938
1872,1856,1936
1857,1840,1717
1866,1889,1750
1868,1901,1893
1828,1846,1869
1882,1823,1721
1937,1853,1730
1883,1888,1910
1866,1881,1959
1877,1837,1791
1898,1915,1782
1904,1897,1858
1862,1872,1886
1906,1889,1805
1882,1922,1749
1937,1936,1870
1906,1880,1888
1841,1872,1754
1895,1921,1757
1904,1910,1902
1872,1887,1954
1846,1856,1759
1905,1935,1749
1922,1975,1942
1872,1936,1948
1859,1893,1765
1921,1951,1776
1892,1914,1855
1858,1872,1886
1821,1869,1773
1847,1874,1827
1903,1922,1879
1874,1898,1867
1808,1887,1780
1898,1951,1803
1920,1934,1950
1827,1898,1873
1903,1903,1725
1904,1911,1773
1909,1947,1893
1861,1908,1920
1841,1883,1768
1911,1937,1785
1926,1932,1936
1878,1889,1963
1859,1878,1767
1889,1920,1712
1890,1931,1886
1867,1904,1931
1871,1881,1792
1903,1916,1774
1931,1935,1869
1871,1936,1870
1857,1936,1759
1957,1948,1806
1954,1941,1934
1874,1894,1917
1822,1872,1747
1904,1921,1744
1895,1938,1882
1873,1920,1917
1840,1941,1802
1887,1939,1739
1916,1895,1924
1842,1883,1950
1923,1926,1776
1914,1920,1792
1889,1922,1904
1815,1919,1879
1849,1898,1768
1894,1903,1761
1926,1911,1884
1854,1923,1915
1839,1899,1769
1829,1889,1798
1880,1904,1872
1853,1891,1874
1829,1904,1779
1957,1913,1749
1901,1891,1902
1860,1890,1888
1834,1904,1751
1921,1932,1773
1918,1900,1904
1871,1902,1934
1905,1899,1785
1856,1905,1733
1909,1913,1874
1866,1904,1899
1894,1900,1775
1888,1889,1747
1911,1899,1933
1857,1867,1889
1835,1863,1735
1865,1897,1719
1895,1914,1894
1903,1877,1936
1860,1878,1840
1905,1933,1819
1798,1921,1885
1846,1872,1867
1835,1853,1726
1904,1901,1735
1913,1885,1901
1852,1855,1929
1847,1859,1786
1901,1923,1737
1936,1918,1889
1877,1852,1934
1849,1858,1786
1898,1922,1779
1933,1952,1926
1856,1861,1904
1840,1825,1756
1909,1873,1725
1909,1877,1869
1878,1840,1913
1876,1855,1785
1907,1914,1772
1907,1883,1872
1863,1847,1892
1857,1863,1785
1903,1905,1761
1915,1904,1878
1853,1853,1863
1840,1840,1744
1910,1889,1754
1914,1891,1872
1848,1819,1890
1835,1777,1751
1917,1907,1791
1936,1914,1924
1872,1857,1898
1830,1840,1755
1887,1866,1731
1895,1872,1904
1845,1865,1887
1840,1847,1706
1888,1846,1695
