1886,1810,1712
1908,1833,1836
1894,1807,1879
1887,1781,1776
1962,1810,1680
1931,1823,1758
1923,1776,1867
2001,1776,1763
1947,1776,1680
1829,1762,1831
1778,1743,1923
1791,1757,1815
1865,1771,1735
1894,1767,1818
1826,1733,1875
1811,1725,1789
1877,1741,1727
2009,1725,1778
1981,1695,1807
1853,1691,1811
1809,1687,1808
1920,1716,1857
1855,1703,1873
1885,1688,1791
1923,1671,1739
1899,1678,1827
1873,1669,1872
1876,1621,1808
1912,1678,1743
1947,1805,1865
1866,1693,1893
1913,1581,1777
1897,1580,1740
1902,1666,1818
1883,1770,1892
1909,1872,1844
1974,1821,1808
1904,1763,1810
1840,1335,1810
1851,1353,1785
1920,1587,1696
1937,1652,1817
1932,1655,1951
1936,1770,1774
1842,1787,1719
1834,1889,1861
1859,1472,1851
1748,1495,1787
2017,2135,1931
2005,2175,1905
1868,1293,1691
1718,1252,1712
1787,1505,1770
1923,1724,1855
1944,1808,1915
1881,1904,1825
1856,1520,1673
1856,1574,1815
1891,1941,1954
1858,1870,1827
1879,1639,1711
1859,1467,1770
1840,1495,1857
1847,1622,1792
1905,1709,1697
1904,1655,1795
1915,1663,1890
1991,1696,1805
2025,1727,1693
1879,1680,1772
1759,1630,1841
1771,1642,1777
1838,1680,1769
1855,1681,1838
1824,1662,1882
1847,1669,1811
1968,1733,1818
1978,1744,1899
1840,1647,1876
1804,1602,1764
1870,1632,1712
1857,1600,1777
1828,1591,1826
1890,1574,1721
1904,1557,1661
1855,1572,1841
1823,1617,1911
1834,1611,1778
1872,1604,1708
1898,1584,1840
1861,1584,1901
1848,1573,1799
1901,1512,1757
1917,1581,1877
1840,1638,1835
1847,1616,1730
1913,1626,1717
1907,1607,1819
1847,1511,1968
1838,1610,1863
1904,1730,1771
1921,1611,1849
1931,1668,1945
1935,1474,1755
1906,1505,1766
1829,1719,1895
1808,1795,1939
1900,1685,1920
1881,1627,1717
1856,1535,1765
1874,1698,1911
1875,1599,1788
1869,1535,1718
1863,1648,1850
1856,1691,1930
1854,1763,1810
1924,2035,1792
1906,1712,1831
1844,1477,1856
1857,1569,1815
1888,1729,1746
1921,1779,1847
1969,1781,1981
1930,1773,1866
1829,1819,1712
1806,1697,1746
1807,1656,1836
1829,1659,1787
1886,1698,1734
1893,1746,1825
1866,1757,1889
1863,1761,1805
1894,1775,1779
1885,1808,1846
1856,1789,1911
1838,1770,1793
1886,1789,1729
1949,1799,1826
1922,1780,1885
1813,1771,1794
1815,1798,1754
1862,1804,1845
1862,1789,1910
1884,1782,1834
1904,1811,1767
1868,1790,1824
1835,1766,1882
1842,1760,1802
1883,1803,1744
1906,1775,1847
1876,1728,1904
1860,1743,1803
1888,1762,1744
1910,1776,1847
1875,1757,1904
1840,1727,1799
1873,1740,1735
1904,1759,1840
1872,1763,1914
1874,1747,1834
2007,1823,1837
2073,1840,1939
1872,1765,1907
1721,1677,1722
1775,1683,1652
1861,1730,1787
1886,1751,1903
1903,1825,1840
1882,1808,1750
1854,1728,1798
1833,1711,1871
1871,1777,1815
1916,1825,1763
1873,1729,1808
1827,1711,1846
1823,1728,1758
1885,1779,1718
1926,1803,1845
1884,1751,1911
1854,1777,1792
1871,1786,1711
1879,1791,1787
1858,1782,1867
1873,1793,1809
1910,1808,1740
1914,1814,1813
1874,1807,1881
1878,1792,1794
1904,1797,1717
1914,1799,1812
1891,1823,1890
1867,1833,1789
1920,1840,1725
1930,1840,1796
1857,1808,1851
1833,1799,1772
1887,1825,1695
1921,1853,1799
1903,1840,1875
1873,1827,1789
1902,1837,1700
1909,1847,1781
1887,1831,1870
1886,1855,1807
1915,1863,1725
1927,1873,1810
1905,1856,1879
1875,1840,1779
1898,1852,1698
1918,1866,1789
1899,1871,1863
1883,1871,1783
1911,1883,1722
1923,1872,1807
1895,1862,1875
1882,1860,1787
1918,1863,1719
1955,1931,1833
2007,1927,1939
1944,1874,1808
1856,1907,1665
1857,1799,1742
1869,1788,1840
1881,1859,1777
1915,1859,1698
1923,1868,1776
1891,1844,1853
1888,1871,1777
1933,1912,1725
1939,1853,1793
1916,1877,1851
1898,1868,1771
1927,1861,1691
1939,1855,1754
1905,1879,1873
1895,1855,1807
1922,1841,1726
1941,1894,1796
1905,1881,1867
1888,1869,1781
1906,1887,1708
1932,1933,1799
1904,1899,1867
1887,1891,1776
1917,1909,1696
1946,1931,1792
1904,1894,1867
1871,1853,1772
1899,1888,1698
1927,1916,1787
1895,1914,1870
1879,1838,1776
1902,1895,1698
1921,1923,1787
1914,1967,1873
1889,1851,1776
1904,1875,1680
1920,1879,1751
1888,1904,1819
1885,1954,1738
1920,1981,1655
1907,1856,1681
1872,1795,1744
1861,1855,1669
1902,1887,1596
1923,1933,1678
1892,1963,1733
1869,1906,1638
1915,1913,1560
1936,1907,1651
1885,1891,1715
1859,1933,1611
1884,1977,1531
1906,1931,1621
1874,1885,1688
1867,1917,1601
1904,1923,1571
1908,1922,1655
1885,1937,1713
1865,1894,1622
1895,1968,1535
1917,1967,1648
1873,1975,1733
1857,1939,1648
1886,1905,1583
1905,1950,1658
1874,1931,1725
1861,1955,1648
1891,1926,1584
1913,1959,1671
1873,1958,1744
1867,1965,1670
1892,1968,1604
1911,1981,1685
1878,1968,1758
1866,1981,1680
1898,1995,1613
1908,1972,1693
1873,1964,1773
1855,1951,1680
1872,1965,1613
1901,1988,1701
1875,1976,1781
1856,1968,1703
1890,1984,1641
1910,1979,1733
1881,1990,1810
1862,2000,1726
1885,1964,1648
1904,1973,1730
1878,1919,1814
1872,1999,1741
1889,2027,1670
1908,1930,1763
1881,1997,1836
1861,1966,1733
1894,1984,1667
1910,2015,1761
1886,2005,1846
1872,2015,1773
1885,2018,1681
1904,2016,1758
1879,1983,1838
1866,1970,1774
1886,1974,1691
1894,1968,1775
1872,1968,1869
1867,2017,1786
1891,2017,1680
1904,2027,1766
1870,2014,1853
1850,2013,1786
1873,2030,1714
1899,1977,1789
1857,2000,1866
1857,1970,1805
1894,1990,1734
1894,1968,1807
1856,1959,1870
1843,2023,1805
1875,1939,1735
1891,1970,1821
1859,2005,1887
1856,1959,1813
1877,1985,1739
1898,2054,1827
1870,2035,1907
1846,1926,1814
1872,1961,1746
1886,1981,1834
1861,1994,1918
1851,1959,1838
1879,1965,1755
1891,2056,1840
1866,1954,1920
1855,1968,1837
1884,1968,1766
1897,1987,1854
1872,2002,1936
1845,1970,1844
1876,1961,1766
1893,1968,1857
1862,1947,1937
1839,1991,1850
1869,1984,1774
1879,2016,1851
1851,2022,1935
1823,1943,1853
1858,2011,1776
1874,2059,1872
1854,1968,1951
1834,1948,1865
1862,1931,1784
1878,1987,1856
1856,1996,1951
1840,1929,1869
1861,2027,1785
1873,1951,1859
1840,1927,1938
1835,1891,1870
1872,2001,1795
1879,1958,1872
1854,1946,1950
1830,1949,1869
1851,1948,1783
1883,1972,1882
1855,1965,1978
1835,1919,1881
1857,1923,1789
1866,1949,1870
1847,1947,1964
1838,1927,1883
1872,1936,1805
1882,1952,1879
1850,1935,1962
1827,1903,1872
1858,1919,1791
1879,1958,1882
1855,1931,1969
1841,1922,1885
1856,1941,1799
1863,1951,1877
1842,1936,1963
1839,1909,1886
1872,1926,1814
1877,1934,1879
1841,1906,1967
1841,1899,1899
1869,1946,1817
1882,1941,1887
1856,1905,1968
1839,1879,1886
1854,1904,1805
1872,1927,1876
1851,1911,1961
1839,1904,1889
1857,1926,1807
1879,1939,1879
1847,1919,1967
1829,1905,1882
1855,1918,1795
1875,1925,1886
1853,1920,1974
1837,1921,1887
1855,1939,1806
1872,1915,1877
1845,1887,1962
1841,1890,1894
1872,1913,1805
1877,1923,1878
1843,1915,1967
1826,1906,1882
1862,1920,1806
1885,1930,1891
1853,1918,1969
1831,1911,1894
1854,1904,1808
1872,1940,1883
1851,1924,1968
1834,1868,1888
1851,1869,1806
1868,1906,1869
1840,1903,1952
1823,1889,1897
1853,1891,1813
1867,1920,1877
1847,1911,1959
1827,1899,1877
1849,1889,1797
1860,1915,1882
1839,1910,1967
1825,1886,1887
1853,1878,1799
1873,1909,1875
1847,1917,1968
1829,1879,1891
1859,1889,1808
1873,1911,1887
1851,1910,1969
1817,1863,1881
1842,1871,1791
1872,1905,1872
1847,1904,1968
1828,1883,1890
1851,1882,1807
1870,1906,1873
1845,1893,1963
1829,1872,1888
1851,1894,1807
1873,1919,1874
1852,1905,1962
1828,1893,1882
1851,1904,1795
1867,1886,1871
1850,1871,1962
1829,1869,1883
1853,1897,1807
1872,1914,1886
1844,1895,1964
1822,1872,1870
1845,1881,1782
1874,1910,1871
1850,1870,1950
1828,1858,1872
1857,1885,1781
1871,1907,1867
1847,1895,1953
1830,1873,1884
1855,1920,1795
1869,1927,1872
1852,1871,1952
1825,1841,1875
1856,1869,1794
1873,1915,1870
1841,1901,1953
1815,1871,1871
1841,1886,1782
1871,1904,1862
1851,1889,1951
1837,1898,1879
1856,1936,1787
1863,1895,1852
1837,1867,1936
1817,1862,1870
1853,1882,1783
1874,1905,1860
1850,1889,1937
1822,1871,1857
1852,1891,1778
1879,1908,1865
1851,1897,1950
1835,1873,1873
1854,1872,1775
1867,1900,1840
1851,1895,1933
1831,1873,1863
1855,1873,1780
1883,1893,1855
1853,1879,1942
1829,1871,1870
1840,1889,1770
1859,1900,1841
1849,1878,1945
1826,1871,1876
1850,1877,1776
1865,1911,1842
1838,1903,1936
1826,1862,1860
1851,1858,1778
1872,1885,1843
1846,1872,1970
1823,1852,1855
1839,1881,1753
1863,1901,1833
1850,1907,1919
1830,1862,1856
1840,1857,1754
1872,1885,1815
1840,1872,1933
1818,1862,1826
1849,1885,1747
1869,1893,1789
1847,1883,1911
1827,1850,1842
1844,1851,1748
1862,1895,1799
1846,1891,1955
1839,1857,1866
1857,1885,1721
1870,1909,1859
1841,1843,1923
1823,1842,1799
1856,1876,1744
1867,1891,1808
1851,1872,1893
1840,1872,1829
1861,1872,1757
1875,1879,1819
1850,1899,1882
1835,1827,1796
1856,1850,1702
1879,1881,1771
1847,1874,1859
1836,1850,1813
1853,1883,1661
1877,1899,1765
1855,1882,1871
1833,1856,1782
1856,1865,1680
1885,1902,1786
1870,1919,1858
1840,1903,1766
1849,1840,1708
1868,1824,1757
1851,1869,1831
1840,1883,1758
1843,1855,1680
1875,1872,1772
1857,1872,1856
1841,1873,1788
1869,1895,1694
1893,1903,1771
1853,1840,1855
1827,1830,1786
1866,1856,1689
1885,1885,1757
1840,1898,1815
1856,1925,1789
1886,1901,1725
1869,1840,1773
1813,1866,1840
1804,1842,1724
1852,1867,1690
1881,1905,1765
1856,1880,1890
1837,1846,1789
1855,1879,1680
1900,1955,1823
1904,1913,1919
1855,1872,1805
1856,1884,1726
1890,1899,1776
1830,1847,1857
1774,1815,1801
1805,1871,1685
1907,2055,1811
1871,1930,1872
1886,1831,1776
1901,2011,1745
1767,1836,1776
1730,1727,1862
1788,1808,1811
1841,1872,1733
1841,1876,1773
1829,1897,1875
1869,1917,1854
1938,1956,1795
1904,2000,1747
1782,1947,1859
1730,1751,1733
1898,1866,1830
2112,2061,2032
1886,1954,1897
1611,1751,1738
1649,1798,1621
1777,1829,1707
1813,1873,1888
1862,1938,1875
1821,1922,1667
1829,1901,1728
1937,1989,1997
1939,1969,1910
1681,1826,1604
1711,1894,1699
1871,1982,1947
1831,1925,1834
1730,1873,1670
1727,1873,1689
1855,1947,1872
1775,1915,1807
1737,1947,1711
1783,1998,1775
1719,1970,1802
1714,2004,1763
1767,2032,1665
1808,2037,1837
1779,2029,1904
1771,2064,1855
1828,2106,1738
1872,2167,1827
1759,2093,1863
1734,2043,1797
1771,2023,1702
1778,2077,1744
1766,2094,1833
1744,2064,1795
1760,2067,1716
1835,2112,1782
1819,2103,1877
1770,2054,1774
1858,2056,1682
1857,2069,1715
1743,2059,1759
1687,2032,1650
1751,2058,1510
1868,2089,1749
1872,2055,1792
1747,1995,1616
1717,1998,1463
1754,2032,1557
1762,2031,1665
1777,2017,1616
1840,2020,1495
1863,2033,1570
1824,2022,1671
1761,1983,1566
1767,1982,1441
1808,2000,1487
1833,2003,1687
1821,1970,1583
1826,1968,1430
1808,1984,1506
1786,1968,1596
1762,1936,1518
1811,1952,1431
1856,1971,1535
1823,1936,1631
1797,1935,1579
1814,1940,1470
1822,1933,1535
1808,1915,1682
1786,1904,1591
1814,1909,1453
1841,1925,1591
1833,1914,1648
1810,1893,1605
1840,1894,1518
1883,1915,1587
1838,1883,1671
1781,1852,1598
1806,1866,1490
1849,1895,1574
1893,1907,1749
1847,1855,1659
1818,1824,1503
1826,1858,1558
1793,1857,1664
1810,1838,1651
1846,1857,1535
1840,1855,1586
1835,1845,1712
1825,1827,1680
1841,1836,1584
1859,1852,1655
1842,1839,1721
1829,1833,1669
1853,1838,1574
1863,1851,1648
1833,1833,1775
1841,1811,1691
1876,1839,1588
1912,1840,1712
1870,1820,1791
1927,1818,1648
1799,1825,1613
1810,1827,1729
1899,1845,1833
1929,1840,1743
1759,1798,1562
1775,1799,1638
1807,1803,1820
1875,1791,1773
1850,1823,1652
1859,1840,1677
1806,1805,1787
1823,1792,1746
1861,1808,1673
1901,1850,1719
1878,1816,1815
1811,1802,1776
1790,1808,1713
1867,1833,1770
1895,1819,1870
1838,1782,1746
1846,1805,1612
1876,1810,1731
1847,1811,1901
1840,1770,1766
1823,1792,1730
1849,1826,1776
1883,1822,1811
1847,1803,1785
1819,1805,1752
1826,1818,1783
1835,1795,1841
1810,1785,1797
1854,1829,1791
1835,1833,1850
1831,1808,1841
1767,1787,1738
1861,1815,1771
1922,1825,1842
1808,1804,1857
1743,1792,1826
1817,1813,1718
1840,1817,1801
1904,1825,1954
1808,1790,1877
1817,1808,1749
1870,1833,1854
1823,1813,1942
1746,1792,1827
1781,1771,1727
1843,1808,1822
1849,1840,1993
1819,1799,1858
1797,1808,1755
1831,1823,1815
1840,1805,1946
1829,1808,1909
1886,1803,1803
1842,1804,1808
1765,1771,1894
1777,1767,1870
1821,1793,1821
1856,1821,1866
1799,1821,1947
1840,1799,1952
1810,1817,1767
1838,1819,1775
1834,1801,1953
1858,1811,1977
1843,1794,1795
1832,1782,1829
1842,1794,1947
1776,1770,1888
1778,1781,1799
1832,1813,1903
1792,1808,1968
1840,1808,1891
1867,1813,1824
1872,1802,1881
1808,1806,1967
1810,1811,1938
1814,1789,1802
1838,1794,1900
1810,1769,1942
1813,1785,1867
1896,1811,1882
1808,1773,1934
1796,1783,1936
1854,1776,1871
1879,1801,1823
1850,1813,1892
1786,1787,1961
1740,1771,1907
1825,1770,1806
1843,1790,1915
1748,1808,2060
1829,1819,1971
1855,1809,1819
1854,1792,1856
1793,1771,1935
1774,1762,1911
1863,1795,1834
1899,1808,1895
1899,1807,2046
1785,1761,1919
1811,1769,1779
1856,1787,1862
1873,1823,2064
1847,1824,2000
1855,1828,1859
1816,1776,1814
1817,1759,1891
1814,1763,1935
1870,1824,1902
1855,1802,1872
1834,1787,1974
1808,1760,1971
1847,1782,1901
1914,1814,1809
1835,1808,1933
1745,1788,1929
1758,1807,1859
1927,1858,1894
1876,1808,2003
1899,1790,2019
1891,1810,1840
1797,1818,1823
1857,1808,1998
1778,1781,1954
1793,1782,1781
1919,1811,1873
1839,1811,1937
1798,1783,1880
1854,1843,1874
1847,1861,1928
1861,1810,2023
1732,1738,1893
1829,1783,1815
1897,1826,1892
1851,1812,1970
1805,1811,1978
1843,1863,1914
1853,1845,1909
1797,1802,1904
1787,1804,1870
1796,1811,1825
1873,1847,1921
1868,1847,2094
1794,1777,1974
1793,1783,1819
1781,1808,1808
1795,1815,1904
1781,1806,1883
1781,1840,1833
1852,1872,1915
1840,1855,1981
1818,1820,1931
1851,1821,1843
1825,1838,1921
1709,1802,1984
1712,1778,1920
1790,1827,1823
1745,1855,1943
1813,1870,2032
1781,1795,1851
1755,1806,1770
1799,1837,1871
1805,1835,1968
1760,1835,1904
1779,1825,1850
1783,1818,1883
1783,1856,1995
1789,1854,1915
1818,1817,1823
1833,1835,1825
1772,1855,1957
1745,1840,1922
1776,1840,1870
1869,1867,1921
1779,1805,1968
1710,1797,1891
1712,1819,1840
1774,1857,1831
1791,1834,1967
1797,1798,1967
1803,1829,1850
1789,1858,1871
1787,1870,1961
1757,1836,1867
1859,1858,1814
1844,1872,1879
1758,1840,1974
1744,1817,1925
1810,1840,1922
1853,1857,1932
1901,1904,2005
1730,1808,1855
1643,1773,1698
1736,1838,1865
1781,1840,1959
1781,1835,1898
1794,1840,1809
1819,1857,1835
1795,1841,1968
1828,1854,2015
1823,1853,1830
1772,1856,1856
1805,1837,1995
1767,1840,1922
1743,1845,1794
1823,1878,1858
1829,1858,1989
1787,1856,1914
1726,1840,1757
1751,1840,1835
1755,1846,1957
1761,1841,1917
1797,1844,1809
1827,1892,1853
1810,1890,1936
1783,1877,1965
1830,1861,1839
1749,1808,1820
1734,1822,1947
1774,1869,1968
1792,1870,1791
1808,1874,1823
1781,1850,1909
1762,1813,1887
1781,1837,1842
1819,1913,1821
1814,1872,1955
1735,1842,1938
1744,1837,1802
1785,1866,1831
1791,1879,1923
1771,1829,1880
1787,1833,1829
1798,1879,1856
1811,1898,1974
1786,1840,1939
1809,1857,1818
1818,1883,1829
1792,1867,1959
1773,1846,1923
1824,1876,1786
1872,1891,1792
1805,1863,1904
1749,1852,1875
1769,1861,1785
1794,1842,1852
1808,1858,1946
1759,1872,1937
1744,1869,1803
1760,1840,1796
1774,1854,1902
1769,1873,1869
1807,1863,1825
1838,1874,1899
1779,1872,1937
1769,1840,1841
1830,1872,1779
1851,1899,1888
1785,1833,1920
1810,1819,1930
1821,1817,1774
1759,1882,1747
1727,1863,1857
1758,1851,1883
1791,1842,1836
1795,1852,1878
1777,1875,1921
1747,1865,1835
1787,1882,1730
1853,1921,1869
1891,1887,2043
1855,1807,1898
1744,1801,1667
1755,1842,1744
1755,1840,1903
1783,1858,1932
1851,1860,1801
1880,1873,1810
1830,1879,1904
1775,1875,1843
1780,1866,1763
1823,1851,1842
1807,1823,1957
1761,1840,1851
1810,1870,1802
1867,1871,1835
1840,1897,1913
1795,1874,1870
1801,1854,1775
1857,1883,1861
1859,1875,1929
1822,1873,1866
1820,1878,1773
1858,1872,1856
1818,1839,1885
1807,1847,1853
1835,1869,1746
1899,1874,1834
1843,1853,1971
1765,1853,1851
1793,1871,1763
1837,1883,1828
1839,1881,1936
1827,1843,1919
1843,1872,1775
1871,1889,1822
1868,1907,1961
1833,1850,1866
1834,1838,1757
1905,1873,1872
1930,1911,2045
1874,1904,1898
1826,1858,1735
1869,1842,1778
1830,1881,1952
1807,1877,1879
1913,1903,1751
1931,1863,1845
1804,1861,1911
1777,1904,1877
1853,1855,1858
1943,1889,1825
1863,1903,1899
1797,1839,1841
1837,1827,1786
1894,1887,1878
1898,1856,1982
1851,1838,1836
1846,1869,1750
1879,1862,1886
1863,1847,1932
1882,1856,1860
1967,1904,1791
1942,1895,1840
1797,1849,1904
1808,1857,1909
1846,1855,1791
1863,1886,1766
1857,1890,1875
1857,1896,1878
1904,1878,1835
1958,1945,1889
1887,1872,1931
1807,1833,1856
1833,1850,1744
1880,1873,1801
1893,1886,1987
1867,1872,1841
1870,1903,1768
1907,1894,1889
1919,1887,1957
1904,1842,1825
1846,1869,1727
1863,1920,1820
1874,1888,1954
1872,1874,1873
1865,1893,1754
1871,1872,1820
1872,1883,1966
1856,1847,1867
1872,1870,1728
1913,1946,1785
1915,1885,1999
1893,1863,1934
1887,1879,1747
1872,1885,1783
1872,1875,1889
1886,1882,1869
1902,1879,1771
1923,1888,1857
1933,1901,1917
1840,1834,1875
1840,1852,1758
1881,1907,1776
1897,1906,1883
1853,1875,1872
1895,1920,1785
1923,1955,1793
1879,1899,1925
1872,1842,1933
1931,1843,1872
1914,1906,1742
1895,1861,1822
1871,1843,1871
1885,1877,1811
1915,1898,1802
1879,1842,1879
1861,1904,1810
1897,1881,1728
1942,1877,1869
1919,1920,1932
1898,1840,1835
1935,1849,1714
1905,1889,1827
1856,1894,1962
1833,1856,1902
1871,1851,1693
1915,1867,1744
1901,1891,1872
1869,1870,1895
1892,1876,1803
1926,1904,1777
1897,1851,1871
1898,1855,1890
1904,1893,1776
1922,1890,1792
1897,1877,1872
1875,1840,1872
1925,1909,1819
1938,1838,1817
1904,1811,1891
1879,1810,1857
1883,1904,1758
1891,1808,1744
1885,1890,1840
1890,1853,1873
1909,1893,1808
1936,1910,1808
1930,1888,1923
1872,1862,1837
1866,1872,1703
1915,1875,1770
1923,1883,1947
1875,1856,1867
1885,1841,1730
1915,1872,1697
1942,1797,1913
1872,1918,1872
1898,1872,1758
1888,1836,1751
1855,1921,1904
1871,1840,1932
1926,1861,1818
1939,1833,1776
1892,1865,1849
1887,1866,1862
1879,1835,1782
1888,1867,1753
1899,1882,1855
1904,1834,1879
1897,1870,1822
1901,1877,1746
1901,1863,1871
1877,1833,1821
1904,1860,1751
1935,1891,1813
1918,1907,1941
1894,1869,1870
1922,1876,1725
1912,1883,1759
1903,1879,1889
1871,1879,1855
1882,1837,1728
1932,1877,1762
1925,1883,1919
1905,1862,1879
1879,1817,1744
1877,1856,1755
1879,1855,1909
1920,1891,1920
1899,1872,1744
1899,1871,1819
1882,1865,1903
1872,1851,1799
1914,1855,1758
1949,1942,1827
1925,1855,1865
1846,1808,1852
1847,1843,1744
1888,1852,1739
1903,1874,1871
1877,1895,1866
1876,1872,1777
1924,1869,1819
1915,1936,1920
1862,1833,1883
1875,1898,1775
1936,1791,1797
1921,1851,1869
1901,1847,1839
1874,1855,1726
1870,1890,1771
1882,1872,1889
1901,1845,1897
1901,1860,1749
1923,1875,1769
1916,1872,1904
1904,1870,1884
1899,1846,1734
1910,1861,1780
1901,1875,1931
1865,1856,1873
1899,1872,1753
1920,1894,1789
1919,1926,1952
1858,1841,1843
1866,1808,1724
1923,1885,1771
1929,1894,1949
1883,1851,1869
1873,1846,1735
1908,1877,1831
1904,1886,1908
1882,1860,1813
1924,1859,1744
1946,1893,1798
1899,1871,1895
1865,1831,1808
1861,1844,1712
1917,1883,1781
1929,1877,1897
1854,1845,1871
1876,1845,1785
1899,1904,1782
1901,1885,1929
1898,1840,1872
1893,1846,1730
1904,1854,1771
1880,1872,1904
1874,1851,1883
1888,1841,1754
1939,1883,1797
1927,1888,1876
1867,1824,1797
1861,1853,1744
1926,1882,1825
1911,1872,1887
1835,1839,1835
1870,1856,1795
1925,1867,1833
1919,1871,1908
1892,1838,1854
1866,1869,1732
1898,1915,1771
1890,1873,1876
1875,1837,1886
1886,1847,1790
1904,1888,1805
1902,1846,1874
1859,1820,1856
1872,1840,1761
1918,1887,1789
1930,1901,1936
1921,1882,1941
1890,1867,1754
1903,1877,1782
1882,1867,1921
1859,1847,1846
1872,1852,1698
1889,1869,1737
1875,1870,1911
1884,1873,1898
1902,1859,1734
1905,1854,1715
1877,1856,1891
1870,1839,1877
1873,1834,1744
1936,1891,1815
1914,1863,1905
1891,1835,1853
1885,1872,1812
1886,1901,1779
1867,1871,1854
1854,1824,1840
1881,1840,1773
1915,1873,1865
1915,1863,1931
1883,1841,1836
1881,1855,1741
1863,1860,1754
1861,1863,1867
1863,1862,1856
1906,1891,1817
1915,1842,1801
1873,1833,1850
1839,1826,1822
1859,1850,1757
1894,1873,1793
1872,1862,1873
1863,1824,1906
1888,1840,1779
1915,1878,1748
1922,1893,1921
1847,1867,1872
1850,1858,1776
1908,1853,1837
1887,1857,1891
1859,1882,1812
1853,1860,1697
1895,1842,1759
1895,1873,1911
1848,1824,1846
1863,1824,1773
1875,1840,1770
1862,1840,1851
1836,1839,1841
1862,1853,1771
1910,1894,1818
1891,1867,1921
1863,1867,1862
1877,1887,1734
1921,1892,1851
1898,1856,1981
1847,1804,1776
1821,1780,1642
1856,1845,1747
1858,1893,1920
1850,1866,1885
1857,1851,1772
1888,1857,1773
1904,1873,1885
1826,1851,1855
1844,1869,1744
1867,1863,1776
1883,1872,1936
1855,1840,1870
1856,1835,1707
1885,1863,1753
1872,1874,1888
1847,1831,1883
1898,1823,1743
1910,1847,1776
1855,1875,1894
1842,1874,1879
1851,1841,1759
1920,1869,1815
1904,1854,1888
1903,1870,1879
1842,1835,1738
1853,1843,1733
1843,1855,1874
1819,1838,1887
1865,1862,1798
1914,1893,1856
1872,1879,1893
1818,1830,1794
1846,1831,1739
1898,1866,1744
1862,1847,1906
1841,1827,1845
1855,1861,1731
1904,1883,1805
1887,1883,1936
1845,1833,1871
1841,1824,1695
1875,1871,1734
1857,1841,1853
1831,1825,1858
1850,1850,1698
1889,1869,1817
1925,1897,2020
1863,1867,1881
1825,1818,1664
1879,1854,1733
1891,1865,1917
1827,1854,1872
1842,1854,1744
1879,1849,1787
1873,1856,1898
1871,1840,1872
1872,1851,1776
1887,1871,1794
1890,1872,1910
1853,1831,1951
1840,1825,1687
1875,1856,1728
1894,1861,1879
1852,1824,1834
1869,1862,1780
1878,1885,1759
1863,1881,1857
1828,1832,1895
1872,1863,1805
1915,1869,1777
1872,1822,1841
1837,1840,1837
1851,1854,1759
1879,1857,1822
1894,1842,1943
1853,1857,1904
1895,1872,1825
1902,1875,1822
1839,1855,1850
1813,1847,1826
1838,1870,1721
1879,1869,1770
1874,1863,1850
1825,1798,1903
1843,1825,1723
1891,1871,1793
1858,1862,1894
1836,1856,1882
1857,1862,1778
1873,1863,1814
1856,1857,1918
1867,1856,1846
1861,1886,1763
1887,1903,1820
1858,1868,1913
1839,1821,1901
1878,1843,1758
1861,1873,1762
1839,1865,1859
1836,1840,1830
1845,1863,1808
1873,1887,1806
1879,1851,1951
1859,1828,1837
1861,1854,1700
1901,1903,1782
1878,1881,1911
1815,1810,1872
1849,1841,1747
1905,1892,1835
1872,1883,1913
1830,1870,1839
1834,1840,1747
1885,1859,1841
1861,1872,1917
1837,1873,1871
1856,1856,1794
1889,1851,1849
1879,1857,1907
1849,1859,1829
1851,1860,1775
1878,1868,1858
1883,1893,1925
1834,1872,1859
1840,1874,1758
1895,1872,1786
1881,1839,1870
1873,1856,1904
1830,1840,1759
1871,1867,1831
1887,1864,1937
1824,1853,1863
1843,1865,1797
1874,1846,1793
1857,1861,1837
1835,1852,1848
1840,1877,1776
1874,1903,1791
1856,1886,1937
1857,1861,1903
1879,1869,1742
1911,1901,1803
1874,1853,1951
1796,1819,1840
1808,1842,1655
1863,1873,1754
1881,1859,1957
1877,1846,1883
1877,1869,1732
1872,1925,1787
1831,1891,1936
1791,1837,1810
1827,1835,1787
1893,1878,1774
1885,1894,1892
1871,1851,1938
1824,1827,1691
1858,1884,1773
1886,1894,1907
1849,1849,1940
1807,1830,1725
1853,1883,1776
1878,1862,1850
1829,1851,1859
1829,1867,1711
1871,1875,1814
1872,1872,1915
1856,1866,1895
1852,1872,1793
1858,1870,1748
1874,1872,1818
1828,1853,1878
1827,1871,1757
1872,1886,1792
1875,1876,1897
1840,1843,1905
1840,1840,1761
1882,1881,1813
1881,1879,1903
1834,1825,1846
1845,1817,1763
1856,1853,1745
1851,1867,1888
1823,1867,1851
1870,1872,1717
1861,1867,1800
1840,1856,1968
1825,1830,1867
1855,1866,1761
1919,1886,1795
1879,1869,1843
1801,1863,1892
1801,1859,1793
1838,1856,1741
1837,1857,1859
1808,1866,1863
1873,1876,1748
1881,1865,1771
1855,1878,1899
1821,1848,1871
1825,1842,1738
1857,1872,1766
1866,1892,1887
1870,1858,1916
1867,1859,1808
1877,1905,1764
1823,1882,1839
1808,1833,1811
1830,1840,1743
1872,1888,1807
1873,1881,1959
1867,1850,1893
1853,1860,1756
1872,1872,1751
1855,1879,1922
1838,1853,1899
1872,1853,1744
1881,1884,1744
1887,1902,1911
1842,1877,1900
1808,1827,1757
1865,1868,1808
1876,1895,1923
1858,1862,1910
1829,1829,1722
1847,1872,1770
1891,1891,1872
1862,1877,1853
1817,1899,1774
1871,1866,1819
1872,1867,1966
1866,1858,1885
1831,1853,1739
1882,1875,1769
1840,1872,1877
1839,1845,1872
1860,1835,1787
1887,1903,1792
1862,1920,1909
1872,1863,1951
1911,1861,1840
1904,1888,1765
1858,1879,1845
1853,1847,1867
1869,1869,1786
1901,1905,1808
1916,1882,1899
1853,1840,1870
1793,1839,1751
1831,1868,1787
1882,1891,1918
1808,1854,1903
1833,1862,1766
1931,1919,1821
1885,1892,1935
1797,1841,1898
1864,1831,1785
1903,1869,1805
1822,1898,1887
1827,1879,1853
1794,1856,1727
1935,1887,1787
1883,1872,1895
1820,1872,1904
1856,1872,1793
1888,1881,1782
1886,1907,1922
1840,1857,1922
1853,1841,1803
