0,0,971
0,0,865
0,0,1136
0,0,1664
0,0,2754
0,80,3649
313,799,816
1127,1327,1246
1535,1535,1707
1697,1709,1791
1845,1904,1841
2026,2090,1827
2192,2218,1824
2342,2321,1808
2479,2447,1813
2615,2580,1795
2709,2681,1823
2736,2715,1823
2738,2742,1830
2747,2783,1925
2651,2701,2139
2621,2679,1247
2698,2766,1609
2752,2835,2043
2753,2842,1843
2759,2863,1680
2795,2917,2247
2761,2899,2135
2732,2881,1779
2704,2846,1407
2755,2919,1433
2815,2990,1771
2835,3011,1881
2850,3029,1865
2880,3091,1844
2901,3141,1814
2903,3152,1822
2914,3160,1829
2934,3200,1826
2946,3242,1805
2949,3232,1800
2940,3233,1826
2960,3265,1823
2963,3297,1856
2947,3276,1827
2948,3269,1813
2961,3295,1844
2966,3322,1824
2963,3302,1815
2957,3279,1841
2973,3312,1856
2965,3339,1862
2947,3303,1841
2942,3279,1824
2960,3305,1831
2960,3322,1855
2941,3285,1840
2917,3245,1819
2926,3263,1869
2917,3277,1807
2905,3248,1763
2895,3216,1666
2898,3229,1686
2899,3239,1666
2895,3217,1633
2880,3167,1535
2879,3170,1535
2870,3184,1535
2855,3152,1505
2848,3127,1449
2846,3132,1451
2838,3131,1469
2828,3111,1425
2826,3089,1375
2831,3095,1360
2816,3083,1392
2811,3043,1326
2786,3017,1282
2795,3023,1313
2796,3027,1349
2775,2990,1312
2752,2950,1145
2755,2947,1193
2759,2959,1335
2750,2929,1206
2725,2901,1216
2727,2898,1203
2724,2895,1268
2638,2800,1735
2604,2752,2256
2559,2698,1492
2557,2673,1595
2559,2670,1808
2587,2675,1869
2618,2701,1853
2615,2697,1834
2596,2668,1825
2593,2642,1831
2609,2667,1799
2610,2675,1794
2606,2646,1833
2559,2607,1831
2556,2599,1861
2552,2603,1777
2542,2559,1808
2532,2545,1804
2555,2591,1820
2501,2528,1806
2479,2484,1794
2481,2470,1802
2507,2495,1812
2511,2503,1803
2489,2473,1842
2469,2445,1844
2480,2453,1866
2484,2468,1803
2466,2437,1839
2463,2423,1826
2461,2427,1827
2471,2427,1826
2459,2399,1810
2448,2384,1819
2453,2393,1842
2448,2399,1869
2408,2336,1787
2379,2297,1682
2416,2333,1759
2415,2349,1798
2385,2314,1748
2365,2281,1683
2382,2289,1710
2378,2293,1735
2371,2265,1758
2355,2256,1655
2358,2257,1661
2347,2256,1657
2332,2226,1674
2320,2201,1576
2335,2223,1613
2321,2224,1719
2301,2192,1633
2281,2166,1566
2291,2175,1658
2287,2162,1606
2272,2146,1607
2287,2143,1520
2267,2128,1472
2253,2118,1600
2238,2090,1535
2221,2064,1506
2230,2087,1535
2234,2096,1575
2222,2064,1562
2208,2043,1503
2218,2061,1535
2214,2042,1535
2196,2021,1505
2178,1999,1455
2181,2017,1485
2185,2021,1526
2171,2007,1503
2153,1978,1454
2161,1995,1476
2175,2012,1520
2128,1965,1473
2102,1939,1431
2171,2000,1492
2137,1974,1499
2078,1924,1457
2075,1919,1418
2103,1951,1443
2114,1961,1494
2097,1936,1469
2085,1901,1400
2094,1914,1441
2096,1926,1493
2085,1906,1475
2075,1883,1435
2082,1898,1466
2089,1917,1511
2094,1906,1499
2041,1856,1425
2032,1878,1446
2063,1914,1504
2020,1849,1462
1988,1809,1403
2029,1842,1446
2085,1872,1489
1999,1843,1470
1983,1819,1430
2009,1840,1460
1994,1852,1502
2001,1831,1493
2014,1815,1457
2001,1819,1474
1995,1826,1509
1986,1802,1488
1931,1792,1453
2011,1808,1473
1968,1809,1511
2000,1791,1488
2000,1778,1467
1991,1810,1500
1989,1832,1535
1945,1746,1459
1913,1738,1426
1936,1762,1472
1969,1795,1535
1947,1770,1520
1930,1746,1465
1907,1740,1472
1915,1755,1521
1953,1752,1518
1898,1743,1488
1899,1765,1515
1927,1777,1535
1920,1750,1523
1933,1729,1488
1919,1750,1522
1930,1776,1586
1915,1744,1535
1911,1728,1496
1885,1717,1506
1891,1740,1562
1887,1727,1535
1835,1714,1517
1883,1723,1534
1893,1744,1586
1900,1729,1575
1911,1734,1535
1879,1729,1535
1854,1717,1570
1853,1707,1562
1843,1696,1523
1862,1723,1563
1899,1739,1613
1863,1721,1593
1857,1711,1535
1923,1749,1600
1851,1744,1621
1808,1690,1575
1810,1669,1535
1823,1701,1584
1890,1726,1633
1834,1714,1611
1843,1699,1566
1841,1718,1599
1801,1729,1648
1805,1716,1630
1886,1705,1598
1871,1728,1612
1827,1728,1658
1806,1707,1640
1798,1686,1594
1782,1709,1618
1840,1722,1681
1798,1714,1747
1797,1686,1762
1828,1705,1839
1823,1742,1920
1831,1753,1931
1759,1655,1840
1741,1664,1871
1770,1696,1948
1779,1697,1957
1778,1695,1936
1749,1703,1936
1749,1714,1974
1754,1702,1963
1739,1687,1930
1770,1712,1945
1744,1733,2000
1731,1714,1980
1680,1702,1933
1717,1712,1945
1727,1724,1995
1679,1710,1983
1711,1687,1938
1722,1727,1977
1726,1741,2010
1715,1710,1975
1678,1697,1937
1680,1726,1965
1680,1734,1991
1680,1713,1970
1664,1693,1925
1671,1719,1961
1681,1737,2000
1666,1713,1975
1658,1711,1936
1675,1731,1966
1680,1738,1995
1667,1719,1972
1616,1711,1933
1662,1723,1959
1641,1744,1995
1650,1722,1970
1630,1712,1923
1662,1726,1937
1713,1745,1984
1637,1739,1966
1650,1717,1913
1666,1741,1927
1680,1751,1977
1626,1740,1952
1621,1721,1918
1632,1739,1934
1712,1744,1979
1683,1733,1962
1617,1719,1906
1722,1732,1917
1671,1748,1959
1647,1727,1938
1650,1728,1904
1650,1735,2175
1648,1691,2242
1576,1655,1488
1589,1658,1591
1621,1686,1805
1634,1710,1869
1636,1698,1850
1638,1690,1827
1722,1713,1824
1646,1744,1822
1655,1712,1828
1654,1702,1825
1663,1727,1830
1655,1739,1824
1662,1735,1830
1698,1708,1827
1695,1725,1829
1712,1754,1828
1676,1740,1826
1653,1712,1829
1671,1729,1824
1687,1751,1827
1667,1741,1859
1631,1703,2533
1602,1674,1701
1569,1671,2497
1301,1395,4095
119,305,4095
0,0,4095
0,0,4095
0,0,4095
0,0,4095
0,0,4095
0,0,4095
0,0,4095
0,0,4095
0,0,4095
0,0,4095
0,0,4095
0,0,4042
0,0,2426
0,0,1646
0,0,1621
0,0,1779
0,0,1862
0,0,1859
0,0,1838
0,0,1825
0,0,1824
0,0,1833
0,0,1833
0,0,4095
0,0,4095
0,0,2922
0,0,3883
0,0,3633
0,0,2617
0,0,2021
0,0,0
0,0,592
0,0,3357
0,0,4095
0,0,1993
0,0,4095
0,0,4095
0,0,4095
0,0,4095
0,0,4095
0,0,4095
0,0,4095
0,0,4095
0,0,4095
0,0,4095
0,0,4095
0,0,4095
0,0,4095
0,0,4095
0,0,4095
0,0,4095
0,0,4095
0,0,4095
0,0,4095
0,0,667
0,0,27
0,0,2305
0,0,2097
0,940,2122
0,3533,1652
541,4095,2094
2526,4095,4095
2075,4095,4095
27,2689,4095
0,792,4095
0,0,4095
0,0,4095
0,0,4095
0,0,4095
0,0,4095
0,0,4095
0,0,2806
0,0,1534
0,0,1473
0,0,1745
0,0,1872
0,0,1865
0,0,1840
0,0,1821
0,0,1824
0,0,1828
0,0,1831
0,0,1834
0,0,1831
0,0,1830
0,0,1750
0,0,1867
0,0,1753
0,0,1789
0,286,1829
0,862,1842
0,1321,1828
0,1627,1820
0,2023,1841
0,2100,1833
0,2020,1825
0,1908,1829
0,2007,1837
0,2395,1810
274,2847,1765
1200,3414,1860
1664,3883,1802
1745,4095,1808
1651,4049,1831
1306,3569,1859
1117,3289,1847
1267,3431,1304
1756,4095,1248
1769,4090,1639
1597,3882,1878
1675,4025,1806
2197,4095,1883
2335,4095,1853
2271,4095,1831
2034,4095,1821
1925,4095,1809
2305,4095,1810
2899,4095,1746
3369,4095,1861
3071,4095,1846
2815,4095,1493
3579,4095,2210
4095,4095,2022
4095,4095,1828
4095,4095,1639
4095,4095,1744
4095,4095,1675
4095,4095,1102
4095,4095,1661
4095,4095,1034
4095,4095,784
4095,4095,1764
4095,4095,2208
4095,4095,1927
4095,4095,1232
4095,4095,1103
4095,4095,1615
4095,4095,1891
4095,4095,1893
4095,4095,1840
4095,4095,1719
4095,4095,1911
4095,4095,2167
4095,4095,1801
4095,4095,1280
4095,4095,1648
4095,4095,1871
4095,4095,1849
4095,4095,1815
4095,4095,1819
4095,4095,1827
4095,4095,1955
4095,4095,1785
4095,4095,1775
4095,4095,1809
4095,4095,1830
4095,4095,1905
4095,4095,1855
4095,4095,1664
4095,4095,1747
4095,4095,1829
4095,4095,1841
4095,4095,1837
4095,4095,1989
4095,4095,1776
4095,4095,1735
4095,4095,1808
4095,4095,1833
4095,4095,2353
4095,4095,2128
4095,4095,1696
4095,4095,1435
4095,4095,1730
4095,4095,2304
4095,4095,2882
4095,4095,2613
4095,4095,2165
4095,4095,1295
4095,4095,481
4095,4095,1710
4095,4095,3632
4095,4095,1468
4095,4095,0
4095,4095,1675
4095,4095,1097
4095,4095,1526
4095,4095,1861
4095,4095,1906
4095,4095,1851
3190,4095,1819
2356,4095,1818
1919,4095,1822
918,4095,1827
2235,4095,1829
2239,4095,1827
2031,4095,1846
1829,4095,2101
1808,4095,1840
1535,4095,2409
1829,4095,1662
1894,4095,1785
1989,4095,1863
1894,4095,1520
1827,4095,1668
1823,4095,2374
1833,4095,2118
1840,4095,1586
1837,4095,2398
1837,4095,2965
1831,4095,3039
1826,4095,1968
1831,4095,1503
1829,4095,1844
1830,4095,2288
1829,4095,2070
1835,4095,1611
1858,4095,547
2029,4095,1248
2192,4095,2448
2271,4095,1710
2441,4095,1003
2608,4095,1978
2678,4095,1774
2806,4095,1338
3055,4095,1460
3264,4095,1835
3407,4095,1808
3583,4095,1745
3808,4095,1731
3997,4095,1716
4095,4095,1790
4095,4095,1837
4095,4095,1838
4095,4095,1831
4095,4095,1827
4095,4095,1826
4095,4095,1828
4095,4095,1828
4095,4095,1823
4095,4095,1824
4095,4095,1831
4095,4095,1831
4095,4095,1719
4095,4095,1521
4095,4095,1406
4095,4049,1535
4095,3744,3423
4095,3467,2690
4095,3487,1799
4095,3337,1569
4095,3264,1675
4095,3216,1814
4095,3216,1858
4095,3151,1841
4095,3057,1831
4095,3040,1822
4095,3001,1826
4095,2957,1825
4095,2890,1827
4095,2813,1827
4095,2804,1831
4095,2739,1827
4027,2656,1825
4002,2639,1825
4003,2589,1829
3962,2525,1826
3879,2470,1829
3856,2448,1827
3856,2384,1828
3806,2336,1825
3731,2317,1827
3725,2295,1827
3742,2229,1828
3685,2167,1825
3613,2063,1825
3583,2087,1826
3618,2014,1829
3600,2000,1827
3502,1981,1831
3459,1889,1829
3461,1846,2279
3408,1799,1984
3304,1713,1679
3287,1680,1669
3333,1679,1786
3323,1621,1870
3237,1659,2387
3136,1530,1850
3141,1466,1718
3106,1410,1665
3054,1350,2310
2982,1232,1749
2986,1205,2441
2848,1094,2416
2586,829,2273
2284,528,2514
2032,339,1364
1907,215,1631
1814,129,1687
1771,158,1871
1748,90,990
1839,119,1434
1919,182,1773
2000,224,2214
2039,257,1968
2015,220,1728
2022,227,1042
2182,355,1379
2384,475,1922
2481,528,1985
2509,501,1758
2596,680,1607
2722,699,1920
2769,767,0
2782,751,0
2816,751,461
2837,742,1739
2803,606,2031
2777,661,1960
2782,688,1953
2787,678,1603
2802,650,1488
2829,647,1664
2845,679,1819
2847,765,1847
2831,694,1837
2779,690,1826
2763,699,1823
2797,731,1824
2779,714,1825
2734,694,1826
2730,717,1824
2759,751,1831
2752,773,1840
2684,746,1839
2661,752,1815
2676,773,2007
2635,743,2173
2553,684,1903
2550,688,1479
2586,717,1617
2602,723,1814
2546,707,1871
2528,708,1843
2535,737,1824
2546,752,1823
2522,742,1829
2474,737,1797
2482,768,1799
2474,752,1838
2448,750,1781
2480,773,1679
2506,773,1625
2448,744,1743
2410,752,1659
2375,764,1390
2416,813,1371
2401,813,1486
2347,778,2382
2417,774,2304
2417,731,1745
2273,752,1675
2204,741,2032
2222,738,1855
2221,727,1909
2235,736,1615
2219,745,1821
2224,767,1936
2224,751,1765
2239,757,1893
2152,701,1870
2163,725,2128
2199,734,1668
2101,704,1579
2071,708,1755
2128,742,1855
2189,805,1853
2153,783,1839
2096,763,1825
2150,799,1827
2164,814,1830
2113,834,1826
2032,785,1830
2047,848,1830
2134,918,1830
2097,859,1826
2010,805,1826
2015,816,1831
2061,885,1827
2064,907,1827
2027,903,1830
2031,912,1834
2065,947,1807
2015,931,1867
1953,928,1891
1970,965,1712
2009,998,1680
2032,1000,1855
1957,958,1801
1883,961,1569
1913,1035,1569
1966,1072,1856
1931,1041,1775
1917,1068,1584
1920,1104,1559
1936,1101,1744
1917,1090,1979
1915,1149,2030
1872,1136,3252
1526,756,3507
1127,417,736
1119,445,68
1410,706,1418
1650,880,2121
1655,903,1975
1625,909,2886
1568,850,1577
1581,878,1424
1602,943,1786
1671,955,1769
1710,973,1808
1679,1022,1939
1634,1023,1812
1675,1060,1744
1737,1103,1799
1735,1137,1829
1697,1146,1827
1708,1180,1830
1776,1245,1831
1756,1249,1831
1700,1232,1825
1713,1232,1859
1754,1296,1803
1735,1307,2274
1489,1098,2233
1360,1011,959
1477,1106,1311
1593,1186,1814
1611,1185,1934
1605,1228,1851
1664,1323,2096
1649,1321,1887
1600,1298,1776
1615,1317,1806
1698,1389,2198
1665,1337,2854
1450,1200,2309
1367,1109,1343
1463,1173,1299
1406,1165,3347
953,781,4095
377,278,1523
105,25,2166
0,0,1774
0,0,1783
0,0,0
0,0,806
0,0,1904
405,197,2103
912,646,1921
1185,912,1806
1287,1040,1803
1315,1100,1811
1351,1152,1827
1414,1205,1834
1465,1285,1833
1467,1333,1826
1501,1394,1827
1535,1465,1828
1580,1486,1834
1578,1504,1826
1591,1552,1829
1643,1616,1826
1663,1643,1828
1678,1664,1769
1693,1686,1639
1712,1724,1615
1689,1725,1601
1681,1727,1510
1728,1774,1455
1782,1824,1473
1770,1808,1499
1733,1814,1506
1713,1839,1351
1743,1870,1257
1761,1882,1360
1747,1879,1413
1744,1878,1275
1763,1904,1263
1774,1934,1379
1778,1945,1427
1762,1922,1184
1774,1936,1089
1777,1945,1232
1728,1946,1260
1737,1963,1167
1777,1943,1157
1814,1971,1264
1791,1968,1293
1765,1968,1117
1757,1973,995
1748,1954,2830
1741,1972,2725
1763,1984,1969
1803,1999,1659
1771,1963,1715
1712,1967,1814
1726,2022,1858
1774,2001,1840
1783,1982,1835
1760,1990,1840
1746,1990,1803
1772,2014,1826
1755,2032,1821
1720,2012,1824
1739,1981,1833
1788,1993,1854
1775,2027,1917
1741,2025,1783
1732,2001,1765
1751,1997,1863
1751,2018,1825
1694,1987,1841
1699,1985,1915
1737,2000,1743
1777,2015,1818
1724,1978,1808
1717,1984,1812
1735,2014,1904
1703,2003,2045
1680,1990,1863
1691,1968,1814
1690,1977,1796
1677,1988,1723
1622,1959,1403
1658,1963,0
1734,1999,0
1725,2006,0
1687,2011,0
1683,2045,0
1730,2064,0
1730,2038,0
1697,2019,0
1701,2036,0
1734,2064,0
1739,2095,0
1699,2072,0
1719,2068,0
1747,2102,0
1726,2123,0
1702,2091,0
1709,2106,0
1739,2130,0
1709,2133,0
1664,2101,0
1677,2106,0
1714,2135,0
1741,2149,0
1691,2155,0
1664,2157,0
1718,2169,0
1730,2206,0
1664,2190,1275
1664,2153,2005
1718,2161,2007
1701,2153,1852
1682,2160,1776
1696,2160,1780
1712,2190,1822
1700,2186,1829
1697,2174,1827
1679,2160,1793
1690,2192,1863
1687,2213,1867
1664,2176,1839
1669,2158,1830
1705,2176,1905
1711,2151,1831
1679,2130,1733
1660,2147,1824
1710,2179,1832
1684,2186,1826
1660,2161,1824
1689,2143,1823
1722,2160,1831
1712,2148,1828
1680,2119,1829
1689,2128,1813
1696,2144,1819
1697,2141,1901
1663,2096,1910
1657,2086,1809
1691,2141,1731
1696,2134,1802
1667,2097,1905
1675,2102,1763
1711,2143,1722
1699,2103,1807
1659,2039,1824
1669,2044,1783
1701,2096,1646
1699,2118,1687
1676,2067,1735
1670,2039,1739
1665,2059,1619
1675,2091,1643
1660,2064,1693
1674,2043,1598
1703,2077,1594
1691,2064,1649
1670,2016,1668
1670,2037,1535
1705,2043,1529
1702,2034,1699
1675,2015,1715
1662,2000,1584
1703,2029,1456
1696,2017,1535
1689,2021,1585
1701,2007,1583
1695,2003,1485
1673,1999,1535
1659,1980,1568
1670,1975,1559
1691,1983,1495
1680,1986,1486
1644,1946,1530
1663,1911,1482
1726,1978,1440
1704,1987,1507
1658,1954,1535
1662,1958,1460
1712,1981,1408
1680,1937,1535
1658,1905,1535
1678,1939,1437
1726,1984,1424
1721,1963,1503
1664,1874,1574
1648,1878,1392
1701,1931,1324
1715,1951,1488
1671,1935,1487
1667,1904,1389
1708,1911,1398
1715,1905,1518
1677,1872,1510
1680,1905,1383
1711,1926,1418
1715,1904,1483
1691,1872,1486
1683,1870,1365
1677,1875,1279
1689,1887,1446
1689,1863,1525
1712,1865,1426
1715,1887,1359
1698,1867,1505
1687,1871,1515
1704,1878,1391
1720,1854,1318
1687,1826,1407
1668,1849,1486
1680,1852,1407
1720,1841,1366
1707,1840,1395
1695,1828,1463
1699,1840,1407
1723,1819,1439
1727,1829,1486
1717,1834,1483
1710,1805,1374
1743,1815,1390
1725,1807,1497
1691,1834,1456
1669,1821,1390
1766,1839,1435
1790,1822,1463
1649,1803,1418
1705,1803,1385
1758,1828,1425
1751,1837,1504
1721,1817,1479
1731,1840,1371
1729,1799,1420
1775,1790,1533
1658,1749,1477
1686,1785,1338
1757,1808,1369
1735,1807,1503
1708,1787,1515
1746,1829,1459
1727,1830,1446
1739,1803,1523
1710,1803,1499
1733,1794,1424
1767,1807,1399
1753,1779,1519
1718,1775,1535
1713,1781,1409
1740,1815,1392
1771,1794,1559
1713,1778,1535
1734,1783,1467
1798,1791,1367
1741,1778,1494
1755,1779,1586
1728,1793,1437
1785,1791,1378
1765,1777,1523
1712,1789,1616
1745,1776,1507
1763,1785,1469
1745,1795,1535
1739,1786,1565
1771,1778,1488
1815,1807,1504
1749,1786,1520
1714,1779,1535
1727,1778,1473
1764,1780,1477
1763,1778,1616
1722,1776,1535
1729,1769,1461
1791,1783,1449
1770,1791,1630
1715,1754,1697
1807,1767,1490
1766,1795,1438
1763,1775,1582
1701,1746,1593
1731,1773,1499
1766,1811,1503
1822,1808,1581
1797,1748,1674
1690,1695,1567
1776,1760,1476
1767,1812,1600
1773,1776,1680
1722,1775,1502
1815,1769,1485
1807,1764,1603
1760,1807,1661
1776,1822,1609
1791,1787,1581
1755,1766,1599
1719,1762,1635
1722,1781,1584
1820,1810,1535
1794,1769,1634
1712,1770,1668
1779,1789,1591
1801,1791,1601
1794,1803,1683
1759,1778,1643
1771,1793,1565
1811,1814,1617
1815,1801,1718
1761,1779,1727
1758,1783,1568
1792,1809,1535
1811,1786,1648
1797,1782,1728
1751,1801,1623
1811,1808,1600
1779,1805,1695
1750,1783,1723
1759,1783,1648
1811,1827,1619
1808,1813,1718
1769,1808,1724
1786,1776,1617
1794,1795,1584
1808,1808,1746
1744,1760,1698
1766,1769,1607
1815,1799,1614
1806,1777,1740
1751,1756,1741
1776,1789,1670
1808,1827,1607
1795,1795,1684
1759,1749,1750
1728,1798,1616
1819,1823,1644
1811,1791,1802
1751,1779,1741
1791,1806,1616
1858,1798,1599
1835,1791,1825
1760,1787,1753
1777,1783,1577
1794,1809,1614
1824,1823,1853
1841,1793,1811
1767,1776,1603
1834,1794,1643
1872,1793,1813
1766,1806,1910
1760,1801,1666
1867,1792,1594
1816,1808,1757
1767,1817,1807
1776,1804,1651
1839,1809,1693
1840,1828,1806
1841,1830,1788
1799,1819,1700
1888,1842,1671
1835,1842,1781
1791,1847,1797
1774,1856,1702
1872,1871,1681
1831,1863,1792
1755,1828,1801
1765,1837,1698
1824,1872,1734
1818,1866,1795
1773,1826,1807
1691,1856,1710
1872,1885,1707
1831,1872,1902
1792,1872,1815
1796,1905,1689
1831,1936,1705
1803,1925,1822
1765,1942,1844
1790,1954,1742
1803,1926,1712
1765,1906,1795
1786,1931,1806
1802,1978,1700
1814,2018,1722
1837,2015,1856
1809,1988,1877
1819,1996,1743
1840,2032,1689
1827,2037,1796
1789,2022,1845
1801,2023,1802
1830,2044,1777
1825,2041,1793
1812,2034,1843
1827,2064,1795
1835,2096,1744
1808,2061,1851
1795,2060,1851
1807,2077,1757
1867,2109,1746
1843,2073,1858
1794,2068,1858
1793,2047,1755
1830,2080,1710
1811,2081,1815
1808,2045,1911
1808,2046,1735
1854,2102,1807
1851,2097,1872
1799,2060,1841
1799,2066,1754
1835,2075,1727
1854,2057,1853
1830,2047,1903
1825,2045,1815
1849,2070,1776
1833,2061,1863
1805,2067,1898
1813,2061,1759
1853,2067,1776
1862,2098,1867
1823,2077,1875
1810,2035,1776
1827,2035,1749
1834,2041,1825
1815,2014,1915
1829,2022,1817
1856,2069,1779
1845,2047,1853
1807,2007,1866
1820,2032,1845
1853,2079,1808
1843,2046,1782
1814,2034,1846
1819,2027,1762
1839,2000,1758
1833,2018,1865
1836,2004,1968
1839,1982,1856
1846,2015,1742
1843,2033,1853
1805,2002,1872
1803,2010,1775
1854,2019,1769
1863,2007,1872
1834,1985,1911
1833,1983,1809
1849,1994,1819
1837,1987,1842
1807,1974,1818
1818,1979,1773
1871,1997,1800
1872,2000,1923
1823,1984,1936
1827,1975,1776
1867,1965,1814
1866,1969,1968
1808,1939,1879
1812,1931,1697
1854,1954,1715
1857,1963,1872
1798,1938,1883
1799,1936,1787
1854,1960,1771
1869,1961,1906
1838,1942,1957
1811,1917,1748
1839,1937,1713
1846,1941,1862
1819,1921,1915
1820,1904,1818
1859,1967,1774
1860,1965,1886
1823,1925,1910
1821,1939,1777
1841,1943,1801
1837,1948,1858
1829,1919,1850
1819,1914,1744
1869,1955,1788
1861,1923,1926
1821,1914,1887
1797,1909,1747
1828,1923,1749
1843,1935,1859
1822,1910,1914
1843,1904,1875
1869,1917,1858
1853,1927,1863
1829,1905,1870
1822,1913,1764
1847,1920,1758
1870,1914,1979
1839,1866,1945
1808,1860,1747
1830,1914,1712
1817,1929,1840
1808,1904,1878
1834,1895,1808
1881,1904,1831
1839,1869,1886
1788,1857,1850
1819,1903,1769
1846,1914,1758
1838,1879,1857
1827,1861,1911
1823,1842,1830
1859,1874,1781
1867,1891,1891
1827,1882,1882
1808,1840,1767
1846,1872,1779
1852,1887,1886
1840,1869,1915
1840,1872,1790
1894,1878,1853
1872,1861,1904
1814,1850,1875
1813,1879,1838
1865,1883,1798
1867,1869,1861
1810,1834,1831
1809,1840,1744
1847,1874,1770
1855,1874,1904
1843,1853,1968
1838,1853,1821
1856,1871,1719
1856,1865,1851
1837,1840,1983
1840,1877,1837
1867,1891,1730
1856,1887,1855
1834,1858,1941
1822,1828,1807
1845,1875,1763
1854,1924,1872
1837,1883,1920
1836,1861,1855
1863,1879,1800
1867,1850,1867
1835,1878,1869
1834,1884,1782
1863,1853,1776
1872,1839,1935
1840,1840,1936
1844,1926,1773
1887,1863,1774
1872,1840,1886
1812,1826,1863
1831,1840,1773
1872,1873,1746
1858,1911,1902
1827,1840,1904
1825,1809,1774
1855,1851,1761
1853,1834,1879
1822,1827,1935
1828,1808,1854
1863,1875,1771
1853,1862,1819
1846,1809,1927
1850,1879,1834
1875,1904,1741
1837,1856,1795
1808,1834,1859
1823,1851,1824
1875,1879,1815
1889,1851,1965
1836,1830,1889
1808,1846,1696
1841,1875,1709
1859,1898,1868
1834,1859,1900
1869,1901,1824
1861,1872,1778
1833,1894,1872
1822,1855,1898
1824,1878,1781
1863,1837,1793
1871,1866,1889
1821,1832,1874
1838,1867,1858
1874,1886,1767
1876,1863,1825
1853,1878,1913
1839,1872,1825
1874,1861,1807
1856,1835,1850
1837,1859,1871
1831,1866,1760
1871,1799,1776
1877,1872,1900
1835,1893,1857
1831,1818,1760
1862,1835,1804
1855,1863,1942
1834,1907,1904
1854,1878,1767
1881,1865,1723
1872,1857,1878
1841,1872,1899
1845,1817,1785
1873,1885,1782
1847,1817,1850
1844,1874,1939
1850,1806,1817
1861,1838,1737
1849,1910,1819
1825,1818,1899
1840,1863,1772
1859,1842,1728
1874,1888,1874
1841,1875,1945
1851,1809,1792
1852,1833,1699
1847,1799,1824
1834,1827,1921
1850,1831,1840
1884,1883,1798
1877,1824,1927
1840,1798,1872
1829,1833,1728
1854,1856,1702
1853,1849,1824
1831,1791,1861
1842,1819,1807
1885,1857,1789
1879,1854,1911
1827,1857,1915
1825,1803,1744
1869,1859,1775
1871,1967,1870
1847,1826,1874
1845,1801,1789
1885,1851,1759
1880,1857,1903
1829,1776,1902
1807,1763,1713
1856,1797,1685
1862,1868,1839
1840,1815,1871
1858,1824,1819
1901,1825,1814
1884,1840,1860
1840,1808,1947
1827,1812,1738
1886,1846,1713
1857,1818,1865
1815,1835,1859
1838,1851,1762
1865,1834,1755
1857,1894,1836
1842,1846,1861
1860,1845,1802
1903,1791,1793
1866,1745,1841
1817,1796,1905
1813,1830,1792
1877,1786,1695
1887,1774,1822
1853,1847,1913
1827,1819,1726
1856,1808,1680
1861,1912,1839
1839,1795,1879
1855,1817,1769
1871,1831,1753
1872,1832,1849
1835,1794,1881
1840,1830,1781
1888,1799,1804
1895,1871,1859
1854,1837,1808
1858,1827,1739
1848,1840,1739
1845,1851,1833
1838,1851,1845
1847,1839,1761
1899,1750,1763
1901,1840,1898
1840,1810,1919
1821,1807,1776
1869,1845,1680
1888,1847,1804
1847,1833,1857
1840,1819,1805
1875,1874,1755
1891,1858,1891
1850,1822,1907
1827,1857,1750
1876,1874,1719
1869,1856,1870
1830,1840,1902
1840,1821,1757
1849,1801,1696
1850,1865,1836
1825,1796,1913
1840,1874,1761
1876,1863,1740
1846,1856,1791
1825,1819,1843
1855,1842,1802
1870,1808,1727
1889,1840,1854
1863,1850,1909
1855,1818,1790
1856,1858,1667
1859,1872,1820
1856,1856,1949
1845,1830,1819
1856,1852,1689
1856,1851,1808
1837,1857,1876
1840,1829,1763
1867,1844,1778
1874,1815,1878
1850,1853,1858
1852,1852,1767
1863,1851,1767
1867,1855,1897
1851,1855,1856
1859,1837,1734
1874,1873,1730
1859,1866,1862
1840,1849,1886
1850,1825,1776
1878,1827,1733
1871,1849,1851
1837,1841,1874
1846,1815,1787
1883,1811,1776
1859,1857,1904
1825,1885,1878
1834,1856,1697
1871,1847,1697
1871,1842,1840
1842,1835,1879
1837,1818,1761
1865,1849,1742
1865,1846,1847
1846,1794,1908
1836,1861,1776
1872,1910,1752
1858,1873,1845
1831,1813,1883
1846,1808,1806
1872,1854,1743
1869,1855,1811
1839,1836,1883
1840,1831,1775
1881,1845,1830
1889,1854,1845
1848,1841,1840
1840,1851,1761
1866,1883,1757
1865,1903,1840
1831,1863,1853
1827,1815,1747
1886,1834,1797
1900,1853,1936
1808,1808,1853
1791,1812,1729
1841,1874,1709
1869,1866,1845
1830,1872,1893
1837,1856,1808
1873,1862,1747
1873,1858,1818
1840,1823,1863
1839,1843,1794
1870,1872,1780
1870,1889,1825
1840,1844,1843
1840,1847,1763
1871,1879,1776
1871,1870,1915
1840,1872,1884
1818,1840,1693
1856,1890,1722
1859,1919,1861
1826,1882,1906
1840,1857,1773
1872,1861,1733
1871,1888,1871
1827,1878,1881
1835,1871,1792
1877,1914,1798
1877,1915,1863
1840,1870,1881
1842,1874,1729
1859,1907,1700
1840,1872,1805
1811,1854,1847
1821,1855,1808
1871,1915,1776
1856,1907,1830
1808,1878,1920
1829,1873,1777
1865,1884,1712
1856,1901,1810
1823,1897,1859
1840,1863,1794
1877,1883,1849
1851,1895,1871
1806,1917,1801
1812,1916,1730
1835,1872,1733
1839,1871,1856
1823,1881,1924
