1570,1838,1615
1572,1827,1823
1575,1823,1951
1584,1851,1871
1579,1825,1776
1535,1775,1744
1535,1787,1719
1593,1841,1798
1606,1840,1982
1558,1791,2032
1535,1781,1874
1564,1806,1815
1535,1783,1603
1573,1792,1642
1571,1788,1805
1600,1819,1854
1595,1806,1843
1584,1797,1825
1604,1822,1828
1631,1847,1825
1647,1856,1827
1658,1873,1812
1653,1878,1801
1616,1845,1777
1601,1835,1741
1623,1851,1712
1659,1890,1732
1652,1895,1760
1643,1873,1744
1606,1840,1649
1621,1869,1673
1648,1905,1743
1646,1887,1727
1627,1879,1664
1643,1888,1675
1673,1927,1741
1653,1911,1714
1658,1893,1677
1642,1881,1652
1642,1899,1699
1650,1911,1709
1663,1919,1680
1649,1905,1648
1643,1904,1694
1660,1911,1710
1634,1893,1629
1631,1881,1597
1648,1904,1712
1648,1901,1685
1630,1869,1616
1643,1893,1633
1662,1931,1719
1663,1922,1709
1667,1915,1680
1692,1950,1709
1668,1935,1695
1623,1870,1654
1640,1867,1665
1648,1893,1635
1680,1934,1686
1679,1926,1680
1653,1889,1621
1652,1891,1631
1676,1929,1698
1671,1922,1712
1678,1925,1649
1701,1941,1707
1648,1881,1654
1627,1869,1651
1649,1873,1643
1653,1889,1635
1695,1936,1680
1669,1899,1722
1653,1885,1623
1664,1900,1648
1696,1937,1718
1670,1904,1705
1637,1857,1619
1663,1893,1648
1693,1922,1712
1689,1909,1707
1680,1897,1667
1690,1913,1680
1713,1942,1730
1703,1926,1723
1666,1872,1638
1651,1862,1624
1685,1898,1698
1699,1910,1729
1693,1897,1679
1692,1898,1687
1691,1903,1758
1665,1875,1717
1673,1878,1660
1695,1887,1686
1729,1915,1731
1712,1909,1760
1698,1895,1711
1672,1866,1621
1677,1879,1691
1693,1894,1719
1714,1913,1663
1675,1871,1679
1670,1886,1718
1690,1887,1712
1695,1873,1683
1710,1890,1699
1701,1902,1737
1688,1884,1766
1682,1863,1699
1710,1894,1707
1731,1927,1808
1712,1904,1745
1708,1891,1708
1697,1890,1697
1677,1863,1725
1668,1851,1714
1693,1872,1687
1720,1889,1718
1714,1891,1755
1695,1872,1733
1689,1866,1705
1711,1885,1718
1709,1903,1732
1681,1869,1739
1683,1857,1713
1706,1889,1723
1723,1904,1781
1711,1885,1771
1678,1847,1684
1702,1869,1701
1743,1918,1794
1694,1861,1750
1681,1843,1681
1693,1867,1687
1721,1893,1755
1728,1885,1786
1711,1860,1735
1694,1853,1727
1712,1877,1770
1726,1886,1787
1715,1868,1744
1738,1890,1802
1747,1905,1801
1719,1859,1776
1711,1845,1719
1718,1863,1735
1751,1904,1808
1714,1858,1777
1698,1841,1724
1766,1907,1783
1738,1887,1803
1701,1851,1753
1696,1824,1718
1731,1863,1771
1742,1888,1776
1744,1876,1803
1714,1843,1718
1744,1882,1789
1767,1915,1808
1748,1899,1793
1697,1833,1775
1735,1861,1751
1793,1929,1859
1745,1900,1831
1671,1810,1723
1669,1801,1680
1726,1847,1775
1735,1855,1831
1744,1858,1783
1739,1854,1769
1743,1873,1819
1746,1874,1827
1738,1862,1747
1733,1854,1773
1769,1888,1840
1733,1845,1818
1716,1821,1744
1744,1849,1776
1764,1875,1810
1771,1898,1838
1745,1860,1785
1730,1838,1762
1750,1872,1840
1780,1898,1892
1728,1821,1749
1723,1821,1745
1761,1883,1840
1765,1885,1827
1747,1862,1786
1756,1857,1776
1779,1877,1853
1746,1846,1813
1721,1824,1765
1769,1873,1783
1766,1865,1829
1761,1865,1823
1746,1839,1777
1772,1861,1802
1771,1872,1876
1745,1846,1850
1747,1840,1786
1774,1872,1795
1813,1927,1854
1771,1872,1847
1722,1810,1774
1751,1847,1748
1794,1894,1873
1797,1897,1879
1734,1818,1779
1743,1840,1779
1776,1870,1845
1782,1872,1867
1771,1857,1813
1749,1856,1798
1760,1859,1849
1776,1869,1859
1790,1876,1837
1765,1858,1805
1755,1854,1836
1759,1853,1845
1756,1840,1804
1775,1859,1823
1795,1891,1873
1807,1904,1888
1771,1841,1808
1751,1834,1787
1776,1860,1858
1783,1872,1861
1749,1829,1796
1763,1842,1792
1806,1888,1873
1808,1891,1883
1777,1850,1815
1788,1862,1821
1810,1919,1897
1786,1885,1859
1759,1837,1797
1760,1872,1829
1822,1905,1898
1757,1857,1867
1754,1849,1829
1810,1883,1865
1744,1840,1858
1709,1826,1853
1783,1823,1827
1793,1842,1846
1791,1886,1920
1805,1903,1935
1795,1857,1872
1771,1835,1850
1797,1866,1911
1814,1871,1934
1803,1856,1902
1789,1871,1915
1808,1894,1967
1815,1891,1962
1793,1845,1899
1781,1839,1890
1793,1868,1951
1794,1877,1953
1775,1831,1894
1755,1808,1872
1797,1840,1937
1825,1843,1956
1783,1854,1918
1771,1844,1901
1791,1871,1962
1811,1889,1983
1830,1881,1954
1775,1834,1904
1744,1840,1951
1788,1840,1965
1791,1840,1933
1826,1874,1963
1845,1902,2019
1810,1872,1990
1776,1839,1925
1755,1818,1904
1819,1872,1994
1783,1851,1984
1749,1834,1934
1789,1849,1941
1808,1882,2004
1815,1877,2013
1818,1873,1973
1787,1841,1934
1798,1853,1984
1833,1867,2014
1803,1834,1947
1826,1861,1953
1829,1875,2000
1815,1857,1993
1760,1815,1921
1792,1843,1946
1847,1872,2005
1805,1867,2007
1863,1901,1993
1839,1888,1968
1737,1802,1915
1759,1799,1919
1785,1816,1920
1808,1856,1938
1833,1873,1994
1814,1849,1981
1811,1855,1949
1824,1856,1937
1824,1871,1968
1791,1861,1970
1834,1835,1915
1801,1841,1906
1826,1883,1979
1837,1891,1988
1822,1869,1926
1792,1837,1887
1808,1851,1935
1809,1856,1945
1806,1840,1896
1831,1865,1904
1845,1894,1968
1843,1882,1971
1767,1798,1856
1782,1819,1861
1840,1881,1945
1769,1890,1961
1793,1834,1874
1792,1840,1870
1821,1865,1919
1838,1904,1942
1800,1856,1885
1838,1825,1843
1841,1855,1902
1851,1873,1923
1808,1863,1877
1795,1862,1869
1821,1879,1914
1815,1872,1917
1810,1855,1869
1825,1873,1872
1846,1910,1931
1828,1886,1919
1836,1878,1872
1809,1867,1842
1805,1861,1876
1834,1899,1927
1799,1840,1845
1749,1808,1790
1791,1847,1856
1868,1857,1875
1788,1856,1840
1808,1867,1839
1808,1890,1897
1872,1881,1894
1808,1872,1841
1799,1858,1820
1795,1895,1879
1826,1914,1904
1850,1855,1822
1871,1869,1825
1838,1895,1879
1776,1871,1871
1812,1842,1813
1806,1872,1834
1872,1939,1917
1795,1872,1863
1803,1844,1803
1807,1855,1808
1839,1903,1877
1861,1931,1902
1755,1840,1783
1772,1835,1775
1840,1899,1866
1797,1885,1862
1830,1861,1808
1812,1874,1812
1840,1899,1862
1818,1870,1837
1795,1842,1774
1818,1872,1793
1839,1895,1858
1814,1878,1843
1808,1856,1792
1840,1888,1809
1826,1901,1843
1808,1877,1834
1765,1867,1773
1815,1871,1787
1825,1893,1841
1802,1923,1861
1851,1872,1795
1847,1846,1758
1821,1891,1829
1815,1894,1840
1818,1904,1812
1719,1888,1789
1778,1867,1798
1805,1877,1823
1842,1875,1792
1808,1886,1787
1830,1910,1840
1811,1877,1821
1804,1866,1776
1818,1891,1785
1834,1905,1835
1823,1891,1819
1809,1862,1771
1808,1867,1760
1821,1903,1815
1826,1904,1831
1843,1904,1804
1813,1874,1774
1814,1884,1810
1827,1890,1826
1792,1847,1744
1795,1855,1743
1821,1891,1813
1827,1892,1821
1824,1881,1783
1817,1887,1776
1821,1891,1808
1823,1891,1808
1808,1872,1763
1821,1889,1766
1844,1911,1835
1857,1936,1857
1835,1885,1793
1795,1851,1744
1824,1889,1811
1845,1909,1840
1835,1903,1785
1823,1886,1770
1839,1892,1822
1844,1909,1840
1799,1852,1751
1795,1855,1741
1839,1899,1819
1813,1873,1808
1805,1865,1756
1838,1892,1763
1846,1914,1822
1812,1871,1803
1788,1839,1743
1811,1866,1760
1851,1914,1839
1843,1900,1825
1826,1873,1776
1834,1888,1770
1857,1916,1835
1827,1879,1810
1815,1851,1751
1825,1871,1763
1842,1898,1817
1837,1893,1817
1843,1906,1791
1840,1898,1767
1792,1853,1764
1795,1843,1776
1803,1847,1748
1837,1886,1764
1843,1903,1809
1839,1893,1811
1850,1893,1783
1870,1911,1790
1808,1859,1774
1808,1856,1778
1827,1871,1755
1808,1853,1732
1819,1877,1790
1830,1874,1807
1840,1881,1775
1840,1872,1769
1839,1876,1805
1856,1899,1823
1829,1866,1757
1834,1861,1744
1875,1922,1840
1862,1901,1829
1828,1863,1760
1842,1891,1775
1839,1899,1808
1853,1905,1835
1840,1873,1776
1839,1885,1766
1829,1878,1794
1840,1886,1815
1847,1873,1776
1833,1856,1758
1855,1891,1822
1870,1907,1851
1850,1876,1786
1867,1891,1791
1849,1883,1819
1840,1870,1813
1834,1850,1773
1847,1861,1774
1856,1888,1828
1856,1897,1840
1856,1885,1794
1846,1871,1778
1872,1916,1842
1877,1914,1863
1833,1847,1776
1809,1831,1739
1844,1871,1805
1853,1887,1837
1845,1871,1803
1853,1877,1795
1856,1894,1837
1872,1906,1856
1841,1860,1776
1830,1844,1763
1844,1877,1819
1855,1885,1837
1856,1874,1801
1851,1872,1788
1831,1855,1809
1839,1860,1824
1846,1855,1798
1858,1872,1795
1903,1921,1882
1865,1886,1858
1838,1850,1789
1840,1849,1776
1847,1872,1831
1859,1885,1847
1846,1870,1794
1862,1876,1802
1872,1899,1858
1819,1840,1812
1803,1821,1770
1824,1845,1776
1856,1883,1841
1862,1882,1855
1840,1856,1790
1845,1854,1783
1851,1871,1834
1857,1879,1850
1855,1872,1808
1845,1854,1785
1840,1856,1821
1849,1857,1840
1843,1840,1798
1840,1840,1775
1871,1877,1847
1835,1854,1823
1823,1827,1767
1837,1839,1780
1857,1871,1841
1856,1857,1845
1850,1829,1787
1843,1835,1779
1869,1863,1841
1872,1884,1866
1876,1891,1835
1840,1826,1783
1821,1835,1810
1840,1861,1839
1839,1894,1790
1837,1830,1778
1856,1863,1844
1852,1858,1846
1823,1808,1776
1839,1835,1781
1865,1872,1844
1855,1908,1854
1826,1894,1781
1827,1872,1775
1857,1874,1845
1873,1917,1867
1854,1845,1809
1846,1855,1792
1827,1797,1808
1809,1825,1807
1815,1850,1776
1840,1840,1777
1851,1845,1827
1856,1872,1842
1835,1847,1783
1840,1846,1775
1854,1877,1828
1854,1900,1840
1840,1876,1790
1851,1856,1785
1867,1840,1843
1865,1917,1847
1853,1860,1800
1845,1870,1790
1878,1890,1858
1889,1898,1872
1821,1818,1766
1810,1818,1744
1855,1878,1827
1837,1855,1822
1829,1843,1775
1837,1843,1776
1856,1872,1837
1857,1862,1841
1847,1835,1791
1852,1851,1791
1881,1887,1852
1875,1879,1862
1867,1857,1809
1855,1855,1793
1872,1883,1851
1872,1875,1867
1856,1840,1807
1855,1850,1794
1871,1893,1853
1869,1853,1857
1872,1904,1827
1875,1898,1819
1851,1873,1831
1840,1879,1829
1838,1806,1785
1838,1853,1776
1873,1856,1854
1869,1875,1857
1826,1792,1782
1840,1835,1783
1873,1871,1856
1881,1874,1875
1856,1875,1808
1850,1808,1795
1883,1897,1861
1874,1877,1870
1826,1806,1783
1844,1812,1793
1856,1890,1847
1878,1881,1879
1863,1862,1822
1819,1819,1776
1825,1831,1825
1841,1839,1854
1840,1829,1807
1859,1853,1811
1866,1882,1862
1830,1845,1835
1821,1813,1782
1843,1826,1795
1865,1846,1851
1866,1858,1867
1843,1837,1813
1837,1808,1793
1872,1874,1862
1849,1856,1856
1827,1803,1797
1840,1787,1792
1865,1902,1857
1857,1845,1858
1845,1845,1811
1834,1822,1801
1851,1844,1856
1860,1894,1878
1831,1822,1809
1833,1903,1801
1859,1858,1859
1858,1851,1866
1840,1808,1810
1826,1805,1791
1847,1861,1856
1840,1833,1850
1808,1757,1779
1827,1808,1777
1855,1904,1859
1861,1823,1877
1840,1833,1811
1840,1899,1809
1871,1894,1872
1851,1920,1863
1829,1824,1803
1835,1823,1795
1861,1875,1857
1874,1854,1872
1846,1797,1809
1836,1837,1794
1883,1939,1872
1840,1807,1842
1808,1799,1772
1824,1837,1776
1872,1867,1855
1855,1901,1845
1819,1802,1778
1825,1791,1773
1866,1842,1850
1856,1839,1856
1828,1813,1782
1838,1808,1783
1852,1839,1837
1854,1840,1855
1846,1825,1808
1867,1839,1808
1875,1826,1869
1840,1809,1841
1810,1790,1777
1831,1818,1777
1851,1840,1846
1870,1847,1869
1863,1745,1811
1852,1833,1799
1840,1833,1837
1846,1822,1843
1833,1814,1790
1856,1838,1795
1855,1847,1842
1827,1827,1840
1819,1808,1792
1845,1841,1808
1851,1866,1845
1842,1834,1840
1815,1806,1780
1830,1894,1791
1868,1861,1861
1844,1865,1848
1824,1813,1793
1836,1872,1797
1861,1886,1855
1867,1850,1872
1849,1852,1808
1855,1848,1795
1840,1841,1833
1837,1835,1840
1831,1791,1793
1845,1828,1791
1872,1860,1846
1875,1863,1872
1831,1809,1789
1838,1836,1781
1851,1845,1836
1842,1825,1834
1843,1814,1794
1843,1829,1784
1839,1840,1817
1835,1841,1825
1823,1821,1789
1841,1835,1790
1860,1863,1842
1851,1858,1847
1829,1829,1790
1835,1839,1776
1855,1858,1840
1869,1863,1859
1841,1838,1794
1856,1854,1796
1868,1874,1838
1855,1847,1840
1805,1787,1744
1813,1803,1747
1853,1856,1840
1854,1853,1853
1841,1827,1801
1856,1841,1792
1871,1871,1847
1830,1829,1829
1824,1808,1786
1846,1840,1793
1855,1854,1840
1843,1847,1851
1830,1815,1791
1835,1830,1783
1867,1865,1850
1871,1856,1854
1851,1843,1806
1836,1822,1776
1846,1843,1820
1856,1856,1847
1831,1815,1787
1818,1808,1751
1842,1840,1814
1857,1845,1840
1849,1828,1798
1856,1840,1791
1880,1875,1846
1860,1852,1842
1840,1821,1780
1854,1839,1787
1862,1867,1837
1845,1845,1835
1835,1825,1780
1855,1841,1782
1871,1869,1845
1889,1891,1881
1846,1839,1800
1810,1802,1735
1829,1835,1791
1851,1840,1819
1821,1814,1771
1831,1823,1761
1855,1857,1817
1867,1861,1840
1859,1851,1793
1859,1841,1781
1839,1841,1804
1842,1842,1825
1840,1829,1783
1841,1845,1776
1872,1885,1841
1872,1877,1855
1860,1859,1799
1831,1827,1759
1853,1851,1815
1857,1858,1840
1853,1849,1794
1851,1850,1780
1855,1861,1830
1865,1870,1847
1847,1845,1793
1843,1845,1776
1856,1870,1825
1845,1847,1823
1822,1817,1775
1840,1844,1777
1870,1877,1838
1840,1853,1827
1837,1839,1776
1840,1854,1783
1870,1874,1838
1875,1891,1867
1849,1856,1803
1834,1827,1761
1856,1853,1821
1856,1861,1843
1837,1843,1798
1840,1853,1789
1863,1874,1846
1867,1871,1856
1841,1853,1801
1855,1866,1795
1871,1883,1843
1853,1873,1850
1839,1851,1793
1842,1851,1778
1873,1875,1839
1860,1874,1856
1840,1848,1802
1840,1847,1779
1866,1875,1839
1863,1875,1856
1840,1849,1807
1846,1854,1782
1868,1885,1847
1859,1886,1865
1850,1855,1808
1848,1857,1791
1865,1881,1843
1856,1877,1856
1845,1870,1805
1853,1867,1791
1871,1902,1850
1887,1915,1881
1838,1857,1795
1819,1836,1762
1842,1875,1822
1857,1881,1851
1842,1861,1806
1840,1867,1791
1861,1893,1845
1856,1891,1858
1843,1873,1814
1845,1875,1797
1871,1904,1853
1872,1906,1870
1856,1883,1808
1856,1879,1794
1875,1910,1850
1875,1909,1866
1854,1872,1809
1856,1872,1790
1879,1903,1850
1879,1899,1862
1856,1872,1806
1855,1872,1794
1882,1902,1855
1874,1898,1863
1851,1872,1794
1846,1881,1798
1867,1909,1870
1870,1905,1874
1856,1872,1814
1845,1872,1793
1867,1911,1872
1872,1934,1889
1855,1858,1847
1846,1840,1809
1860,1863,1814
1853,1872,1840
1855,1899,1811
1883,1935,1827
1893,1904,1859
1859,1847,1829
1836,1867,1814
1850,1968,1833
1920,1958,1898
1941,1919,1904
1892,1760,1857
1922,1737,1819
1898,1857,1731
1798,1836,1842
1845,1773,1830
1949,1818,1885
1951,1761,1877
1774,1739,1818
1793,1753,1873
1738,1771,1821
1719,1765,1814
1771,1698,1908
1876,1715,1794
1872,1823,1834
1854,1779,1913
1695,1662,2077
1840,1725,1783
2256,1815,1457
1747,1769,1616
1471,1647,1813
1728,1629,1975
2382,1741,1946
2282,1781,1424
1520,1648,1647
1286,1589,2125
1697,1655,1748
1698,1664,1881
1744,1798,2288
1725,1642,2021
1286,1294,1668
1219,1408,1715
1330,1674,1805
1476,1839,1869
1222,1377,1809
1105,1168,1823
1259,1380,1822
1404,1602,1858
1170,1296,1840
1164,1370,1808
1360,1375,1867
1411,1395,1840
1199,1339,1810
1088,1377,1842
934,1227,1835
1040,1377,1867
1227,1497,1822
1077,1319,1814
920,1296,1831
974,1297,1839
1264,1449,1856
1493,1632,1903
1094,1425,2447
829,1271,1914
863,1376,1316
1135,1438,1724
894,1072,1512
880,1105,1631
1008,1194,1764
1119,1305,1853
1094,1275,1833
1318,1444,1706
1217,1535,1290
1123,1422,1369
1111,1282,1429
1249,1370,1330
1227,1426,995
1159,1519,1159
1200,1429,1320
1104,1473,1294
1168,1511,1183
1264,1445,1188
1229,1491,1188
1183,1469,2043
1202,1535,1978
1310,1509,1872
1344,1557,1786
1246,1520,1739
1278,1533,1826
1377,1628,1856
1394,1535,1819
1276,1707,1825
1214,1727,1827
1345,1689,1833
1302,1481,1835
1246,1494,1823
1338,1875,1823
1419,1798,1857
1440,1561,1870
1358,1472,1807
1335,1707,1825
1424,1984,1834
1499,1870,1793
1441,1582,1804
1421,1623,1831
1462,1808,1827
1484,1898,1828
1559,1844,1853
1615,1829,1838
1535,1824,1825
1535,1904,1846
1607,1910,1852
1498,1834,1862
1422,1851,1802
1454,1871,1830
1489,1777,1843
1565,1814,1825
1578,1855,1893
1455,1835,1915
1418,1849,1853
1500,1890,1672
1570,1860,1777
1575,1962,1943
1516,1873,1818
1523,1917,1683
1582,1959,1776
1603,1832,1925
1535,1871,1761
1561,1852,1642
1600,1899,1815
1598,1938,1938
1601,1893,1844
1593,1949,1641
1558,1968,1707
1558,1876,1847
1645,1910,1808
1584,1860,1749
1643,1879,1760
1664,2010,1856
1600,1947,1830
1560,1849,1654
1634,1953,1679
1681,1965,1831
1698,2000,1792
1566,1887,1603
1628,1967,1717
1680,1927,1905
1623,1833,1712
1648,1919,1690
1714,2075,1804
1650,1959,1840
1635,1877,1675
1709,1914,1650
1727,2038,1774
1666,1936,1825
1613,1948,1677
1679,1991,1687
1732,1936,1805
1708,1893,1811
1684,1914,1744
1745,2026,1681
1798,2005,1680
1708,2032,1876
1659,1947,1765
1662,1835,1569
1721,1919,1682
1794,2028,1834
1728,1951,1744
1703,1892,1613
1794,1971,1823
1767,2083,1897
1717,1974,1728
1754,1907,1571
1779,1949,1715
1744,2058,1783
1695,1922,1722
1778,1825,1706
1806,1919,1711
1744,2005,1831
1761,2020,1792
1840,2042,1609
1817,1936,1665
1774,2044,1871
1783,2112,1821
1759,1867,1575
1777,1847,1682
1785,1951,1791
1823,2013,1730
1808,1922,1654
1831,2016,1776
1813,2123,1825
1713,1936,1764
1741,1797,1613
1803,1905,1765
1872,2090,1839
1896,2004,1709
1786,1912,1585
1834,1983,1728
1817,2000,1875
1904,1981,1808
1805,1924,1703
1792,1984,1685
1788,2017,1779
1807,1895,1641
1819,1927,1659
1904,2019,1741
1896,1969,1797
1808,1867,1741
1838,1962,1680
1887,2087,1782
1875,2035,1901
1808,1911,1691
1811,1877,1590
1876,2021,1747
1904,1962,1874
1807,1814,1792
1794,1939,1611
1858,2025,1662
1836,1958,1808
1857,1919,1769
1883,1984,1745
1903,1978,1808
1941,2010,1819
1843,1891,1669
1856,1894,1623
1903,1979,1770
1895,1977,1873
1866,2000,1792
1883,1913,1691
1883,1885,1727
1919,1975,1808
1867,1936,1766
1859,1906,1727
1906,1966,1746
1934,1936,1851
1907,1954,1745
1877,2011,1626
1908,1954,1804
1910,1896,1880
1895,1942,1843
1927,1935,1680
1935,2011,1767
1819,1885,1836
1869,1875,1693
1973,1936,1618
1955,2023,1773
1877,1904,1916
1913,1872,1893
1942,1939,1655
1899,1904,1675
1904,1927,1854
1925,1966,1789
1903,1918,1738
1954,1915,1762
1925,1927,1868
1926,1970,1806
1951,2025,1671
1963,2007,1735
1905,1811,1855
1872,1799,1787
1919,1916,1712
1945,1921,1785
1936,1977,1850
1942,1936,1840
1948,1920,1715
1981,1983,1776
1932,1894,1850
1888,1958,1728
2017,1946,1777
2000,1872,1831
1893,1840,1811
1875,1860,1716
1958,1905,1664
1954,1933,1781
1879,1945,1897
1886,1884,1830
2084,1979,1808
1970,1917,1751
1899,1856,1779
1967,1883,1769
2000,1872,1808
2015,1984,1903
1926,1959,1854
1901,1901,1707
1947,1941,1680
2037,2015,1803
1925,1713,1856
1903,1749,1857
1936,1871,1697
1983,1934,1803
1989,2066,1920
1911,1893,1807
1903,1822,1665
1979,1872,1744
1947,1920,1850
1977,1951,1863
1930,1897,1739
1938,1849,1767
1949,1859,1890
1838,1828,1791
1945,1931,1707
2016,1999,1808
2055,1898,1899
1854,1782,1801
1919,1793,1705
1947,1890,1820
1936,1919,1915
2014,1901,1843
1949,1905,1698
2006,1897,1782
1965,1872,1845
1854,1903,1806
1951,1931,1792
1968,1925,1876
1968,1846,1873
1909,1838,1744
1942,1852,1687
2005,1938,1819
1981,1886,1959
1942,1799,1783
1930,1882,1648
2000,1943,1774
1941,1853,1873
1936,1870,1841
1977,1968,1769
1975,1899,1868
1931,1793,1878
1923,1836,1811
1973,1840,1728
2021,1845,1806
1935,1821,1840
1927,1986,1770
1999,1907,1706
1980,1818,1779
1918,1869,1911
1936,1913,1844
1949,1888,1712
1937,1830,1813
2000,1834,1968
1954,1838,1931
1961,1871,1687
2017,1904,1725
1931,1858,1840
1914,1840,1835
1904,1889,1745
1943,1910,1847
1931,1874,1875
1941,1776,1814
1947,1803,1703
1989,1891,1801
1986,1887,1938
1970,1850,1902
1935,1819,1793
1984,1834,1840
2003,1907,1859
1967,2039,1795
1951,1899,1759
2025,1970,1827
1917,1701,1799
1886,1676,1802
1923,1776,1790
1989,1869,1786
1957,1899,1873
1968,1914,1795
1968,1984,1725
1965,1818,1790
1981,1828,1920
1979,1707,1924
1903,1750,1693
1919,1873,1786
1932,1861,1925
1951,1908,1840
1978,1879,1779
1943,1805,1759
1920,1867,1831
1942,1935,1883
1984,1855,1745
2000,1853,1819
1943,1843,1890
1951,1765,1849
1929,1815,1714
1968,1872,1790
1967,1887,1931
1968,1853,1898
1968,1860,1727
1985,1838,1762
1906,1815,1931
1910,1791,1840
2013,1840,1776
2003,1884,1786
1910,1840,1843
1877,1751,1807
1943,1828,1751
1970,1920,1824
1956,1841,1992
1900,1767,1746
1952,1888,1636
1943,1786,1800
1918,1761,1927
1938,1865,1865
1966,1859,1725
1997,1859,1859
1950,1909,1907
1904,1851,1806
1900,1762,1730
1938,1823,1839
1968,1849,1925
1969,1810,1830
1951,1828,1759
1939,1866,1871
1974,1895,1936
1905,1844,1785
1887,1798,1706
1941,1799,1805
1936,1829,1846
1945,1858,1808
1956,1872,1777
2003,1950,1927
1958,1842,1936
1847,1722,1711
1904,1734,1690
1984,1822,1808
1973,1975,1923
1919,1907,1839
1899,1795,1712
1946,1761,1829
1904,1775,1898
1872,1865,1776
1935,1907,1699
1958,1839,1839
1947,1841,1957
1920,1818,1863
1906,1830,1742
1951,1883,1813
1926,1879,1911
1881,1824,1798
1911,1813,1745
1979,1837,1882
2000,1970,2033
1934,1899,1852
1871,1709,1616
1907,1771,1731
1918,1834,1901
1906,1866,1817
1958,1879,1770
1939,1856,1829
1929,1821,1946
1898,1798,1791
1929,1865,1691
1921,1833,1753
1904,1809,1928
1933,1914,1901
1938,1957,1779
1929,1787,1838
1907,1662,1825
1923,1783,1769
1917,1923,1707
1927,1899,1795
1923,1755,1923
1877,1744,1776
1902,1872,1726
2045,2046,1985
1997,1973,1948
1838,1616,1729
1808,1619,1590
1909,1872,1794
1918,1843,1994
1909,1842,1808
1926,1904,1680
1984,1933,1774
1961,1893,1901
1853,1778,1831
1882,1697,1797
1919,1799,1822
1914,1854,1857
1904,1858,1824
1921,1878,1749
1950,1812,1834
1904,1826,1918
1863,1771,1839
1904,1871,1680
1931,1853,1740
1965,1736,1943
1907,1788,1906
1904,1955,1731
1918,1865,1776
1904,1826,1872
1887,1771,1834
1879,1777,1749
1953,1795,1794
1953,1850,1872
1895,1840,1795
1887,1883,1722
1917,1842,1822
1874,1780,1943
1851,1808,1814
1885,1842,1685
1938,1902,1866
1921,1840,1925
1942,1919,1895
1907,1759,1633
1875,1735,1717
1877,1811,1872
1911,1871,1870
1947,1849,1797
1931,1877,1891
1867,1934,1911
1838,1873,1749
1895,1750,1681
1917,1759,1770
1910,1882,1921
1931,1895,1968
1887,1891,1723
1901,1728,1698
1883,1781,1879
1844,1824,1794
1888,1907,1776
1967,1892,1919
1907,1817,1877
1827,1808,1766
1863,1761,1679
1951,1823,1723
1899,1871,1903
1854,1879,1923
1881,1803,1793
1936,1744,1803
1910,1783,1893
1842,1857,1821
1873,1863,1735
1895,1848,1782
1869,1863,1965
1867,1892,1873
1918,1837,1705
1936,1843,1794
1881,1825,1941
1843,1792,1794
1905,1837,1691
1997,1872,1849
1881,1935,1884
1829,1885,1895
1867,1759,1773
1884,1783,1770
1855,1834,1840
1873,1868,1839
1872,1867,1740
1904,1828,1763
1881,1765,1882
1819,1791,1820
1885,1885,1735
1917,1861,1788
1929,1827,1922
1838,1866,1901
1861,1882,1762
1961,2030,1822
1943,1936,1877
1867,1711,1776
1820,1718,1705
1856,1872,1814
1871,1828,1920
1881,1773,1830
1886,1869,1722
1955,1948,1878
1857,1792,1874
1818,1745,1867
1861,1943,1697
1933,1983,1775
1898,1830,1867
1858,1701,1856
1872,1732,1707
1929,1857,1776
1914,1925,1909
1862,1911,1845
1832,1788,1759
1851,1834,1816
1862,1923,1888
1808,1792,1751
1852,1775,1686
1886,1858,1763
1883,1829,1901
1840,1851,1839
1872,1827,1773
1910,1808,1802
1893,1891,1893
1851,1899,1850
1879,1903,1739
1886,1837,1822
1879,1788,1888
1856,1834,1863
1821,1838,1743
1836,1816,1719
1830,1921,1844
1827,1776,1818
1850,1856,1702
1865,1882,1777
1840,1635,1891
1838,1814,1862
1863,1920,1717
1930,1947,1824
1923,1936,1969
1893,1909,1827
1807,1795,1652
1808,1751,1717
1823,1762,1893
1827,1858,1874
1856,1915,1744
1934,1833,1820
1844,1754,1837
1786,1771,1813
1804,1790,1702
1861,1828,1793
1879,1911,1937
1919,1901,1904
1873,1840,1744
1809,1808,1742
1802,1770,1808
1815,1780,1808
1879,1933,1776
1926,2058,1872
1840,1822,1872
1769,1667,1734
1818,1798,1680
1874,1891,1817
1835,1821,1916
1838,1856,1876
1893,1872,1810
1903,1882,1760
1872,1857,1861
1841,1915,1878
1845,1771,1722
1837,1776,1724
1818,1801,1822
1803,1802,1783
1867,1904,1767
1909,1898,1839
1856,1778,1861
1817,1845,1825
1843,1777,1744
1882,1783,1777
1840,1856,1899
1801,1899,1840
1887,1899,1839
1921,1920,1756
1826,1787,1801
1821,1817,1813
1813,1837,1745
1858,1875,1773
1830,1803,1871
1815,1825,1872
1847,1825,1756
1878,1862,1779
1868,1951,1880
1856,1937,1851
1808,1776,1708
1828,1712,1766
1842,1758,1868
1811,1805,1814
1899,1894,1754
1904,1907,1839
1840,1854,1902
1841,1904,1865
1824,1937,1779
1840,1787,1824
1851,1721,1891
1842,1824,1751
1851,1901,1702
1858,1877,1797
1861,1781,1904
1839,1817,1845
1857,1895,1749
1878,1855,1807
1889,1920,1951
1843,1899,1872
1827,1808,1712
1850,1769,1783
1847,1805,1968
1810,1796,1808
1847,1807,1699
1842,1823,1744
1834,1874,1885
1838,1915,1872
1874,1899,1798
1902,1914,1824
1825,1727,1871
1808,1748,1857
1856,1914,1750
1889,1847,1767
1888,1853,1905
1849,1851,1872
1825,1914,1764
1842,1764,1811
1815,1731,1869
1795,1776,1838
1813,1875,1741
1856,1926,1762
1835,1827,1892
1817,1827,1839
1871,1925,1776
1872,1889,1803
1815,1797,1886
1844,1766,1832
1845,1825,1808
1840,1778,1801
1828,1815,1872
1830,1886,1840
1844,1977,1774
1859,1911,1776
1842,1793,1871
1823,1735,1805
1842,1746,1749
1875,1833,1823
1809,1842,1819
1776,1818,1810
1846,1840,1801
1877,1910,1808
1817,1859,1834
1805,1855,1821
1862,1938,1776
1921,1968,1861
1874,1812,1872
