2032,1979,1902
2017,1967,1859
1987,1946,1737
2004,1966,1792
1999,1965,1911
2032,1983,1935
2067,2000,1838
1973,1954,1715
1920,1929,1767
1954,1939,1817
2015,1983,1759
2023,1971,1807
1968,1945,1863
1946,1937,1801
2005,1965,1914
2000,1946,1790
1958,1932,1728
1924,1919,1697
1966,1942,1679
1999,1968,1776
1943,1917,1870
1916,1891,1884
1937,1904,1680
1968,1935,1738
1929,1925,1759
1909,1904,1714
1951,1931,1684
2017,1935,1879
1963,1883,1870
1856,1872,1690
1861,1874,1535
1883,1875,1679
1879,1874,1805
1865,1873,1765
1904,1886,1678
1969,1919,1763
1968,1906,1873
1835,1835,1749
1808,1824,1702
1850,1859,1630
1819,1858,1719
1511,1854,1723
1872,1869,1655
1959,1853,1678
1881,1838,1751
1826,1813,1676
1823,1842,1611
1827,1859,1692
1840,1843,1797
1839,1840,1743
1836,1845,1654
1833,1863,1677
1834,1825,1743
1837,1799,1835
1831,1835,1587
1827,1841,1575
1830,1818,1681
1833,1831,1684
1838,1830,1589
1833,1823,1652
1831,1786,1747
1834,1779,1762
1837,1811,1629
1835,1840,1626
1831,1813,1726
1833,1799,1676
1835,1815,1599
1835,1814,1694
1833,1803,1747
1831,1799,1666
1831,1814,1569
1837,1840,1671
1834,1806,1758
1840,1776,1694
1898,1808,1600
1919,1829,1648
1871,1819,1742
1865,1797,1706
1912,1799,1607
1909,1809,1653
1845,1799,1744
1839,1803,1689
1905,1834,1623
1959,1833,1840
1872,1794,1742
1824,1775,1555
1874,1808,1523
1909,1828,1645
1877,1809,1757
1857,1794,1685
1875,1808,1597
1906,1824,1678
1859,1812,1773
1831,1774,1689
1881,1781,1555
1921,1823,1653
1881,1787,1817
1841,1771,1683
1885,1795,1584
1885,1808,1619
1842,1789,1744
1842,1779,1735
1903,1811,1643
1904,1809,1694
1855,1786,1785
1865,1791,1713
1872,1786,1594
1854,1797,1636
1815,1776,1747
1815,1775,1744
1872,1795,1719
1877,1805,1561
1837,1766,1648
1806,1754,1662
1852,1779,1595
1871,1791,1649
1821,1761,1749
1782,1748,1668
1826,1776,1590
1891,1802,1685
1838,1769,1843
1789,1751,1714
1846,1789,1626
1871,1835,1675
1835,1790,1767
1799,1764,1719
1842,1776,1631
1874,1799,1648
1815,1744,1786
1799,1715,1759
1846,1822,1633
1883,1870,1671
1858,1806,1762
1867,1765,1694
1839,1787,1657
1843,1833,1739
1858,1826,1844
1983,1840,1719
1919,1811,1648
1779,1763,1711
1735,1761,1826
1776,1835,1772
1874,1850,1611
1904,1840,1744
1840,1797,1859
1807,1791,1782
1856,1810,1662
1903,1856,1764
1882,1857,1877
1856,1855,1854
1875,1833,1726
1890,1835,1778
1863,1829,1859
1854,1821,1802
1904,1861,1712
1911,1869,1780
1871,1843,1839
1872,1841,1834
1943,1867,1761
1909,1813,1738
1823,1849,1856
1825,1853,1847
1901,1867,1790
1936,1883,1884
1889,1851,1968
1853,1839,1826
1898,1887,1715
1920,1904,1775
1891,1839,1912
1845,1827,1886
1894,1856,1751
1917,1877,1834
1867,1920,1921
1851,1860,1864
1911,1870,1776
1946,1859,1849
1878,1826,1958
1856,1919,1875
1898,1927,1742
1936,1915,1827
1911,1902,2085
1889,1957,1929
1897,1872,1798
1925,1847,1833
1899,1843,1949
1872,1870,1899
1907,1893,1781
1935,1920,1877
1909,1924,1974
1904,2055,1966
1988,2309,1901
1922,1872,1808
1931,1635,1920
1904,1715,1863
1847,1787,1771
1872,1835,1899
1855,1797,2000
1825,1905,1814
1872,1962,1703
1947,1968,1823
1937,1917,1911
1865,1892,1893
1895,1934,1825
1958,1942,1902
1904,2000,1995
1827,1874,1898
1870,1856,1725
1936,1918,1873
1907,1925,2031
1879,1909,1898
1935,1968,1842
2019,2007,1914
1939,1968,1986
1846,1909,1906
1906,1936,1807
1968,2000,1964
1923,1959,2053
1883,1938,1855
1948,1949,1750
1986,1968,1861
1930,1968,1968
1897,1978,1938
1958,2010,1851
1999,2017,1920
1982,1999,2032
1921,1995,1907
1957,2043,1859
2019,2011,1930
2037,2000,2064
1929,1954,1946
1904,1985,1855
1959,2056,1872
2240,2146,2208
2483,2237,2352
1861,1903,1757
1646,1847,1602
1744,1905,1826
1919,1996,1956
1973,2005,1886
1959,1966,1856
1920,1973,1936
1885,1942,1958
1980,2007,1873
2007,2115,1976
1929,2033,1913
1866,1841,1843
1936,1890,1808
1990,1975,1926
1981,2001,2061
1940,1995,1969
2061,2064,1939
2117,2064,2038
1896,1937,1920
1827,1930,1844
1886,1971,1795
1953,1996,1905
1918,1968,2015
1908,1971,1958
1971,2000,1872
1989,2015,1939
1936,1981,2033
1909,1966,1974
1952,1985,1864
1990,2000,1921
1978,1984,2047
1936,1968,2001
1936,1980,1855
1962,1984,1899
1930,1936,1984
1927,1947,1937
1980,1968,1855
1979,1987,1936
1923,1948,2028
1906,1932,1967
1975,1968,1871
2004,1973,1923
1904,1907,1982
1873,1897,1927
1984,1963,1886
2000,1957,1936
1882,1893,1946
1860,1889,1887
1952,1933,1838
1939,1921,1871
1872,1891,1952
1878,1895,1905
1953,1936,1838
1984,1903,1862
1882,1873,1949
1910,1890,1904
1937,1936,1887
1955,1910,1895
1839,1873,1945
1841,1871,1888
1983,1915,1771
1979,1899,1808
1859,1874,1996
1801,1837,1915
1867,1872,1781
1923,1875,1810
1843,1854,1935
1866,1851,1902
1872,1894,1808
1901,1883,1851
1882,1838,1922
1843,1829,1942
1871,1865,1849
1899,1898,1809
1883,1872,1887
1830,1839,1833
1856,1850,1722
1860,1847,1786
1831,1827,1917
1851,1829,1879
1840,1857,1744
1904,1874,1817
1819,1846,1931
1824,1809,1856
1839,1839,1729
1874,1857,1797
1804,1811,1873
1825,1816,1837
1897,1872,1783
1910,1852,1787
1845,1808,1837
1769,1798,1851
1771,1834,1823
1820,1831,1754
1810,1799,1835
1797,1799,1804
1852,1855,1738
1856,1841,1822
1747,1783,1878
1744,1792,1779
1789,1813,1642
1842,1818,1727
1786,1793,1920
1767,1792,1806
1809,1808,1670
1857,1867,1733
1809,1825,1840
1765,1788,1808
1815,1814,1722
1791,1833,1759
1797,1809,1903
1764,1789,1831
1804,1808,1691
1829,1807,1738
1755,1792,1823
1775,1802,1811
1809,1838,1721
1803,1831,1716
1734,1790,1823
1794,1792,1791
1759,1809,1640
1783,1825,1723
1750,1818,1836
1707,1807,1801
1791,1805,1726
1806,1835,1800
1744,1809,1919
1731,1763,1809
1769,1813,1629
1801,1846,1699
1761,1808,1835
1727,1795,1791
1778,1840,1703
1844,1831,1789
1776,1803,1857
1706,1813,1761
1731,1825,1637
1776,1837,1728
1751,1794,1872
1729,1811,1813
1778,1841,1745
1829,1849,1813
1710,1802,1862
1824,1791,1776
1757,1819,1661
1756,1841,1713
1783,1840,1838
1747,1824,1806
1811,1829,1706
1797,1833,1762
1742,1802,1827
1664,1795,1782
1777,1849,1745
1808,1840,1783
1749,1809,1829
1714,1777,1739
1767,1826,1648
1802,1844,1747
1786,1815,1917
1744,1808,1827
1760,1853,1678
1791,1872,1719
1771,1811,1832
1709,1810,1808
1819,1861,1737
1810,1861,1807
1773,1808,1874
1807,1810,1808
1739,1851,1631
1808,1861,1710
1771,1806,1856
1745,1795,1825
1790,1845,1702
1760,1856,1747
1760,1810,1872
1711,1802,1825
1765,1851,1710
1808,1871,1763
1776,1817,1865
1797,1823,1839
1803,1853,1770
1835,1835,1766
1747,1826,1825
1712,1840,1779
1739,1859,1730
1817,1856,1757
1757,1814,1859
1747,1803,1825
1865,1840,1771
1878,1858,1860
1744,1807,1808
1672,1794,1709
1742,1840,1653
1808,1866,1759
1782,1842,1873
1732,1814,1811
1774,1818,1711
1814,1856,1791
1731,1812,1878
1741,1840,1795
1815,1877,1690
1802,1871,1753
1792,1828,1870
1739,1818,1826
1778,1853,1730
1808,1872,1797
1780,1831,1918
1709,1806,1840
1731,1839,1669
1761,1855,1727
1743,1816,1869
1663,1840,1825
1780,1867,1741
1870,1863,1773
1794,1842,1875
1744,1821,1821
1753,1840,1689
1789,1840,1743
1779,1814,1870
1749,1845,1837
1791,1884,1712
1810,1883,1755
1779,1843,1872
1766,1830,1840
1802,1850,1745
1824,1872,1797
1772,1839,1855
1757,1843,1812
1788,1872,1712
1811,1883,1782
1776,1853,1878
1744,1840,1840
1806,1862,1814
1866,1871,1835
1765,1810,1787
1734,1838,1766
1776,1867,1684
1803,1856,1741
1767,1821,1874
1750,1845,1846
1803,1872,1744
1840,1890,1796
1789,1828,1898
1761,1819,1841
1805,1872,1750
1847,1891,1803
1794,1839,1892
1753,1825,1872
1801,1870,1749
1847,1882,1798
1808,1848,1877
1728,1809,1807
1763,1836,1712
1814,1858,1765
1799,1840,1885
1778,1840,1859
1802,1869,1744
1813,1872,1777
1776,1835,1893
1749,1837,1849
1802,1857,1754
1827,1903,1808
1791,1877,1905
1759,1846,1846
1799,1859,1746
1830,1867,1798
1797,1840,1927
1758,1815,1841
1805,1870,1727
1845,1891,1792
1798,1851,1895
1776,1836,1861
1835,1867,1786
1850,1888,1831
1776,1840,1897
1738,1812,1840
1802,1854,1739
1827,1847,1775
1776,1829,1873
1745,1834,1833
1797,1858,1730
1840,1856,1790
1811,1822,1909
1773,1819,1865
1808,1868,1751
1841,1889,1840
1782,1827,1898
1744,1812,1830
1797,1863,1745
1847,1877,1813
1790,1840,1906
1773,1831,1865
1805,1870,1779
1856,1886,1819
1805,1824,1887
1748,1808,1827
1783,1859,1731
1831,1857,1801
1781,1821,1913
1753,1825,1856
1791,1876,1742
1825,1891,1792
1781,1840,1891
1774,1840,1877
1805,1869,1794
1831,1887,1817
1791,1845,1890
1754,1830,1840
1808,1853,1765
1879,1904,1841
1808,1869,1899
1759,1843,1840
1794,1856,1749
1809,1851,1793
1771,1819,1879
1751,1833,1823
1808,1873,1735
1842,1887,1795
1807,1858,1910
1761,1836,1847
1791,1850,1747
1840,1884,1847
1794,1841,1890
1771,1810,1826
1810,1842,1744
1847,1865,1831
1802,1835,1910
1761,1810,1827
1815,1861,1744
1858,1887,1815
1791,1839,1920
1763,1826,1974
1804,1856,1778
1838,1866,1680
1808,1843,1808
1776,1841,1833
1807,1841,1771
1823,1849,1793
1782,1810,1845
1762,1803,1823
1815,1837,1741
1845,1862,1793
1798,1845,1891
1778,1857,1895
1825,1887,1762
1857,1841,1782
1786,1795,1857
1759,1809,1813
1802,1854,1717
1838,1858,1776
1808,1818,1904
1786,1823,1875
1813,1840,1770
1861,1859,1795
1814,1836,1890
1770,1803,1828
1783,1837,1726
1837,1881,1846
1810,1841,1931
1778,1827,1856
1808,1854,1703
1840,1891,1735
1801,1846,1872
1777,1805,1839
1807,1840,1730
1850,1889,1794
1821,1840,1909
1779,1801,1875
1819,1842,1735
1837,1862,1749
1813,1845,1911
1793,1834,1867
1833,1860,1754
1853,1840,1783
1809,1810,1883
1783,1786,1855
1818,1872,1758
1858,1887,1833
1829,1922,1921
1799,1826,1866
1822,1858,1731
1833,1889,1795
1801,1842,1930
1785,1842,1832
1839,1904,1725
1857,1868,1777
1795,1841,1904
1775,1797,1834
1822,1857,1723
1856,1845,1763
1809,1822,1884
1787,1822,1883
1823,1840,1788
1863,1899,1788
1808,1843,1868
1791,1844,1886
1814,1859,1747
1840,1842,1762
1808,1808,1865
1793,1831,1855
1824,1818,1758
1842,1868,1787
1806,1840,1890
1790,1818,1871
1840,1866,1762
1874,1927,1802
1807,1820,1917
1774,1843,1856
1827,1872,1738
1855,1870,1717
1831,1842,1854
1790,1821,1809
1830,1906,1760
1878,1942,1823
1821,1843,1885
1779,1833,1808
1821,1878,1737
1870,1885,1839
1843,1846,1925
1808,1842,1851
1837,1850,1728
1869,1895,1740
1823,1851,1866
1795,1853,1850
1840,1878,1757
1879,1899,1803
1827,1815,1905
1767,1841,1840
1818,1936,1730
1872,1887,1790
1845,1862,1918
1775,1829,1850
1802,1819,1726
1859,1893,1778
1840,1826,1903
1814,1867,1920
1834,1856,1709
1859,1890,1731
1815,1866,1890
1791,1858,1873
1842,1890,1807
1853,1869,1776
1808,1826,1819
1806,1810,1827
1834,1894,1757
1867,1857,1842
1811,1825,1882
1775,1870,1809
1808,1872,1715
1860,1873,1813
1833,1829,1920
1808,1866,1887
1840,1904,1817
1862,1907,1803
1814,1869,1853
1779,1833,1840
1814,1856,1695
1844,1867,1744
1806,1872,1883
1811,1808,1873
1841,1870,1766
1859,1854,1785
1825,1843,1915
1781,1837,1878
1821,1907,1706
1847,1910,1793
1813,1935,1887
1805,1859,1872
1822,1889,1744
1860,1901,1783
1811,1857,1867
1776,1817,1841
1799,1861,1714
1863,1903,1778
1840,1888,1955
1803,1822,1874
1798,1835,1730
1839,1872,1722
1805,1840,1835
1792,1810,1866
1846,1897,1765
1872,1947,1767
1808,1847,1843
1794,1813,1827
1835,1886,1745
1863,1883,1808
1840,1865,1910
1803,1846,1872
1842,1828,1798
1872,1904,1814
1806,1807,1818
1796,1869,1829
1857,1878,1792
1858,1878,1806
1814,1902,1843
1803,1903,1807
1835,1883,1799
1839,1922,1774
1819,1872,1866
1847,1862,1873
1840,1930,1776
1847,1892,1808
1809,1774,1872
1767,1790,1809
1793,1779,1722
1860,1885,1822
1847,1879,1934
1823,1907,1877
1836,1890,1794
1847,1885,1818
1807,1853,1883
1808,1867,1841
1856,1887,1760
1886,1888,1791
1813,1855,1904
1757,1826,1850
1789,1791,1709
1856,1909,1787
1836,1859,1948
1779,1821,1890
1823,1845,1729
1872,1905,1771
1812,1881,1869
1776,1821,1870
1840,1953,1762
1868,1904,1769
1823,1855,1920
1805,1839,1901
1811,1894,1725
1836,1891,1787
1804,1824,1868
1793,1827,1791
1840,1904,1733
1881,1921,1838
1808,1840,1904
1763,1810,1819
1815,1849,1734
1840,1862,1763
1814,1834,1854
1796,1872,1873
1875,1937,1859
1857,1911,1755
1768,1853,1789
1771,1838,1882
1823,1872,1763
1846,1853,1772
1818,1853,1920
1783,1873,1847
1837,1882,1781
1887,1919,1831
1820,1889,1934
1757,1837,1848
1810,1863,1678
1857,1893,1776
1808,1869,1897
1797,1875,1842
1854,1913,1776
1858,1879,1792
1829,1835,1893
1789,1808,1840
1808,1874,1752
1840,1887,1809
1806,1886,1937
1795,1879,1936
1831,1899,1691
1840,1859,1722
1808,1829,1845
1802,1849,1880
1831,1849,1762
1877,1916,1808
1823,1887,1918
1792,1883,1887
1852,1862,1776
1878,1845,1871
1831,1846,1938
1757,1877,1773
1791,1911,1643
1872,1933,1774
1833,1872,1922
1804,1831,1877
1827,1866,1758
1850,1888,1792
1813,1859,1914
1808,1864,1939
1840,1872,1776
1875,1857,1799
1827,1846,1856
1792,1862,1851
1824,1874,1792
1866,1902,1776
1833,1883,1903
1805,1855,1841
1850,1883,1804
1878,1915,1814
1838,1873,1895
1789,1840,1840
1863,1882,1791
1871,1875,1808
1826,1851,1877
1776,1826,1834
1826,1867,1798
1872,1905,1796
1840,1865,1872
1808,1833,1877
1842,1853,1771
1851,1886,1744
1809,1855,1856
1789,1851,1870
1837,1877,1763
1872,1889,1808
1816,1854,1939
1795,1840,1874
1856,1890,1776
1897,1905,1830
1839,1866,1921
1796,1852,1853
1804,1873,1682
1859,1890,1783
1831,1806,1922
1776,1800,1854
1821,1899,1737
1865,1885,1789
1827,1871,1919
1790,1859,1901
1824,1855,1734
1863,1856,1747
1839,1848,1904
1801,1852,1872
1842,1907,1782
1871,1887,1783
1834,1829,1904
1803,1819,1885
1844,1850,1763
1894,1893,1808
1852,1846,1906
1781,1840,1845
1808,1889,1721
1841,1890,1754
1808,1838,1879
1782,1840,1887
1840,1889,1776
1872,1901,1779
1831,1840,1942
1790,1852,1868
1823,1863,1701
1852,1842,1744
1813,1812,1911
1800,1852,1858
1836,1867,1755
1877,1884,1808
1826,1834,1914
1799,1858,1866
1844,1887,1744
1855,1844,1787
1815,1803,1948
1779,1829,1856
1813,1883,1679
1844,1878,1777
1806,1844,1920
1794,1837,1855
1806,1863,1695
1841,1907,1775
1822,1865,1891
1798,1840,1867
1810,1836,1750
1841,1872,1793
1824,1883,1885
1806,1856,1898
1843,1907,1769
1873,1873,1776
1803,1865,1876
1777,1857,1848
1826,1875,1789
1855,1863,1802
1819,1847,1879
1760,1833,1805
1793,1863,1709
1841,1867,1762
1808,1826,1859
1787,1845,1840
1839,1895,1766
1879,1901,1867
1831,1846,1906
1748,1819,1762
1809,1849,1731
1870,1899,1811
1824,1877,1904
1779,1845,1840
1834,1855,1745
1862,1853,1793
1819,1830,1902
1774,1808,1862
1801,1839,1671
1847,1901,1771
1813,1877,1892
1787,1838,1885
1817,1826,1765
1865,1862,1805
1809,1838,1882
1782,1838,1830
1810,1863,1786
1870,1870,1780
1814,1812,1867
1783,1819,1845
1819,1857,1740
1855,1870,1761
1837,1842,1857
1828,1856,1883
1805,1859,1731
1841,1851,1763
1821,1840,1889
1797,1801,1874
1855,1810,1822
1851,1873,1809
1791,1870,1833
1769,1841,1781
1830,1859,1702
1846,1871,1747
1814,1840,1881
1793,1885,1854
1802,1871,1712
1841,1871,1777
1823,1862,1906
1794,1872,1956
1827,1843,1737
1838,1837,1705
1790,1853,1813
1782,1859,1824
1825,1870,1759
1840,1879,1790
1803,1894,1899
1785,1850,1833
1825,1913,1741
1840,1909,1835
1823,1886,1973
1815,1866,1855
1850,1882,1685
1833,1894,1706
1821,1898,1859
1779,1814,1863
1814,1815,1778
1852,1917,1884
1816,1939,1861
1780,1889,1775
1820,1856,1683
1871,1808,1818
1835,1934,1941
1768,1904,1801
1802,1917,1679
1857,1917,1799
1841,1886,1882
1811,1846,1909
1838,1865,1729
1852,1863,1743
1807,1866,1817
1815,1876,1857
1818,1872,1724
1838,1877,1767
1817,1849,1877
1815,1877,1923
1849,1914,1808
1855,1935,1766
1799,1850,1842
1774,1808,1835
1825,1873,1732
1856,1936,1829
1825,1901,1890
1808,1872,1864
1835,1891,1723
1872,1899,1771
1838,1836,1899
1779,1809,1856
1840,1911,1771
1856,1921,1755
1831,1872,1889
1806,1849,1885
1831,1892,1749
1871,1913,1761
1815,1875,1890
1790,1872,1927
1830,1902,1711
1866,1920,1750
1822,1872,1899
1802,1839,1866
1842,1840,1767
1857,1874,1780
1824,1875,1883
1795,1873,1843
1836,1866,1719
1906,1939,1818
1849,1904,1872
1793,1872,1817
1822,1889,1709
1863,1916,1744
1818,1869,1872
1793,1835,1919
1818,1891,1765
1853,1904,1806
1823,1879,1903
1803,1855,1841
1827,1873,1709
1862,1921,1780
1817,1893,1925
1793,1856,1906
1819,1811,1728
1851,1886,1721
1840,1886,1887
1797,1840,1872
1829,1869,1760
1878,1904,1814
1812,1921,1865
1793,1923,1861
1829,1899,1774
1854,1847,1744
1791,1879,1786
1782,1869,1932
1827,1881,1738
1858,1893,1763
1827,1903,1841
1776,1877,1840
1810,1875,1722
1868,1898,1797
1829,1871,1914
1783,1821,1878
1805,1881,1724
1854,1904,1790
1829,1865,1895
1808,1850,1857
1818,1859,1741
1869,1928,1793
1829,1879,1920
1799,1843,1867
1838,1886,1781
1862,1886,1739
1837,1867,1903
1773,1833,1769
1811,1818,1733
1872,1865,1804
1808,1920,1856
1763,1879,1842
1807,1869,1719
1869,1872,1770
1838,1875,1910
1801,1869,1878
1840,1904,1712
1872,1878,1822
1855,1872,1953
1791,1840,1872
1808,1871,1691
1863,1929,1771
1829,1833,1905
1791,1789,1867
1844,1875,1761
1885,1950,1808
1840,1891,1900
1807,1847,1874
1839,1851,1779
1863,1866,1830
1840,1883,1895
1815,1871,1868
1846,1866,1770
1882,1879,1811
1861,1855,1936
1807,1811,1885
1837,1849,1751
1876,1905,1801
1850,1872,1891
1806,1845,1872
1840,1870,1767
1857,1901,1767
1835,1874,1891
1793,1853,1870
1850,1874,1825
1879,1890,1814
1843,1841,1895
1804,1857,1851
1843,1889,1756
1889,1905,1826
1853,1851,1957
1798,1823,1893
1831,1863,1753
1872,1903,1760
1855,1906,1881
1818,1862,1877
1840,1859,1803
1891,1876,1840
1872,1915,1904
1778,1876,1813
1845,1845,1694
1845,1855,1770
1835,1823,1914
1801,1828,1898
1918,1872,1776
1909,1927,1790
1843,1876,1917
1766,1853,1895
1872,1899,1758
1852,1911,1776
1883,1837,1904
1796,1821,1901
1862,1887,1782
1855,1888,1771
1819,1840,1903
1838,1871,1872
1857,1874,1764
1891,1891,1814
1868,1868,1920
1806,1857,1851
1841,1886,1771
1890,1897,1811
1842,1851,1881
1818,1842,1856
1857,1859,1760
1893,1871,1776
1837,1840,1885
1861,1855,1936
1894,1866,1823
1904,1871,1815
1866,1886,1915
1777,1863,1861
1866,1855,1728
1878,1869,1781
1850,1854,1936
1844,1840,1967
1845,1890,1755
1862,1885,1738
1842,1873,1873
1860,1822,1872
1859,1875,1776
1920,1897,1829
1872,1856,1927
1824,1836,1914
1847,1859,1787
1878,1891,1773
1881,1887,1890
1811,1851,1869
1911,1872,1804
1900,1879,1837
1837,1859,1887
1791,1819,1893
1835,1858,1739
1856,1904,1751
1837,1854,1899
1818,1818,1913
1885,1845,1766
1934,1886,1787
1873,1874,1915
1803,1866,1863
1855,1879,1735
1874,1862,1771
1822,1831,1922
1809,1825,1874
1860,1854,1739
1903,1889,1799
1845,1850,1908
1797,1806,1899
1862,1838,1776
1914,1902,1767
1851,1855,1879
1805,1821,1861
1850,1863,1750
1901,1872,1803
1853,1856,1909
1827,1861,1856
1871,1860,1747
1907,1872,1830
1867,1842,1911
1807,1840,1819
1830,1872,1699
1893,1884,1781
1885,1859,1904
1806,1838,1836
1821,1853,1759
1961,1886,1775
1840,1853,1872
1747,1827,1895
1856,1874,1761
1918,1914,1827
1866,1849,1920
1781,1840,1795
1831,1862,1730
1786,1898,1834
1847,1828,1895
1811,1833,1827
1886,1891,1725
1903,1889,1820
1852,1840,1931
1806,1808,1841
1859,1854,1716
1898,1875,1744
1861,1872,1879
1815,1873,1862
1821,1893,1800
1892,1872,1755
1829,1849,1856
1815,1814,1902
1872,1851,1776
1920,1894,1757
1912,1873,1871
1813,1849,1872
1842,1850,1735
1894,1866,1803
1871,1843,1920
1775,1871,1905
1829,1859,1788
1887,1885,1749
1840,1874,1871
1808,1856,1850
1837,1869,1775
1882,1868,1813
1888,1870,1883
1863,1851,1882
1858,1814,1773
1872,1873,1791
1842,1872,1869
1838,1837,1841
1856,1858,1809
1882,1885,1786
1827,1895,1840
1823,1866,1857
1901,1845,1743
1853,1873,1777
1859,1869,1908
1811,1856,1923
1863,1905,1777
1859,1859,1745
1828,1814,1905
1809,1797,1899
1854,1827,1729
1804,1904,1733
1885,1872,1894
1776,1814,1855
1818,1871,1741
1895,1903,1801
1857,1879,1905
1791,1830,1851
1807,1846,1770
1946,1882,1830
1821,1871,1885
1840,1856,1853
1815,1863,1743
1884,1857,1794
1870,1845,1887
1847,1835,1818
1834,1840,1712
1871,1855,1806
1859,1879,1910
1815,1870,1875
1840,1852,1757
1893,1876,1797
1874,1847,1947
1823,1810,1874
1824,1838,1706
1875,1890,1750
1839,1869,1904
1797,1840,1873
1850,1845,1745
1858,1871,1722
1838,1854,1863
1819,1849,1923
1840,1871,1760
1882,1868,1765
1872,1853,1936
1810,1807,1913
1824,1856,1760
1872,1895,1776
1861,1864,1897
1813,1835,1857
1852,1857,1733
1878,1897,1793
1840,1873,1888
1813,1835,1875
1823,1840,1749
1877,1842,1798
1838,1866,1904
1808,1847,1858
1851,1871,1776
1872,1923,1781
1847,1860,1926
1806,1836,1888
1825,1851,1713
1872,1847,1741
1837,1849,1877
1813,1838,1871
1827,1837,1733
1878,1872,1801
1856,1882,1926
1832,1857,1910
1856,1840,1770
1904,1875,1822
1847,1854,1920
1808,1829,1836
1835,1861,1715
1872,1890,1777
1847,1845,1936
1817,1828,1875
1857,1855,1745
1905,1913,1802
1850,1843,1904
1813,1840,1872
1835,1867,1758
1874,1900,1767
1862,1856,1904
1821,1842,1886
1856,1902,1778
1877,1898,1761
1810,1823,1843
1798,1808,1862
1839,1840,1771
1881,1872,1783
1853,1860,1894
1822,1845,1924
1846,1874,1769
1874,1894,1735
1861,1872,1915
1819,1858,1879
1840,1842,1744
1872,1841,1794
1841,1798,1905
1803,1855,1839
1842,1893,1711
1883,1877,1750
1872,1839,1921
1825,1840,1885
1846,1859,1774
1890,1901,1797
1840,1850,1883
1822,1845,1882
1853,1875,1744
1881,1841,1741
1838,1857,1855
1807,1845,1872
1859,1872,1801
1892,1891,1785
1839,1850,1849
1825,1813,1860
1862,1855,1777
1904,1911,1798
1867,1874,1904
1821,1839,1869
1825,1873,1743
1874,1911,1804
1867,1868,1932
1821,1818,1894
1814,1830,1737
1883,1893,1725
1826,1835,1856
1793,1807,1824
1840,1862,1744
1904,1877,1779
1882,1853,1911
1808,1810,1847
1835,1883,1735
1867,1918,1772
1850,1853,1919
1805,1803,1865
1840,1821,1738
1905,1902,1836
1855,1855,1895
1805,1834,1824
1811,1826,1690
1866,1852,1763
1857,1857,1914
1841,1847,1898
1854,1872,1725
1882,1888,1743
1857,1838,1909
1824,1833,1894
1845,1880,1741
1892,1901,1799
1853,1874,1895
1818,1844,1859
1868,1879,1745
1902,1870,1755
1855,1809,1887
1811,1823,1891
1853,1866,1763
1899,1888,1757
1833,1873,1846
1807,1859,1849
1851,1857,1760
1903,1877,1815
1857,1858,1910
1829,1866,1885
1843,1853,1776
1881,1846,1789
1851,1811,1851
1829,1875,1866
1861,1879,1787
1905,1840,1806
1845,1862,1858
1815,1850,1842
1867,1875,1777
1897,1884,1808
1878,1857,1918
1815,1843,1887
1836,1874,1751
1894,1893,1753
1872,1847,1872
1827,1836,1890
1850,1851,1759
1891,1904,1788
1887,1857,1904
1840,1868,1894
1847,1851,1777
1904,1927,1821
1869,1891,1921
1819,1872,1879
1866,1873,1757
1891,1856,1775
1869,1813,1892
1818,1847,1863
1855,1910,1791
1888,1904,1790
1870,1903,1863
1858,1875,1876
1840,1881,1755
1872,1853,1766
1885,1904,1913
1840,1863,1905
1872,1840,1778
1897,1899,1765
1863,1861,1906
1808,1841,1847
1869,1890,1756
1894,1872,1797
1859,1869,1909
1829,1877,1862
1857,1920,1769
1891,1879,1783
1853,1846,1879
1819,1841,1913
1840,1815,1751
1884,1920,1750
1869,1851,1886
1837,1889,1879
1843,1887,1735
1889,1883,1778
1866,1845,1931
1830,1813,1915
1833,1889,1744
1887,1926,1759
1864,1902,1885
1826,1838,1852
1827,1850,1724
1891,1895,1779
1871,1838,1892
1806,1826,1857
1835,1872,1747
1889,1884,1815
1871,1849,1908
1840,1840,1875
1855,1866,1767
1879,1886,1769
1863,1847,1888
1820,1843,1874
1840,1854,1755
1875,1858,1776
1872,1869,1877
1845,1891,1875
1859,1838,1807
1885,1819,1799
1860,1875,1862
1813,1872,1882
1835,1898,1763
1883,1898,1765
1845,1811,1839
1820,1857,1846
1859,1859,1770
1903,1905,1811
1853,1843,1907
1809,1837,1883
1843,1886,1774
1890,1904,1799
1872,1878,1879
1827,1857,1869
1856,1851,1779
1905,1909,1791
1863,1862,1884
1808,1840,1870
1863,1867,1769
1902,1893,1786
1855,1872,1875
1825,1845,1877
1856,1871,1778
1886,1890,1776
1862,1910,1898
1826,1856,1909
1853,1860,1762
1893,1872,1755
1839,1869,1891
1823,1805,1879
1856,1862,1783
1893,1874,1776
1843,1857,1861
1818,1887,1869
1847,1793,1775
1883,1900,1763
1858,1885,1885
1839,1854,1883
1840,1874,1775
1899,1920,1798
1863,1872,1878
1835,1827,1937
1853,1842,1767
1891,1872,1774
1872,1867,1877
1842,1844,1875
1871,1857,1764
1911,1868,1781
1892,1835,1903
1825,1845,1865
1842,1855,1758
1879,1929,1758
1856,1825,1922
1803,1810,1887
1843,1901,1747
1872,1862,1731
1872,1881,1866
1806,1843,1872
1827,1856,1757
1874,1871,1774
1867,1859,1904
1835,1876,1879
1859,1877,1745
1901,1904,1765
1858,1847,1908
1805,1881,1919
1850,1847,1780
1900,1901,1770
1842,1925,1835
1814,1856,1856
1869,1898,1779
1906,1871,1831
1851,1825,1887
1822,1799,1830
1840,1865,1744
1898,1846,1776
1868,1847,1894
1829,1841,1899
1857,1857,1792
1892,1871,1759
1861,1861,1854
1817,1830,1852
1867,1868,1790
1893,1901,1789
1867,1839,1887
1843,1825,1895
1851,1836,1808
1888,1897,1782
1872,1799,1909
1839,1860,1898
1869,1842,1789
1905,1862,1792
1873,1897,1872
1809,1834,1819
1837,1827,1760
1887,1870,1819
1867,1851,1923
1833,1866,1878
1867,1926,1775
1895,1878,1799
1861,1854,1898
1840,1857,1894
1871,1782,1791
1907,1863,1827
1885,1851,1934
