1904,1948,2011
1834,1980,1933
1861,2046,1829
1808,2047,1806
1800,2105,1810
1867,2236,1830
1807,2366,1833
1826,2256,1830
1831,2185,1829
1790,2256,1831
1834,2314,1827
1863,2326,1827
1882,2354,1830
1822,2474,1829
1855,2467,1831
1840,2385,1900
1827,2335,1766
1802,2405,1121
1825,2391,1893
1824,2191,1997
1828,2183,1258
1837,2343,1535
1823,2387,1838
1829,2327,1893
1872,2448,1973
1873,2337,1791
1872,2350,2041
1927,2384,1798
1917,2361,1713
1961,2380,1744
1953,2384,1817
1979,2406,1841
1973,2435,1840
2030,2439,1829
1988,2448,1825
1966,2403,1823
1989,2477,1827
2055,2525,1827
2009,2421,1825
1999,2382,1827
2058,2462,1828
2080,2478,1831
2062,2475,1827
2011,2482,1824
2061,2366,1827
2064,2355,1832
2015,2410,1828
2011,2432,1829
2032,2389,1831
2032,2374,1828
2109,2403,1828
2011,2400,1824
2047,2477,1765
2071,2499,1852
2003,2406,1959
2045,2349,1897
2034,2343,1742
2030,2363,1729
2064,2340,1795
1983,2410,1770
2011,2447,1702
2007,2339,1707
1953,2277,1950
1978,2292,1851
2001,2341,1872
2027,2383,1846
1989,2341,1826
1963,2310,1822
2027,2519,1830
2089,2401,1829
1980,2214,1834
1957,2208,1826
1979,2245,1834
1972,2238,1831
1968,2253,1831
2029,2305,1866
1969,2323,1819
1939,2278,1818
1946,2242,1826
1941,2285,1823
1982,2256,1829
1989,2194,1906
1971,2250,1737
1967,2224,1771
1956,2236,1827
1936,2230,1839
1939,2289,1837
2032,2352,1826
1967,2198,1824
1969,2157,1827
1954,2119,1831
2006,2144,1826
1963,2264,1826
1975,2280,1828
2012,2115,1826
1923,2082,1826
1963,2134,1824
2014,2202,1849
2019,2254,1901
1951,2224,1792
1905,2053,1639
1983,2082,1702
2015,2149,1841
1938,2221,1847
1953,2145,1701
1966,2134,1763
1967,2143,1803
1920,2170,1728
1937,2105,1673
1934,2042,1670
1904,2013,1776
1951,2149,1731
1906,2086,1563
1949,2032,1671
1968,2017,1794
1955,1986,1758
1920,2057,1648
1950,2131,1658
1968,2063,1682
1930,2112,1760
1893,2006,1664
1889,1923,1635
1904,1990,1721
1925,2151,1695
1921,2015,1603
1923,1980,1653
1911,1946,1697
1921,1972,1666
1907,2017,1520
1916,1989,1669
1874,2007,1747
1844,1896,1629
1876,1923,1520
1936,2033,1622
1913,2030,1687
1863,1903,1669
1897,1923,1557
1935,1886,1557
1872,1873,1634
1829,1936,1711
1862,1994,1594
1919,1972,1535
1961,1971,1615
1830,1926,1643
1853,1833,1562
1843,1846,1535
1872,1888,1717
1847,1915,1671
1903,1982,1534
1936,1993,1569
1842,1841,1630
1773,1746,1600
1831,1825,1533
1872,2015,1535
1917,2064,1666
1872,1808,1634
1849,1769,1564
1857,1765,1583
1827,1802,1642
1817,1962,1584
1857,1893,1569
1859,1781,1554
1796,1778,1627
1793,1863,1610
1861,1855,1590
1845,1857,1589
1810,1802,1634
1803,1803,1581
1843,1841,1534
1913,1936,1598
1870,1936,1738
1761,1851,1633
1787,1755,1500
1822,1730,1527
1802,1754,1680
1861,1890,1693
1854,1856,1499
1778,1791,1589
1769,1794,1660
1791,1705,1613
1824,1728,1498
1823,1835,1565
1827,1783,1679
1759,1767,1633
1774,1779,1533
1859,1840,1680
1829,1890,1690
1808,1771,1631
1815,1755,1566
1820,1735,1600
1799,1746,1686
1765,1811,1660
1812,1772,1566
1834,1844,1595
1821,1815,1694
1786,1690,1644
1811,1664,1563
1787,1715,1557
1833,1857,1746
1833,1808,1725
1771,1646,1595
1754,1725,1535
1807,1869,1697
1769,1728,1626
1808,1705,1535
1840,1809,1645
1792,1782,1788
1754,1693,1671
1776,1782,1535
1781,1750,1591
1791,1744,1741
1808,1718,1683
1775,1713,1582
1822,1722,1663
1806,1797,1754
1783,1787,1723
1776,1664,1587
1799,1760,1626
1847,1857,1706
1702,1696,1664
1719,1633,1648
1797,1715,1645
1791,1739,1697
1744,1703,1651
1813,1727,1631
1827,1776,1681
1780,1799,1776
1767,1744,1803
1804,1648,1627
1734,1643,1521
1748,1773,1702
1829,1887,1756
1759,1767,1619
1765,1692,1690
1735,1611,1778
1747,1678,1740
1813,1785,1653
1839,1728,1750
1761,1743,1769
1719,1713,1685
1826,1849,1681
1814,1844,1680
1744,1626,1690
1712,1600,1681
1731,1683,1636
1787,1674,1696
1818,1773,1893
1772,1778,1806
1731,1685,1581
1728,1683,1600
1765,1771,1811
1746,1714,1779
1761,1745,1643
1821,1744,1680
1763,1744,1763
1744,1795,1747
1743,1725,1673
1767,1727,1698
1753,1615,1787
1773,1709,1798
1777,1808,1664
1808,1777,1735
1734,1718,1795
1703,1661,1727
1759,1680,1661
1788,1721,1681
1746,1749,1788
1741,1758,1779
1759,1755,1666
1808,1729,1684
1781,1730,1776
1771,1772,1806
1777,1831,1712
1781,1590,1726
1774,1633,1850
1841,1887,1888
1808,1899,1693
1752,1620,1628
1719,1573,1757
1715,1680,1779
1808,1927,1744
1829,1879,1725
1710,1571,1727
1708,1590,1761
1763,1659,1728
1795,1826,1714
1808,1853,1807
1818,1815,1823
1743,1682,1653
1737,1619,1695
1740,1636,1802
1757,1781,1815
1821,1828,1740
1823,1803,1773
1739,1733,1869
1716,1755,1761
1803,1730,1671
1824,1705,1680
1763,1810,1840
1707,1699,1787
1735,1699,1713
1791,1779,1766
1808,1872,1889
1767,1818,1830
1754,1675,1687
1781,1653,1747
1803,1681,1861
1791,1744,1799
1731,1728,1691
1755,1862,1709
1779,1784,1825
1792,1835,1813
1806,1726,1743
1782,1709,1782
1747,1712,1887
1751,1871,1895
1820,1846,1747
1803,1825,1716
1763,1654,1792
1759,1776,1811
1773,1786,1730
1790,1706,1822
1749,1600,1891
1733,1586,1811
1792,1821,1651
1777,1910,1771
1751,1856,1887
1721,1746,1806
1757,1654,1705
1799,1763,1838
1782,1808,1898
1776,1778,1812
1806,1721,1724
1798,1806,1776
1773,1811,1925
1781,1712,1857
1787,1765,1749
1787,1733,1789
1757,1808,1936
1719,1781,1795
1749,1723,1645
1793,1685,1734
1797,1767,1904
1733,1792,1859
1760,1829,1763
1840,1853,1799
1790,1720,1875
1758,1648,1840
1788,1791,1760
1849,1987,1856
1792,1869,1847
1743,1626,1773
1744,1706,1761
1803,1808,1780
1792,1890,1882
1712,1644,1857
1761,1709,1761
1810,1837,1747
1825,1723,1904
1825,1834,1942
1782,1904,1786
1764,1691,1737
1759,1680,1872
1771,1726,1851
1809,1775,1754
1840,1814,1789
1808,1904,1953
1742,1726,1871
1782,1713,1727
1814,1791,1789
1778,1767,1909
1757,1732,1847
1853,1827,1803
1859,1779,1840
1808,1676,1914
1773,1791,1866
1776,1866,1745
1809,1853,1746
1831,1705,1904
1809,1837,1880
1806,1823,1744
1776,1850,1808
1763,1790,1936
1755,1743,1850
1792,1715,1754
1825,1733,1782
1808,1805,1906
1807,1879,1890
1898,2083,1865
1897,1780,1827
1763,1666,1807
1709,1600,1827
1759,1719,1791
1797,1903,1844
1827,1856,1938
1767,1713,1810
1797,1872,1725
1866,1842,1834
1776,1744,1885
1763,1697,1899
1807,1770,1725
1821,1901,1786
1821,1886,1940
1813,1823,1903
1840,1813,1767
1793,1831,1843
1744,1622,1935
1755,1742,1846
1823,1879,1791
1882,1931,1871
1790,1678,1797
1737,1659,1786
1787,1825,1764
1846,1861,1833
1867,2111,1959
1824,1790,1910
1831,1629,1787
1807,1792,1811
1793,1797,1889
1809,1937,1919
1789,1862,1785
1843,1842,1851
1787,1734,1872
1787,1836,1863
1855,2096,1779
1845,1779,1851
1827,1623,1916
1757,1663,1825
1778,1826,1722
1852,1968,1820
1862,1883,1937
1814,1780,1862
1791,1872,1798
1854,2006,1890
1809,1804,1964
1790,1653,1904
1850,1794,1769
1963,2045,1936
1811,1840,1840
1722,1678,1730
1766,1840,1744
1809,1879,1811
1849,1873,1953
1902,1957,1984
1803,1869,1803
1771,1767,1744
1826,1860,1936
1847,1938,1951
1876,1849,1766
1904,1904,1813
1784,1898,1875
1778,1893,1885
1828,1881,1762
1808,1732,1791
1799,1690,1942
1870,1925,1970
1904,2086,1807
1791,1722,1783
1748,1710,1819
1837,1902,1858
1843,2003,1810
1851,1883,1859
1862,1821,2000
1835,1861,1905
1861,2000,1794
1873,1961,1791
1791,1743,1883
1776,1812,1911
1835,1911,1771
1840,1893,1785
1857,1986,1962
1802,1857,1877
1806,1782,1757
1847,1841,1840
1874,1849,2011
1853,1888,1979
1837,1874,1777
1828,1870,1777
1863,1974,1906
1888,1952,1846
1837,1807,1771
1815,1824,1846
1881,2015,1998
1776,1788,1840
1779,1755,1780
1872,1936,1895
1846,1895,1937
1825,1817,1943
1840,1826,1793
1893,2019,1794
1865,1872,1859
1807,1881,1858
1831,1829,1827
1872,1825,1823
1827,1803,1910
1875,1899,1977
1883,2035,1838
1834,1836,1774
1795,1893,1873
1811,1936,1905
1872,1807,1744
1860,1758,1780
1856,1858,1937
1808,1926,1872
1837,1904,1795
1873,1904,1877
1904,1981,2000
1829,1890,1863
1829,1821,1735
1829,1769,1763
1887,1827,1926
1837,1859,1873
1840,1968,1807
1855,1936,1814
1843,1915,1903
1850,1804,1895
1866,1888,1775
1857,1835,1819
1840,1823,1929
1814,1934,1887
1852,2102,1787
1844,1796,1776
1819,1712,1887
1807,1792,1862
1840,1913,1811
1866,1963,1787
1845,1827,1895
1816,1937,1922
1839,1925,1830
1872,1773,1758
1837,1803,1883
1883,1851,1920
1845,1938,1771
1813,1920,1795
1817,1785,1887
1810,1831,1859
1835,1957,1769
1851,1872,1801
1867,1845,1929
1850,1840,1872
1871,1787,1803
1872,1979,1866
1859,2005,1941
1783,1781,1845
1791,1712,1742
1838,1870,1743
1945,1952,1914
1840,1811,1856
1760,1799,1758
1840,1826,1847
1856,1871,1923
1858,1968,1877
1920,2018,1747
1778,1694,1689
1750,1713,1945
1823,1904,1943
1882,1925,1708
1872,1801,1678
1855,1856,1906
1854,1935,1938
1841,1892,1755
1851,1891,1779
1866,1794,1920
1808,1723,1920
1776,1763,1792
1842,1860,1775
1867,1891,1805
1809,1891,1808
1808,1897,1751
1865,1872,1847
1881,1824,1971
1925,1910,1946
1836,1998,1743
1831,1875,1743
1837,1737,1814
1834,1663,1849
1851,1755,1743
1834,1834,1727
1773,1840,1861
1776,1836,1871
1858,1860,1803
1918,2017,1856
1882,2107,1968
1797,1623,1863
1783,1610,1675
1920,1822,1777
1863,1811,1867
1822,1862,1872
1817,2078,1827
1823,1962,1762
1844,1763,1951
1814,1648,1848
1840,1744,1707
1889,1957,1808
1887,1953,1900
1840,1898,1875
1812,1738,1776
1830,1823,1773
1840,1751,1853
1838,1787,1786
1903,1845,1829
1855,1887,1744
1772,1818,1822
1803,1776,1862
1852,1872,1803
1884,1860,1779
1855,1786,1903
1815,1809,1835
1810,1872,1719
1862,1850,1755
1899,1921,1903
1886,1805,1962
1807,1695,1655
1812,1770,1728
1823,1840,1871
1851,1861,1921
1860,1887,1751
1872,1855,1744
1840,1947,1925
1823,1882,1876
1858,1875,1798
1863,1850,1783
1823,1766,1863
1793,1680,1795
1836,1748,1701
1879,1776,1797
1857,1809,1901
1840,1840,1853
1827,1845,1731
1831,1847,1757
1867,1871,1929
1872,1810,1905
1833,1807,1743
1838,1891,1760
1837,1765,1792
1835,1712,1831
1849,1881,1759
1871,1927,1827
1857,1843,1949
1840,1806,1919
1872,1930,1758
1872,1947,1755
1819,1634,1825
1833,1616,1854
1861,1855,1786
1892,1898,1738
1872,1869,1872
1850,1950,1897
1872,1947,1765
1841,1759,1771
1837,1744,1887
1871,1904,1915
1882,1879,1757
1820,1647,1735
1810,1697,1807
1844,1856,1909
1889,1958,1787
1935,1904,1770
1879,1714,1821
1811,1735,1809
1822,1819,1744
1877,1874,1791
1889,1926,1915
1875,1863,1872
1879,1886,1763
1875,1811,1830
1889,1888,1936
1781,1752,1819
1792,1722,1663
1877,1898,1755
1885,1808,1930
1851,1768,1839
1856,1840,1699
1894,1943,1767
1886,1886,1872
1827,1743,1916
1856,1847,1853
1906,1968,1793
1843,1769,1845
1802,1664,1848
1872,1755,1753
1875,1829,1750
1849,1865,1899
1874,1948,1872
1851,1813,1775
1840,1776,1680
1841,1826,1798
1863,1878,1913
1856,1799,1797
1909,1869,1809
1882,1820,1847
1861,1882,1823
1863,1863,1766
1905,1872,1823
1840,1755,1840
1840,1855,1799
1841,1859,1725
1884,1856,1763
1871,1758,1918
1872,1887,1840
1862,1851,1706
1934,1903,1762
1908,1917,1931
1861,1844,1840
1793,1662,1710
1874,1792,1750
1885,1807,1840
1818,1827,1840
1820,1961,1805
1866,1883,1829
1888,1838,1943
1863,1875,1933
1847,1744,1647
1856,1758,1702
1858,1818,1840
1827,1840,1856
1871,1973,1819
1891,1995,1775
1874,1989,1865
1835,1781,1836
1845,1602,1686
1872,1750,1795
1851,1907,1891
1814,1833,1783
1878,1939,1710
1898,1847,1755
1830,1755,1836
1814,1840,1846
1856,1857,1766
1915,1938,1797
1889,1874,1840
1779,1751,1783
1834,1870,1834
1878,1865,1817
1877,1815,1863
1837,1791,1727
1843,1889,1749
1904,2027,1793
1859,1836,1967
1859,1793,1934
1842,1994,1712
1867,1874,1680
1826,1666,1792
1794,1648,1835
1838,1808,1780
1875,1837,1837
1874,1897,1852
1879,2000,1840
1851,1835,1743
1845,1815,1809
1863,1820,1915
1838,1839,1841
1865,1845,1738
1915,1907,1834
1893,1876,1871
1813,1879,1777
1783,1827,1754
1842,1941,1776
1830,1818,1851
1823,1759,1828
1826,1642,1727
1872,1775,1794
1878,1936,1937
1878,2030,1874
1821,1931,1726
1838,1786,1720
1855,1840,1869
1855,1846,1866
1904,1851,1746
1934,1899,1819
1797,1824,1907
1746,1743,1821
1797,1854,1729
1858,2022,1781
1906,1823,1853
1825,1699,1845
1840,1777,1741
1851,1890,1757
1875,1877,1875
1870,1936,1867
1826,1856,1743
1858,1649,1718
1870,1765,1898
1885,1984,1885
1783,2096,1754
1777,1693,1715
1840,1627,1802
1857,1806,1875
1835,1968,1860
1843,1915,1837
1815,1827,1891
1793,1844,1838
1838,1887,1703
1809,1814,1706
1859,1851,1818
1793,1811,1834
1823,1799,1809
1830,1792,1767
1866,2007,1867
1839,1919,1839
1813,1747,1780
1839,1709,1791
1782,1853,1878
1808,1835,1855
1831,1846,1723
1825,1838,1714
1899,1936,1876
1839,1951,1919
1762,1692,1680
1847,1728,1747
1840,1873,1902
1795,1754,1821
1790,1761,1729
1866,1961,1810
1930,2080,1968
1822,1884,1857
1773,1709,1648
1763,1687,1707
1862,1841,1946
1874,1889,1863
1839,1870,1724
1776,1761,1721
1802,1820,1867
1845,1865,1891
1818,1872,1725
1783,1781,1861
1826,1769,1903
1856,1919,1842
1859,1872,1747
1798,1769,1753
1845,1820,1872
1839,1864,1904
1831,1800,1743
1781,1811,1695
1839,1846,1874
1862,1940,1913
1909,2033,1824
1952,1955,1810
1872,1687,1930
1715,1693,1863
1783,1792,1701
1840,1779,1751
1872,1877,1911
1827,1982,1989
1869,1968,1854
1837,1759,1795
1872,1783,1949
1842,1793,1910
1827,1789,1883
1807,1859,1774
1808,1812,1827
1807,1840,1906
1863,1953,1850
1873,2067,1841
1850,1842,1933
1759,1686,1916
1750,1686,1840
1872,1828,1866
1829,1870,1890
1807,1903,1869
1868,1915,1776
1913,1926,1894
1855,1931,2013
1807,1689,1855
1763,1584,1703
1795,1783,1840
1831,1946,1985
1812,1947,1947
1807,1872,1869
1917,1744,1826
1840,1776,1898
1805,1872,1871
1808,1941,1787
1858,1796,1843
1801,1729,1951
1794,1811,1904
1821,1894,1824
1863,1920,1902
1856,1894,1981
1779,1723,1862
1787,1709,1749
1859,1850,1821
1849,1935,1963
1892,2045,1970
1815,1844,1837
1879,1685,1787
1846,1737,1926
1776,1835,1994
1809,1835,1862
1864,1955,1899
1792,1891,1935
1801,1788,1903
1841,1840,1786
1885,1856,1835
1866,1826,1980
1829,1888,2013
1895,1966,1842
1872,1963,1837
1807,1745,1874
1828,1768,1866
1799,1847,1859
1877,1899,1938
1901,2004,2006
1859,1836,1847
1834,1706,1767
1807,1783,1841
1883,1854,1930
1830,1859,1919
1891,1994,1872
1914,2013,1874
1885,1978,2001
1751,1653,1862
1747,1735,1808
1830,1808,1835
1865,1951,2002
1849,1927,1968
1824,1847,1855
1837,1775,1772
1821,1857,1904
1842,1968,1943
1863,1908,1878
1865,1777,1824
1849,1777,1933
1797,1895,1984
1776,1881,1857
1813,1856,1793
1871,1935,1921
1871,1894,1978
1842,1863,1856
1844,1854,1747
1810,1791,1903
1820,1808,1937
1846,1846,1869
1996,2013,1894
1887,2025,1934
1805,1732,1834
1795,1657,1776
1828,1805,1842
1875,1949,2002
1877,1950,1936
1909,1923,1814
1865,1984,1776
1792,1735,1875
1818,1713,1936
1834,1850,1807
1878,1929,1839
1920,2064,1915
1854,1887,1823
1785,1671,1840
1807,1776,1859
1856,1873,1919
1873,1890,1899
1872,1908,1813
1852,1835,1797
1827,1826,1881
1817,1839,1942
1859,1969,1810
1926,1917,1793
1886,1838,1904
1798,1830,1909
1819,1814,1805
1872,1840,1790
1872,1971,1910
1875,1904,1968
1834,1742,1759
1841,1805,1735
1883,1904,1915
1849,1843,1923
1842,1824,1831
1852,1988,1825
1826,1843,1902
1822,1744,1855
1905,1872,1824
1872,1937,1824
1839,1893,1907
1840,1888,1943
1872,1863,1791
1897,1910,1823
1861,1823,1891
1803,1831,1907
1829,1863,1788
1896,1827,1775
1877,2047,1845
1785,1858,1855
1777,1722,1813
1845,1790,1779
1872,1869,1904
1874,1936,1904
1875,2032,1779
1811,1728,1720
1808,1727,1921
1833,1868,1968
1841,1903,1796
1885,2014,1789
1904,1920,1949
1859,1782,1885
1808,1775,1758
1845,1818,1776
1842,1901,1872
1840,1911,1863
1911,1902,1845
1883,1877,1787
1817,1828,1869
1811,1852,1929
1831,1874,1767
1858,1793,1727
1813,1776,1921
1855,1900,1953
1921,2143,1746
1856,1766,1669
1811,1635,1835
1808,1778,1915
1890,1971,1847
1965,2162,1817
1883,1845,1882
1733,1600,1845
1772,1705,1761
1882,2110,1815
1920,1882,1941
1825,1702,1811
1833,1780,1732
1855,1856,1772
1845,1903,1890
1830,1994,1840
1862,1906,1705
1863,1802,1755
1856,1862,1904
1826,1837,1938
1845,1735,1766
1883,1886,1765
1845,1872,1886
1815,1877,1897
1822,2042,1773
1856,1960,1770
1825,1655,1837
1837,1723,1808
1844,1791,1719
1849,1839,1809
1865,1879,1908
1859,1994,1844
1861,1939,1763
1863,1954,1791
1856,1792,1936
1835,1666,1835
1816,1803,1687
1855,1895,1754
1893,1955,1890
1855,1979,1842
1823,1728,1758
1833,1714,1734
1847,1873,1855
1842,1920,1810
1869,1823,1738
1873,1826,1774
1872,1919,1878
1838,1941,1866
1822,1774,1762
1889,1801,1793
1873,1921,1875
1872,1914,1872
1874,1850,1750
1847,1859,1713
1826,1807,1837
1862,2030,1860
1894,1934,1803
1856,1711,1687
1834,1759,1798
1840,1933,1904
1850,1808,1744
1909,1850,1805
1885,1983,1879
1807,1815,1839
1789,1712,1681
1841,1733,1693
1841,1821,1824
1859,2018,1856
1902,1985,1759
1870,1872,1777
1862,1850,1922
1875,1888,1981
1812,1818,1691
1850,1809,1665
1871,1962,1812
1839,1831,1856
1849,1740,1815
1866,1797,1738
1906,2037,1893
1893,1930,1883
1814,1747,1712
1858,1847,1712
1877,1984,1863
1817,1757,1828
1830,1741,1712
1918,1905,1776
1902,2098,1878
1861,1837,1939
1875,1712,1737
1839,1791,1648
1813,1819,1813
1798,1843,1872
1877,1872,1828
1939,2006,1873
1931,1998,1910
1813,1710,1708
1777,1631,1619
1856,1854,1761
1903,1915,1920
1844,1842,1877
1867,1852,1788
1894,1951,1721
1904,1951,1840
1804,1755,1817
1843,1854,1817
1878,1919,1789
1857,1773,1837
1842,1801,1909
1872,1941,1761
1905,2021,1759
1843,1842,1823
1843,1782,1824
1853,1739,1737
1874,1825,1755
1887,1936,1857
1851,1934,1865
1840,1871,1770
1897,1971,1830
1899,1894,1918
1811,1838,1810
1826,1929,1749
1881,1867,1751
1879,1877,1871
1881,1799,1938
1886,1933,1729
1904,1895,1737
1802,1663,1806
1808,1730,1858
1861,1881,1789
1919,1961,1776
1965,2058,1936
1883,1919,1873
1756,1670,1687
1808,1757,1776
1888,1856,1911
1870,1873,1868
1866,1895,1741
1926,1911,1792
1899,1936,1904
1809,1835,1866
1801,1819,1733
1835,1827,1744
1851,1773,1857
1843,1827,1907
1859,1858,1756
1874,1917,1744
1857,1915,1856
1859,1861,1842
1872,1911,1791
1855,1857,1765
1838,1853,1894
1846,1862,1951
1870,1825,1821
1872,1861,1695
1892,2007,1850
1837,1905,1840
1790,1656,1719
1848,1823,1813
1859,1874,1858
1846,1877,1883
1859,1828,1763
1926,1875,1751
1872,1914,1907
1827,1861,1899
1855,1851,1719
1885,1862,1735
1852,1854,1878
1854,1904,1900
1882,1809,1808
1855,1851,1745
1863,1901,1937
1855,1937,1935
1862,1910,1741
1845,1846,1665
1879,1872,1917
1846,1827,1911
1809,1811,1745
1887,1941,1735
1892,2001,1881
1867,1905,1904
1825,1736,1771
1868,1806,1776
1907,1887,1913
1888,2016,1937
1872,2000,1794
1856,1749,1730
1852,1715,1802
1902,1828,1845
1856,1870,1731
1903,1909,1819
1935,1947,1943
1855,1838,1882
1805,1811,1773
1879,1935,1792
1851,1825,1815
1840,2015,1871
1853,1906,1747
1904,1740,1822
1839,1789,1853
1813,1837,1850
1856,1848,1766
1904,1854,1784
1898,1856,1927
1871,1979,1870
1858,1841,1759
1860,1830,1709
1857,1776,1861
1835,1849,1929
1872,2027,1808
1933,1930,1750
1856,1754,1850
1797,1755,1851
1835,1841,1744
1941,2018,1814
1893,1871,1878
1850,1877,1930
1840,1872,1807
1862,1869,1713
1872,1971,1843
1835,1817,1815
1883,1893,1770
1925,1963,1782
1869,1809,1875
1811,1766,1888
1798,1807,1773
1867,1904,1775
1866,1887,1876
1898,1957,1923
1890,1978,1822
1863,1875,1719
1829,1871,1840
1818,1801,1856
1859,1827,1769
1904,1858,1776
1871,1913,1887
1837,1881,1930
1826,1731,1733
1906,1903,1765
1930,1938,1904
1797,1830,1799
1793,1814,1680
1855,1941,1717
1905,2001,1925
1857,1909,1903
1840,1806,1747
1863,1831,1770
1809,1830,1847
1810,1795,1886
1853,1850,1823
1882,1927,1791
1907,1984,1850
1817,1869,1856
1835,1929,1771
1867,1863,1782
1835,1850,1891
1834,1858,1918
1840,1845,1728
1875,1930,1791
1860,1889,1911
1811,1830,1885
1847,1835,1739
1866,1863,1775
1890,1967,1904
1830,1887,1859
1776,1792,1685
1831,1811,1744
1886,1882,1865
1840,1962,1871
1874,1955,1808
1859,1839,1762
1857,1850,1867
1845,1863,1879
1840,1872,1824
1837,1776,1744
1823,1831,1851
1827,1856,1859
1851,1926,1744
1920,1935,1767
1893,1878,1898
1817,1893,1902
1841,1902,1755
1838,1808,1742
1808,1789,1835
1817,1819,1871
1919,1927,1871
1905,1927,1728
1846,1936,1840
1795,1898,1850
1792,1717,1770
1828,1774,1746
1851,1868,1883
1840,1998,1862
1853,1994,1771
1891,1919,1715
1836,1730,1849
1817,1705,1906
1890,1822,1808
1874,1910,1723
1798,1857,1809
1810,1826,1855
1862,1842,1812
1899,1923,1793
1866,1936,1856
1808,2005,1872
1797,1789,1729
1879,1742,1739
1879,1831,1919
1788,1938,1842
1810,1921,1743
1881,1865,1757
1875,1712,1856
1778,1856,1835
1782,1815,1744
1861,1818,1785
1858,1904,1874
1869,1950,1887
1829,1859,1737
1830,1716,1808
1835,1779,1861
1799,1842,1776
1841,1904,1716
1881,1824,1765
1841,1842,1916
1818,1961,1900
1866,2071,1795
1866,1822,1750
1782,1660,1808
1790,1821,1911
1852,1907,1799
1893,1875,1738
1887,1873,1803
1831,1792,1859
1843,1881,1773
1823,1806,1729
1840,1882,1884
1856,1974,1922
1856,1859,1814
1816,1744,1691
1813,1810,1830
1801,1843,1855
1846,1932,1809
1889,1856,1777
1840,1810,1894
1799,1790,1841
1829,1847,1711
1855,1943,1751
1888,1988,1887
1840,1906,1851
1808,1793,1759
1825,1734,1761
1825,1758,1818
1814,1830,1853
1835,1823,1783
1927,1874,1763
1915,1923,1845
1859,1985,1890
1791,1889,1759
1821,1913,1744
1832,1808,1807
1847,1774,1881
1863,1731,1758
1916,1824,1701
1840,1917,1856
1806,1855,1895
1813,1907,1822
1867,1946,1771
1843,1798,1793
1834,1759,1815
1855,1910,1759
1883,1838,1737
1838,1797,1877
1829,1807,1955
1835,1938,1811
1847,1981,1715
1872,1888,1828
1840,1767,1895
1809,1771,1770
1856,1840,1742
1872,1852,1856
1840,1918,1910
1830,1935,1776
1867,1823,1711
1881,1989,1904
1803,1876,1854
1799,1673,1751
1855,1737,1817
1875,1927,1833
1810,1914,1855
1805,1793,1759
1826,1794,1741
1882,1939,1873
1839,1866,1853
1815,1871,1791
1843,1787,1793
1834,1767,1894
1828,1847,1886
1873,1985,1783
1863,1955,1728
1809,1806,1813
1782,1749,1835
1819,1902,1762
1866,1954,1774
1869,1871,1941
1831,1770,1805
1833,1747,1727
1838,1793,1744
1813,1842,1872
1825,1989,1860
1904,2079,1840
1898,1824,1851
1829,1776,1826
1758,1714,1858
1798,1750,1776
1865,1882,1793
1889,1959,1870
1901,1932,1908
1866,1867,1837
1833,1858,1759
1795,1764,1782
1807,1793,1859
1843,1907,1783
1968,2093,1823
1915,1998,1926
1761,1674,1879
1778,1691,1765
1873,1855,1761
1891,1981,1893
1866,1935,1915
1846,1849,1702
1826,1725,1703
1840,1767,1872
1819,1829,1840
1845,1911,1843
1911,1946,1776
1892,1905,1838
1779,1793,1776
1795,1808,1773
1842,1922,1817
1882,1968,1904
1861,1899,1841
1837,1871,1791
1873,1840,1796
1852,1838,1858
1793,1799,1822
1831,1882,1822
1903,1984,1819
1932,1936,1846
1820,1898,1847
1818,1765,1795
1889,1844,1766
1827,1763,1818
1815,1843,1875
1843,1968,1831
1872,1862,1787
1867,1809,1796
1840,1846,1831
1839,1840,1838
1875,1879,1777
1890,1899,1852
1897,1821,1888
1856,1845,1808
1855,1952,1771
1853,1965,1840
1849,1950,1874
1881,1878,1767
1835,1734,1706
1813,1689,1879
1822,1811,1917
1850,1887,1793
1920,1947,1795
1904,2033,1876
1855,1874,1903
1808,1738,1687
1849,1769,1744
1873,1803,1865
1840,1847,1901
1851,1829,1811
1920,1909,1817
1930,1962,1862
1867,1856,1856
1801,1842,1771
1823,1904,1737
1861,1846,1904
1873,1871,1959
1908,1944,1860
1855,1893,1694
1795,1700,1739
1795,1750,1841
1859,1872,1753
1907,1844,1789
1885,2000,1882
1814,1881,1729
1792,1727,1716
1854,1791,1751
1898,1879,1869
1854,1874,1968
1908,1966,1913
1959,1957,1845
1822,1783,1784
1746,1744,1815
1814,1856,1790
1892,1917,1775
1855,1917,1825
1855,1967,1857
1846,1844,1758
1840,1765,1771
1842,1728,1915
1826,1830,1877
1856,1910,1760
1904,1948,1787
1910,1968,1853
1856,1831,1856
1855,1766,1714
1841,1814,1731
1845,1841,1872
1894,1978,1968
1857,1967,1744
1823,1805,1756
1829,1805,1906
1859,1847,1869
1878,2025,1779
1879,1947,1792
1840,1825,1834
1819,1813,1798
1835,1782,1754
1863,1798,1734
1851,1854,1872
1828,1881,1918
1879,2047,1754
1888,1888,1817
1840,1742,1912
1794,1779,1968
1808,1849,1810
1872,1906,1762
1883,1903,1856
1882,1870,1874
1846,1825,1792
1861,1831,1793
1843,1847,1834
1820,1989,1820
1861,2043,1769
1887,1833,1763
1826,1648,1840
1819,1786,1963
1871,1927,1858
1873,1899,1761
1875,1855,1839
1885,2026,1903
1840,1852,1835
1827,1756,1712
1895,1902,1869
1853,1963,1921
1808,1837,1795
1849,1825,1840
1857,1875,1798
1835,1866,1809
1843,1861,1810
1871,1821,1781
1810,1758,1833
1829,1883,1925
1886,1946,1790
1906,1929,1727
1855,1791,1863
1861,1764,1937
1844,1973,1788
1847,1899,1761
1834,1793,1797
1782,1728,1868
1803,1807,1767
1868,1906,1729
1876,1961,1879
1893,2041,1941
1852,1947,1751
1819,1627,1743
1830,1711,1872
1845,1865,1894
1826,1859,1741
1850,1883,1713
1857,1863,1919
1855,1905,1951
1872,1975,1744
1931,1936,1723
1894,1744,1847
1783,1767,1856
1787,1899,1743
1858,1778,1775
1855,1878,1889
1942,2064,1899
1826,1863,1771
1778,1698,1751
1798,1765,1855
1815,1894,1855
1841,1813,1744
