1797,1769,1792
1872,1793,1847
1862,1866,1905
1867,1808,1854
1834,1724,1791
1886,1744,1856
1813,1805,1903
1902,1792,1849
1839,1741,1787
1808,1711,1765
1840,1763,1840
1792,1761,1840
1839,1739,1805
1846,1741,1802
1878,1766,1872
1857,1760,1872
1844,1697,1796
1842,1699,1810
1859,1714,1858
1867,1689,1843
1840,1655,1823
1840,1679,1833
1859,1690,1870
1824,1623,1842
1838,1535,1801
1839,1556,1814
1869,1586,1855
1847,1571,1824
1813,1535,1797
1895,1562,1841
1900,1573,1889
1859,1535,1861
1861,1518,1795
1871,1535,1812
1873,1567,1862
1866,1533,1874
1860,1510,1840
1883,1535,1826
1882,1557,1855
1859,1530,1851
1867,1515,1817
1873,1529,1821
1886,1558,1872
1884,1535,1856
1879,1498,1817
1890,1523,1840
1909,1535,1876
1872,1523,1872
1929,1499,1810
1904,1518,1855
1909,1535,1875
1862,1535,1856
1839,1510,1795
1863,1520,1826
1846,1569,1878
1849,1569,2235
1859,1503,3232
1811,1491,2896
1898,1519,1964
1897,1524,1629
1857,1520,1717
1873,1535,1826
1875,1557,1873
1891,1535,1857
1821,1520,1801
1846,1535,1813
1858,1574,1826
1830,1564,1830
1857,1534,1831
1853,1567,1826
1872,1584,1829
1862,1583,1832
1840,1535,1826
1846,1567,1827
1878,1605,1834
1860,1574,1828
1845,1563,1825
1845,1589,1828
1866,1613,1826
1862,1599,1826
1811,1581,1829
1883,1605,1829
1903,1630,1826
1894,1616,1829
1851,1600,1827
1905,1635,1833
1857,1661,1829
1859,1638,1825
1844,1617,1829
1747,1637,1827
1927,1678,1828
1904,1664,1786
1854,1635,1744
1874,1662,1793
1873,1694,1839
1875,1683,1791
1847,1654,1715
1856,1682,1754
1875,1699,1805
1872,1695,1795
1849,1683,1744
1860,1699,1759
1870,1727,1802
1868,1711,1793
1842,1693,1742
1875,1714,1763
1873,1749,1821
1841,1747,1807
1822,1705,1742
1918,1748,1758
1918,1791,1787
1847,1778,1785
1799,1763,1744
1770,1808,1771
1843,1851,1806
1901,1838,1776
1796,1813,1744
1789,1862,1773
1836,1887,1808
1809,1872,1786
1839,1862,1731
1830,1886,1754
1867,1947,1818
1851,1927,1785
1839,1881,1729
1889,1914,1772
1862,1948,1809
1888,1939,1781
1845,1926,1745
1865,1954,1776
1866,1968,1798
1826,1953,1763
1844,1938,1728
1863,1979,1745
1924,1997,1776
1825,1967,1754
1772,1961,1747
1842,2000,1794
1841,1991,1792
1808,1972,1738
1795,1959,1696
1840,1991,1777
1877,2028,1853
1823,2018,1815
1849,1975,1761
1887,1986,1779
1850,2009,1827
1811,1991,1796
1890,1955,1733
1855,1979,1758
1874,2014,1822
1919,1993,1813
1822,1967,1761
1848,1987,1751
1886,2013,1811
1901,2000,1799
1856,1977,1747
1856,1985,1790
1879,2007,1820
1873,1991,1793
1871,1968,1762
1887,1993,1786
1878,1985,1831
1855,1943,1761
1850,1945,1810
1872,1977,1789
1879,1989,1754
1854,1959,1707
1833,1933,1701
1826,1933,1761
1830,1951,1776
1845,1940,1725
1839,1938,1693
1855,1938,1727
1843,1949,1776
1826,1919,1750
1815,1895,1706
1836,1909,1745
1881,1937,1824
1826,1884,1767
1785,1859,1680
1807,1882,1681
1825,1915,1733
1650,1909,1744
1646,1890,1728
1971,1887,1741
1915,1915,1781
1886,1904,1733
1809,1873,2074
1582,1907,2495
1973,1877,2233
2020,1865,1926
1852,1845,1769
1808,1859,1646
1776,1886,1730
1862,1878,1754
1887,1853,1702
1893,1860,1642
1856,1906,1717
1829,1874,1734
1826,1845,1645
1823,1853,1630
1776,1890,1744
1435,1895,1841
2096,1860,1726
2096,1843,1637
1579,1870,1754
1841,1872,1793
1913,1843,1643
1863,1841,1597
1837,1874,1742
1829,1869,2011
1831,1871,2118
1834,1870,1855
1829,1904,1769
1834,1894,1763
1907,1887,1939
2000,1922,2097
2028,1969,1904
1986,1920,1776
2005,1898,1741
2066,1935,1722
2111,1943,1872
2087,1917,1783
2062,1911,1618
1251,1941,1707
1291,1950,1890
1206,1861,1862
1348,1872,1705
1813,1952,1718
1959,1951,1885
1887,1898,1881
1807,1915,1731
1827,1959,1759
1791,1959,1872
1697,1938,1933
1590,1982,1807
1998,1995,1824
2019,1930,1877
1883,1951,1861
1809,1965,1828
1815,2037,1891
1833,2053,1945
1834,1959,2010
1839,1936,2000
1829,1989,1893
1834,1931,1907
1835,1901,1945
1831,1970,1878
1829,2014,1898
1838,1973,1968
1840,1952,1972
1829,1943,1823
1837,1977,1833
1829,1995,1958
1834,1951,1951
1833,1956,1919
1829,1989,1905
1833,1968,1935
1398,1967,1991
1104,1968,1874
1732,1994,1885
2278,1977,1976
2095,1997,2011
1842,1961,1856
1787,1891,1818
1809,1853,1930
1835,1837,1967
1839,1888,1905
1834,1904,1912
1833,1904,2010
1834,1902,2032
1838,1879,1935
1831,1878,1940
1839,1863,2095
1836,1833,1955
1830,1859,1823
1833,1875,1840
1834,1883,1969
1835,1821,1991
1838,1819,1917
1831,1846,1899
1835,1843,2007
1838,1792,2077
1831,1789,1963
1839,1851,1951
1834,1840,2679
1837,1821,2229
1831,1830,1834
1706,1808,1705
0,1810,1775
1281,1915,1834
2096,1907,1845
1942,1840,1840
0,1819,1834
0,1845,1821
0,1874,1827
0,1929,1827
0,1920,1830
0,1864,1825
0,1822,1829
0,1861,1829
0,1854,1831
0,1859,1830
220,1877,1827
1586,1910,1829
2128,1913,1830
2014,1893,1829
1845,1902,1827
1805,1936,1835
1824,1934,1834
1840,1890,1829
1840,1949,1825
1840,2011,1830
1837,1968,1836
1837,1919,1833
1833,1885,1829
1837,2015,1830
1835,2006,1833
1834,1979,1808
1835,2001,1722
1838,2026,1744
1835,2035,1893
1834,2012,1984
1835,2090,1899
1834,2153,1808
1837,2096,1893
1835,2054,1951
1835,2140,1910
1835,2091,1908
1842,2167,2017
1920,2129,1995
2064,2112,1894
2218,2161,1856
2352,2185,2003
2430,2141,2082
2490,2142,1963
2616,2179,1872
2733,2150,2000
2783,2218,2096
2829,2192,1901
2946,2221,1886
3043,2177,2086
3067,2119,2097
3085,2150,1910
3198,2231,1960
3262,2206,2025
3264,2122,2032
3291,2160,1937
3406,2230,1926
3472,2226,2064
3520,2199,2134
3488,2123,1912
3579,2208,1882
3642,2219,2010
3647,2157,2087
3671,2192,1968
3759,2218,1890
3849,2217,2015
3767,2145,2037
3763,2160,1939
3890,2187,1927
3907,2160,2002
3856,2121,2059
3839,2151,1957
3930,2183,1904
3975,2157,1971
3903,2082,2018
3888,2083,1968
3971,2138,1903
4043,2129,2017
3973,2101,2039
3905,2121,1929
3973,2128,1887
4017,2087,1996
3999,2058,2066
3942,2126,1938
3980,2134,1893
4019,2093,2019
3953,2027,2073
3965,2058,1943
4011,2064,1907
3975,2077,1983
3895,2058,2010
3869,2064,1904
3991,2090,1957
4014,2043,2065
3893,2010,2002
3806,2023,1888
3830,2043,1858
3905,2032,2000
3851,1979,2053
3771,1978,1951
3851,2015,1895
3888,2000,1990
3792,1967,2003
3728,1978,1893
3761,1993,1882
3805,2032,2019
3682,1951,2028
3610,1981,1911
3650,1984,1903
3669,1960,2006
3625,1902,2095
3558,1973,1862
3598,2000,1822
3565,1997,1921
3472,1901,1968
3461,1964,1907
3485,1979,1840
3464,1849,1934
3409,1900,2035
3361,1870,1899
3358,1952,1774
3343,1914,1885
3376,1903,2031
3338,1906,1908
3343,1922,1855
3318,1909,1924
3252,1904,1969
3216,1876,1858
3247,1882,1829
3242,1879,1919
3186,1864,1977
3150,1904,1915
3183,1925,1874
3184,1863,1954
3138,1894,1936
3081,1926,1840
3088,1936,1808
3145,1945,1936
3059,1854,1975
2997,1840,1862
3012,1923,1839
3012,1845,1934
2951,1858,1947
2918,1859,1841
2950,1890,1750
2975,1872,1891
2943,1824,1978
2903,1861,1853
2914,1864,1811
2960,1855,1974
2839,1829,1954
2811,1750,1811
2827,1839,1751
2867,1853,1949
2823,1770,2006
2787,1953,1889
2828,1997,1857
2763,1788,1841
2704,1792,1899
2711,1791,1853
2772,1843,1867
2746,1859,1899
2671,1825,1969
2638,1865,1837
2672,1936,1845
2704,1868,1962
2672,1841,1923
2643,1821,1835
2640,1783,1835
2624,1814,1905
2599,1888,1953
2559,1872,1852
2590,1841,1831
2557,1875,1906
2507,1772,1909
2479,1824,1807
2496,1711,1806
2526,1810,1934
2497,1876,1971
2470,1878,1825
2486,1859,1802
2465,1847,1903
2437,1840,1998
2414,1855,1895
2443,1961,1790
2438,1914,1904
2373,1864,1941
2320,1840,1825
2337,1815,1776
2382,1831,2015
2352,1861,1975
2312,1856,1823
2315,1830,1744
2319,1823,1863
2278,1825,1951
2261,1872,1840
2301,1903,1834
2269,1835,1921
2229,1819,1906
2231,1844,1842
2256,1875,1825
2267,1886,1927
2224,1853,1968
2176,1843,1819
2203,1842,1795
2223,1871,1930
2185,1857,1958
2160,1843,1841
2176,1879,1802
2192,1929,1931
2164,1882,1995
2134,1859,1885
2154,1937,1819
2161,1921,1910
2115,1855,1959
2101,1887,1874
2114,1929,1859
2115,1922,1909
2083,1885,1936
2063,1900,1839
2087,1936,1839
2107,1933,1974
2037,1886,1972
2012,1904,1866
2094,2032,1846
2094,2006,1917
2031,1919,1966
1999,1924,1861
2032,1979,1850
2030,1947,1918
1986,1911,1970
1982,1985,1882
2000,2029,1861
1997,1966,1925
1952,1918,1935
1931,1949,1833
1968,1997,1805
1966,1980,1969
1955,1954,2033
1938,2015,1858
1927,1987,1789
1927,1978,1895
1902,1978,1968
1897,1989,1901
1943,2032,1853
1917,1988,1936
1872,1971,1985
1845,1950,1840
1874,2005,1762
1883,2018,1878
1856,1967,1968
1849,1978,1870
1868,2042,1840
1887,2064,1946
1838,1998,1968
1808,1979,1850
1861,1990,1843
1878,2064,1973
1841,1996,2015
1808,1955,1834
1817,2013,1760
1825,1984,1890
1787,1927,1947
1792,1967,1862
1837,2045,1853
1831,2014,1947
1762,1967,1909
1745,1979,1869
1778,2005,1826
1817,1991,1953
1776,1921,1943
1749,1938,1834
1754,1988,1758
1776,1973,1919
1756,1943,1969
1738,1974,1860
1753,1966,1793
1754,1917,1886
1725,1882,1949
1712,1925,1840
1739,1953,1820
1757,1920,1924
1715,1938,1974
1707,1949,1872
1731,1941,1822
1726,1943,1887
1690,1898,1984
1678,1906,1856
1716,1936,1786
1719,1917,1902
1694,1899,1957
1706,1963,1875
1725,1963,1815
1682,1919,1895
1617,1872,1942
1639,1909,1862
1714,1922,1840
1735,1943,1911
1677,1917,1938
1647,1907,1840
1673,1943,1798
1683,1906,1900
1630,1874,1983
1611,1862,1867
1653,1907,1840
1667,1968,1865
1631,1897,1923
1615,1879,1810
1666,1917,1813
1650,1907,1902
1597,1854,1931
1595,1866,1889
1635,1971,1776
1659,1915,1866
1610,1842,1902
1602,1849,1850
1648,1904,1846
1647,1915,1917
1597,1845,1914
1590,1853,1878
1643,1898,1834
1647,1893,1935
1600,1866,1946
1568,1844,1795
1632,1861,1788
1655,1920,1907
1621,1907,1959
1597,1908,1853
1629,1890,1820
1636,1883,1917
1613,1882,1999
1602,1854,1891
1648,1895,1876
1609,1933,1936
1552,1834,1967
1561,1817,1810
1615,1854,1778
1627,1911,1904
1585,1831,1968
1606,1853,1840
1632,1872,1790
1645,1882,2026
1603,1845,1963
1590,1845,1825
1645,1904,1840
1654,1923,1899
1606,1795,2019
1594,1794,1867
1622,1854,1697
1625,1856,1839
1600,1809,1953
1612,1885,1884
1632,1919,1839
1636,1918,1975
1591,1840,2009
1570,1808,1727
1618,1824,1725
1652,1842,1983
1582,1824,1955
1509,1746,1735
1481,1732,1623
1446,1679,1776
1377,1581,1755
1321,1600,1631
1338,1600,1495
1338,1583,1535
1323,1580,1698
1263,1518,1518
1301,1478,1463
1299,1460,1582
1250,1427,1655
1261,1457,1515
1306,1535,1527
1299,1569,1619
1255,1499,1661
1253,1479,1517
1324,1552,1459
1305,1535,1617
1247,1533,1675
1275,1535,1619
1327,1535,1507
1311,1509,1525
1289,1535,1668
1316,1616,1616
1355,1574,1519
1337,1517,1648
1311,1521,1741
1344,1574,1647
1392,1622,1603
1360,1629,1685
1312,1584,1737
1354,1558,1726
1462,1702,1687
1442,1723,1749
1401,1651,1791
1379,1671,1680
1435,1670,1622
1446,1662,1730
1415,1646,1834
1423,1680,1781
1471,1774,1708
1498,1739,1771
1501,1777,1852
1481,1708,1786
1535,1723,1744
1521,1713,1814
1482,1772,1931
1488,1790,1847
1535,1796,1719
1567,1820,1830
1524,1774,1919
1535,1777,1904
1590,1803,1821
1583,1846,1839
1535,1837,1905
1558,1808,1830
1633,1838,1825
1655,1873,2010
1616,1874,2070
1578,1827,1822
1621,1847,1768
1666,1882,1954
1613,1874,2011
1610,1861,1853
1671,1873,1828
1696,1985,1945
1656,1877,2033
1679,1893,1943
1729,1930,1869
1694,1929,1933
1634,1869,2003
1669,1917,1947
1758,2000,1945
1761,1979,2083
1710,1910,2085
1693,1969,1909
1743,1973,1834
1744,1904,2002
1708,1934,2073
1699,2007,1985
1762,2009,1990
1779,1974,1968
1738,1935,2064
1728,1942,1990
1765,1984,1901
1776,1985,2013
1757,1984,2096
1761,2033,2032
1791,2031,1904
1785,1990,1984
1744,1937,2073
1761,1985,1990
1823,2128,1925
1809,2033,2093
1766,1984,2106
1743,1924,1917
1783,1918,1855
1794,2001,1979
1774,2081,1984
1795,2041,1937
1853,1968,1939
1846,1936,2109
1773,1949,2087
1791,2043,1904
1825,2047,1942
1836,2038,2016
1808,1945,2101
1809,1973,2029
1840,2067,1911
1839,2035,2010
1846,2143,2174
1827,2015,1968
1854,1905,1895
1867,2009,2026
1773,1927,2041
1787,1971,1949
1863,2081,1930
1915,2145,2047
1833,2128,2089
1803,1943,1954
1856,1921,1908
1872,1921,2064
1847,1968,2066
1835,2003,1955
1835,2019,1847
1865,2059,1905
1846,2000,2149
1887,2033,2070
1913,2095,1937
1889,2098,2045
1877,2039,2114
1889,2096,2007
1947,2099,1966
1889,1973,1973
1855,1964,2047
1875,1978,1995
1904,2096,1990
1921,2112,2157
1862,2022,2089
1875,1999,1917
1925,2034,1936
1936,2045,2096
1883,1990,2179
1878,2061,2004
1921,2055,1911
1927,2064,2032
1904,1975,2141
1936,2057,2082
1895,2027,1840
1893,1985,1927
1870,1983,2089
1881,2012,1986
1949,2043,1961
1955,2027,2031
1913,2130,2107
1926,2149,2056
1931,2000,1904
1894,1971,1950
1861,1968,2028
1898,1999,1961
1959,2070,1917
1937,1978,2002
1891,1966,2135
1889,2047,1983
1936,2118,1853
1909,1998,1950
1867,1883,1973
1894,1936,1925
1973,2075,1973
1920,2011,2032
1883,1999,2064
1886,1968,1906
1925,1975,1830
1922,2065,1935
1840,2037,2007
1861,1940,1911
1945,1941,1885
1923,1947,1941
1887,1899,2000
1904,1962,1935
1909,2041,1837
1936,2062,2000
1931,1963,2060
1887,1910,1850
1899,1931,1780
1887,1906,1906
1919,1954,2019
1942,2077,1929
1913,2054,1891
1865,1870,1887
1863,1927,1927
1872,2000,1902
1931,1936,1891
1909,1879,1919
1863,1901,1915
1871,1946,1847
1920,1973,1825
1902,1890,1903
1889,1933,2018
1872,1979,1920
1936,2018,1789
1936,1943,1905
1870,1830,1967
1829,1843,1835
1937,1931,1802
1915,1969,1911
1859,1935,1963
1856,1905,1872
1921,1958,1798
1862,1983,1884
1850,1924,2021
1865,1852,1898
1904,1920,1771
1891,1918,1857
1840,1907,1893
1860,1933,1837
1946,1986,1840
1911,1933,1978
1831,1855,1915
1805,1939,1787
1886,2046,1735
1885,1851,1866
1838,1758,1994
1860,1801,1858
1933,1969,1807
1938,2032,1936
1855,1897,1903
1806,1871,1791
1870,1868,1697
1823,1878,1830
1859,1877,1921
1825,1873,1818
1855,1889,1767
1883,1872,1856
1826,1824,1936
1833,1921,1838
1837,1991,1767
1926,1963,1904
1886,1882,1953
1850,1826,1783
1873,1855,1739
1876,1875,1810
1832,1853,1889
1840,1872,1807
1936,1877,1788
1853,1858,1827
1835,1853,1947
1830,1875,1875
1857,1920,1739
1857,1865,1741
1799,1889,1834
1814,1859,1776
1857,1870,1714
1858,1873,1825
1814,1823,1901
1834,1839,1822
1889,1872,1844
1882,1936,1834
1794,1885,1793
1790,1791,1717
1837,1840,1707
1836,1902,1828
1833,1877,1982
1907,1840,1827
1872,1813,1706
1876,1856,1843
1825,1863,1873
1813,1821,1778
1840,1866,1689
1809,1872,1799
1822,1800,1871
1850,1792,1774
1850,1901,1772
1872,1905,1891
1806,1846,1865
1790,1841,1717
1827,1810,1659
1835,1782,1791
1792,1801,1917
1808,1858,1840
1838,1853,1673
1845,1850,1787
1810,1821,1872
1879,1841,1792
1805,1890,1712
1841,1833,1831
1795,1774,1837
1760,1810,1728
1903,1881,1701
1837,1865,1808
1821,1767,1853
1786,1856,1846
1914,1895,1799
1839,1803,1808
1751,1787,1755
1808,1787,1709
1839,1861,1694
1869,1863,1843
1862,1827,1915
1828,1856,1788
1843,1810,1710
1818,1827,1776
1740,1826,1819
1776,1797,1756
1829,1813,1717
1840,1907,1890
1797,1903,1923
1783,1736,1727
1842,1788,1712
1809,1858,1818
1782,1841,1890
1789,1817,1789
1834,1840,1667
1834,1835,1824
1781,1787,1867
1794,1808,1745
1812,1857,1710
1823,1859,1843
1792,1872,1870
1831,1857,1716
1879,1868,1670
1887,1805,1835
1802,1808,1887
1753,1783,1776
1794,1840,1694
1808,1831,1840
1769,1775,1857
1819,1860,1746
1863,1963,1698
1821,1814,1825
1759,1750,1870
1743,1791,1726
1831,1835,1681
1854,1812,1826
1750,1835,1836
1771,1810,1733
1824,1823,1721
1803,1848,1782
1761,1824,1847
1785,1854,1808
1834,1904,1719
1803,1812,1781
1751,1764,1890
1773,1777,1761
1846,1831,1703
1823,1808,1801
1770,1809,1818
1803,1829,1776
1882,1903,1782
1838,1867,1898
1727,1842,1840
1723,1808,1695
1783,1789,1659
1805,1754,1742
1776,1791,1826
1798,1837,1762
1825,1873,1699
1834,1847,1823
1794,1787,1904
1770,1843,1787
1803,1873,1699
1819,1901,1787
1779,1856,1872
1776,1786,1791
1841,1824,1735
1808,1750,1776
1758,1789,1872
1774,1815,1755
1817,1853,1735
1821,1822,1808
1779,1885,1809
1778,1851,1742
1808,1834,1703
1841,1887,1847
1790,1846,1887
1767,1754,1805
1799,1872,1698
1809,1894,1771
1807,1897,1872
1791,1802,1778
1811,1756,1699
1809,1842,1857
1782,1834,1903
1772,1835,1726
1831,1916,1676
1849,1875,1809
1787,1760,1897
1776,1862,1801
1825,1963,1747
1819,1904,1794
1762,1725,1810
1776,1767,1762
1840,1904,1770
1823,1895,1822
1776,1831,1866
1767,1837,1789
1821,1840,1767
1832,1849,1875
1787,1909,1904
1774,1809,1729
1811,1834,1664
1831,1877,1780
1799,1808,1889
1795,1870,1825
1810,1904,1727
1817,1931,1853
1777,1835,1844
1781,1831,1755
1825,1842,1776
1810,1808,1763
1756,1818,1798
1776,1878,1767
1840,1875,1741
1844,1851,1835
1791,1877,1899
1760,1903,1779
1811,1847,1841
1826,1840,1778
1776,1819,1807
1776,1865,1741
1837,1890,1770
1855,1841,1841
1808,1803,1942
1770,1847,1747
1811,1877,1692
1810,1873,1798
1770,1873,1887
1778,1828,1740
1834,1887,1707
1840,1851,1831
1778,1851,1869
1791,1978,1764
1827,1899,1647
1820,1744,1788
1769,1727,1901
1761,1824,1776
1833,1948,1712
1849,1937,1837
1789,1872,1872
1776,1851,1759
1852,1918,1741
1821,1837,1810
1770,1794,1869
1776,1839,1738
1803,1855,1671
1809,1808,1799
1777,1811,1872
1786,1859,1825
1815,1957,1712
1824,1950,1810
1795,1857,1895
1782,1818,1779
1831,1840,1705
1831,1791,1840
1767,1799,1902
1781,1906,1810
1837,1907,1675
1819,1857,1734
1766,1835,1856
1776,1847,1826
1831,1904,1757
1812,1902,1813
1773,1887,1880
1771,1845,1813
1829,1863,1744
1814,1840,1792
1764,1799,1811
1762,1846,1735
1823,1936,1741
1841,1849,1855
1776,1812,1925
1767,1912,1768
1808,1888,1730
1820,1818,1799
1770,1794,1877
1787,1817,1831
1840,1887,1675
1840,1901,1775
1789,1894,1899
1773,1872,1808
1823,1882,1744
1846,1877,1885
1808,1883,1900
1814,1889,1770
1834,1879,1727
1815,1820,1872
1776,1785,1872
1783,1885,1773
1839,1906,1686
1843,1885,1813
1818,1879,1936
1815,1932,1834
1850,1914,1724
1820,1824,1783
1778,1825,1907
1785,1904,1840
1852,1938,1733
1861,1934,1825
1793,1825,1872
1767,1878,1782
1844,1949,1755
1829,1809,1787
1776,1839,1917
1778,1856,1776
1859,1872,1733
1862,1977,1874
1804,1885,1967
1783,1903,1810
1819,1869,1629
1820,1824,1742
1776,1808,1875
1791,1888,1829
1845,1934,1790
1815,1887,1871
1785,1875,1895
1793,1872,1733
1835,1927,1685
1852,1836,1891
1852,1936,1987
1771,1885,1799
1809,1880,1718
1835,1895,1781
1802,1831,1869
1806,1758,1818
1838,1886,1744
1833,2006,1815
1791,1835,1893
1777,1806,1786
1855,1923,1773
1875,1872,1872
1807,1879,1919
1792,1875,1809
1833,1858,1725
1856,1879,1846
1808,1874,1914
1787,1916,1770
1845,1910,1770
1824,1840,1871
1799,1811,1915
1803,1893,1759
1835,1898,1718
1839,1840,1878
1796,1828,1883
1813,1901,1790
1847,1925,1722
1829,1920,1809
1796,1803,1950
1805,1946,1872
1848,1904,1758
1857,1808,1823
1803,1837,1930
1795,1860,1818
1847,1933,1706
1862,1904,1828
1803,1792,1916
1781,1831,1825
1843,1858,1743
1883,1964,1857
1811,1893,1891
1778,1833,1815
1840,1867,1752
1851,1872,1814
1818,1858,1889
1792,1891,1799
1862,1867,1765
1872,1927,1877
1810,1917,1953
1828,1909,1840
1854,1840,1740
1853,1839,1808
1812,1856,1922
1799,1803,1824
1837,1831,1693
1856,1834,1860
1842,1907,1994
1810,1958,1778
1845,1994,1683
1884,1839,1853
1812,1753,1949
1806,1845,1843
1849,1986,1745
1830,1854,1791
1776,1835,1934
1783,1862,1823
1855,1890,1761
1895,1885,1925
1837,1949,1954
1787,1920,1744
1830,1904,1682
1867,1879,1869
1819,1883,1922
1791,1824,1798
1879,1864,1782
1888,1888,1856
1824,1827,2080
1791,1885,1808
1831,1915,1634
1849,1840,1773
1807,1872,1885
1824,1893,1843
1869,1885,1766
1865,1910,1910
1842,1903,2025
1808,1842,1776
1845,1849,1669
1874,1859,1851
1819,1743,1971
1822,1864,1967
1859,1865,1733
1854,1968,1786
1802,1841,1865
1805,1909,1808
1869,1945,1789
1877,1783,1911
1826,1920,1953
1827,1916,1829
1862,1965,1743
1861,1901,1821
1813,1744,1923
1798,1787,1851
1855,1897,1757
1862,1918,1828
1831,1903,1963
1841,1904,1898
1868,1936,1712
1840,1925,1781
1810,1828,1962
1822,1799,1872
1846,1813,1702
1869,1919,1822
1828,1847,1974
1815,1875,1876
1852,1914,1744
1865,1903,1787
1808,1905,1861
1821,1829,1829
1877,1922,1775
1857,1908,1851
1824,1841,1966
1837,1908,1872
1879,1935,1798
1867,1865,1915
1807,1858,1907
1803,1927,1712
1886,1978,1723
1889,1875,1866
1820,1801,1911
1829,1856,1835
1856,1871,1748
1854,1866,1819
1820,1963,1997
1810,1867,1813
1875,1931,1713
1861,1871,1797
1799,1846,1871
1808,1853,1809
1870,1937,1749
1890,1978,1920
1844,1947,1936
1813,1837,1782
1842,1824,1703
1860,1821,1824
1818,1772,1895
1810,1882,1803
1867,1929,1742
1875,1931,1904
1823,1919,1933
1833,1915,1919
1877,1891,1738
1861,1855,1774
1803,1826,1862
1797,1854,1798
1858,1901,1751
1871,1872,1840
1818,1859,1908
1815,1856,1858
1895,1925,1898
1894,1895,1840
1793,1829,1806
1814,1869,1779
1882,1946,1755
1874,1878,1843
1805,1808,1926
1808,1890,1872
1877,1962,1761
1889,1883,1843
1808,1820,1858
1801,1843,1781
1869,1911,1744
1887,1913,1840
1859,1881,1936
1859,1872,1947
1884,1887,1782
1854,1858,1752
1799,1835,1850
1784,1940,1775
1855,1937,1762
1906,1920,1953
1837,1854,1983
1806,1886,1746
1854,1906,1705
1862,1839,1793
1815,1826,1871
1828,1850,1799
1878,1865,1749
1865,1905,1838
1821,1904,1968
1805,1904,1805
1855,1909,1717
1894,1911,1839
1838,1877,1942
1811,1887,1890
1846,1881,1694
1879,1863,1787
1831,1839,1880
1830,1840,1845
1872,1906,1845
1866,1891,1817
1827,1836,1849
1845,1829,1819
1905,1929,1799
1863,1985,1836
1804,1886,1872
1828,1842,1947
1884,1885,1869
1899,1927,1743
1818,1856,1798
1788,1833,1742
1840,1866,1710
1872,1905,1856
1841,1871,1938
1842,1811,1828
1879,1985,1748
1874,1966,1829
1813,1849,1877
1809,1825,1811
1892,1904,1916
1898,1967,1847
1821,1910,1811
1808,1886,1744
1894,1917,1746
1915,1886,1856
1869,1821,1969
1860,1823,1853
1840,1925,1689
1843,1936,1781
1820,1891,1901
1857,1877,1899
1890,1872,1871
1874,1911,1791
1830,1904,1842
1819,1867,1747
1868,1891,1712
1890,1911,1821
1857,1900,1936
1840,1881,1904
1872,1827,1829
1874,1993,1758
1809,1904,1801
1824,1849,1783
1889,1888,1797
1894,1903,1869
1839,1875,1946
1823,1882,1824
1883,1920,1727
1865,1891,1808
1833,1791,1872
1855,1831,1908
1900,1920,1983
1893,1977,1728
1837,1922,1740
1808,1827,1734
1856,1887,1742
1876,1882,1850
1829,1822,1912
1834,1816,1837
1893,1905,1778
1891,1923,1879
1833,1880,1942
1808,1850,1815
1861,1851,1712
1871,1888,1814
1845,1910,1936
1844,1971,1968
1868,1951,1705
1854,1853,1729
1810,1827,1855
1811,1852,1840
1885,1894,1793
1882,1895,1838
1842,1872,1955
1840,1850,1954
1890,1922,1801
1882,1888,1776
1829,1882,1834
1835,1920,1805
1866,1973,1725
1872,1872,1806
1827,1815,1886
1810,1840,1796
1863,1891,1765
1877,1889,1927
1846,1813,2033
1811,1863,1725
1847,1959,1661
1840,1859,1783
1818,1879,1906
1840,1837,1856
1894,1903,1840
1868,1903,1835
1821,1846,1898
1826,1859,1795
1859,1871,1775
1879,1901,1900
1840,1855,1874
1813,1869,1840
1873,1907,1783
1878,1889,1857
1830,1887,1877
1822,1818,1802
1881,1893,1797
1872,1941,1817
1843,1858,1895
1843,1849,1828
1863,1872,1796
1865,1872,1842
1826,1872,1949
1827,1866,1728
1883,1873,1697
1886,1863,1865
1835,1893,1936
1824,1773,1827
1851,1853,1712
1874,1922,1808
1853,1893,1916
1827,1851,1805
1874,1835,1821
1901,1920,1942
1847,1934,1821
1826,1845,1691
1851,1815,1651
1855,1810,1813
1825,1853,1925
1835,1849,1915
1845,1868,1727
1854,1888,1729
1826,1903,1857
1834,1889,1845
1872,1831,1825
1900,1877,1873
1825,1847,1833
1802,1821,1758
1861,1861,1747
1869,1911,1856
1829,1859,1919
1812,1917,1777
1856,1875,1737
1875,1807,1878
1851,1812,1911
1792,1834,1765
1826,1845,1808
1862,1905,1840
1804,1834,1872
1807,1823,1936
1872,1875,1886
1875,1963,1744
1792,1837,1782
1808,1781,1799
1866,1829,1727
1874,1895,1861
1818,1873,1933
1810,1840,1860
1870,1842,1838
1871,1894,1846
1811,1922,1859
1834,1850,1834
1875,1881,1757
1872,1913,1905
1830,1850,2017
1821,1839,1779
1833,1842,1535
1867,1847,1744
1811,1799,1906
1812,1837,1822
1887,1894,1862
1893,1892,2251
1827,1843,2207
1808,1861,1853
1871,1875,1689
1894,1933,1857
1832,1910,1919
1789,1850,1825
1840,1847,1695
1870,1818,1747
1826,1822,1860
1824,1905,1819
1878,1925,1761
1875,1829,1861
1845,1793,2038
1808,1778,1838
1823,1887,1791
1852,1951,1821
1828,1853,1898
1807,1840,1693
1859,1891,1712
1887,1873,1917
1855,1840,1914
1815,1892,1782
1855,1789,1745
1855,1851,1749
1821,1872,1834
1834,1872,1776
1895,1932,1729
1882,1879,1804
1826,1850,1893
1817,1838,1815
1857,1899,1707
1872,1902,1808
1810,1856,1904
1806,1824,1804
1878,1898,1761
1881,1850,1840
1837,1851,1805
1818,1913,1862
1872,1874,1788
1875,1849,1776
1814,1856,1808
1782,1831,1680
1850,1867,1717
1878,1872,1820
1841,1831,1911
1839,1856,1779
1880,1955,1749
1866,1856,1834
1795,1808,1797
1816,1869,1778
1899,1904,1743
1907,1863,1812
1827,1871,1920
1815,1923,1995
1871,1911,1696
1886,1873,1701
1804,1794,1815
1782,1776,1773
1872,1918,1765
1895,1942,1856
1824,1856,1947
1798,1855,1745
