1799,1886,1934
1839,1655,1841
1843,1602,1936
1836,1703,1982
1838,1739,1887
1834,1819,1936
1836,1906,1975
1824,1758,1990
1883,1685,1930
1861,1733,1915
1803,1777,2019
1809,1817,2046
1826,1841,1968
1844,1797,1951
1806,1797,2010
1801,1709,1998
1851,1744,1912
1825,1807,1923
1827,1758,2053
1814,1807,2070
1951,1733,1913
2060,1759,1924
2032,1714,2043
1984,1904,2088
2015,1721,1953
2111,1628,1904
2117,1654,2039
2136,1707,2099
2144,1829,1959
2214,1744,1917
2224,1744,2059
2194,1793,2077
2235,1770,1973
2288,1724,1911
2283,1733,2010
2231,1854,2096
2199,1727,1921
2269,1586,1906
2274,1723,2061
2288,1856,2118
2272,1741,1935
2310,1711,1915
2331,1830,2057
2262,1941,2090
2253,1726,1920
2384,1621,1889
2339,1686,2053
2289,1739,2064
2311,1729,1921
2391,1815,1936
2367,1821,2077
2294,1795,2053
2343,1618,1883
2351,1646,1905
2350,1844,2064
2315,1916,2073
2311,1679,1898
2337,1638,1856
2320,1742,1999
2288,1763,2006
2274,1810,1895
2385,1799,1899
2389,1779,2047
2294,1744,2043
2300,1764,1855
2305,1673,1829
2267,1736,1975
2274,1796,2032
2295,1791,1907
2335,1867,1872
2333,1856,1975
2294,1773,1988
2289,1712,1843
2336,1717,1849
2298,1840,1987
2254,1902,2000
2257,1808,1867
2298,1767,1840
2254,1871,1953
2199,1926,1979
2176,1915,1842
2233,1893,1823
2246,2065,1955
2202,2061,1987
2267,1890,1860
2239,1899,1774
2208,1926,1891
2178,1904,1946
2187,1984,1824
2233,1955,1776
2224,1975,1895
2181,1965,1954
2179,1932,1822
2245,2005,1782
2192,2033,1902
2164,2095,1917
2166,2034,1802
2258,1879,1801
2178,2003,1908
2122,2039,1915
2112,2018,1776
2166,2046,1744
2173,2037,1899
2128,2011,1882
2111,1984,1744
2149,2025,1755
2129,2116,1893
2108,2160,1919
2098,2103,1751
2149,2176,1760
2141,2214,1897
2080,2006,1886
2064,1970,1709
2107,2038,1726
2103,2193,1886
2065,2161,1920
2072,2116,1753
2051,2073,1703
2071,2161,1845
2011,2195,1863
2086,2181,1728
2075,2196,1722
2139,2413,1907
2023,2336,1864
2010,2143,1681
2031,2171,1681
2090,2292,1824
2043,2327,1879
2062,2263,1721
2055,2308,1694
2033,2382,1826
1973,2367,1840
1973,2242,1707
1985,2230,1667
2094,2380,1813
1966,2383,1827
1962,2256,1668
2015,2305,1728
1965,2343,1813
1943,2319,1798
1963,2221,1664
2022,2210,1713
2013,2433,1854
1933,2399,1789
1936,2354,1616
1979,2301,1661
2002,2367,1849
1939,2384,1842
1949,2308,1687
2071,2357,1747
2064,2445,1819
1887,2439,1818
1867,2315,1680
1998,2218,1663
1949,2416,1840
1943,2373,1889
1891,2323,1699
2009,2377,1684
2004,2554,1840
1958,2352,1814
1953,2224,1739
1925,2309,1710
1916,2419,1808
1907,2416,1790
1695,2351,1697
1535,2345,1667
1790,2385,1798
1867,2325,1851
1925,2279,1712
1997,2284,1713
1926,2318,1801
1934,2322,1807
1873,2254,1699
1920,2327,1730
1893,2336,1808
1963,2352,1822
1840,2249,1661
1836,2176,1665
1836,2268,1829
1786,2240,1844
1815,2157,1674
1920,2186,1683
1885,2248,1837
1744,2120,1754
1715,2094,1669
1807,2081,1630
1789,2086,1773
1743,2100,1813
1822,2170,1666
1971,2139,1651
1859,2096,1615
1643,1906,1746
1663,1911,1728
1808,1965,1677
1922,2026,1751
1693,2145,1723
1642,1936,1606
1699,1776,1631
1694,1943,1758
1664,1908,1782
1722,1895,1667
1775,1856,1622
1712,1875,1719
1664,1996,1726
1680,1797,1604
1735,1787,1616
1716,1854,1787
1654,1884,1771
1716,1846,1648
1799,1920,1631
1711,1826,1717
1664,1859,1759
1697,1776,1666
1724,1716,1688
1731,1840,1817
1616,1706,1783
1666,1665,1643
1761,1730,1631
1701,1817,1783
1646,1817,1845
1664,1685,1662
1726,1630,1613
1671,1782,1745
1685,1911,1871
1720,1650,1775
1717,1622,1653
1654,1664,1725
1634,1623,1776
1749,1727,1616
1760,1810,1650
1629,1648,1889
1584,1584,1888
1635,1581,1698
1707,1569,1619
1682,1633,1751
1634,1637,1808
1655,1535,1683
1711,1527,1680
1695,1616,1837
1649,1666,1834
1689,1599,1719
1755,1650,1695
1729,1691,1766
1638,1495,1801
1616,1371,1693
1687,1493,1705
1697,1615,1840
1664,1761,1891
1653,1475,1674
1695,1427,1623
1681,1527,1838
1652,1533,1856
1682,1456,1751
1716,1499,1687
1697,1529,1837
1659,1600,1873
1712,1487,1701
1715,1493,1679
1653,1552,1796
1649,1557,1904
1715,1630,1817
1734,1491,1749
1680,1392,1791
1623,1404,1853
1655,1398,1775
1718,1439,1762
1698,1525,1859
1681,1610,1885
1680,1535,1729
1730,1482,1714
1702,1455,1855
1653,1410,1904
1667,1383,1785
1730,1395,1776
1734,1561,1882
1663,1578,1875
1663,1424,1744
1703,1380,1711
1705,1488,1871
1697,1604,1922
1749,1569,1791
1713,1323,1754
1664,1383,1872
1626,1443,1884
1679,1387,1779
1741,1493,1773
1737,1572,1921
1658,1535,1898
1662,1405,1739
1719,1438,1747
1726,1593,1915
1680,1586,1936
1728,1332,1726
1725,1344,1723
1675,1470,1893
1649,1487,1937
1677,1439,1776
1729,1488,1770
1708,1523,1897
1654,1479,1888
1682,1472,1764
1735,1462,1745
1705,1470,1871
1673,1513,1929
1699,1482,1810
1745,1525,1776
1712,1518,1851
1651,1465,1878
1669,1394,1774
1731,1467,1743
1728,1497,1895
1680,1488,1921
1707,1443,1793
1744,1454,1790
1728,1526,1905
1685,1535,1919
1705,1482,1777
1744,1486,1754
1733,1568,1887
1681,1558,1914
1707,1485,1791
1744,1485,1773
1721,1535,1890
1680,1477,1915
1712,1486,1802
1759,1522,1777
1733,1531,1904
1683,1528,1933
1702,1440,1799
1744,1442,1776
1715,1501,1898
1677,1495,1921
1703,1437,1792
1756,1370,1781
1741,1451,1910
1694,1415,1936
1711,1360,1808
1747,1407,1750
1728,1425,1899
1699,1410,1957
1715,1371,1835
1755,1379,1787
1739,1421,1918
1686,1414,1938
1712,1339,1827
1769,1323,1811
1751,1376,1941
1707,1369,1969
1721,1296,1835
1753,1289,1792
1742,1347,1914
1727,1362,1968
1759,1296,1856
1808,1278,1815
1793,1333,1936
1750,1376,1967
1783,1293,1841
1840,1310,1814
1837,1344,1934
1808,1335,1974
1827,1298,1857
1449,1273,1831
1666,1323,1946
1854,1358,1975
1915,1308,1851
1933,1309,1819
1892,1390,1939
1856,1349,1984
1887,1359,1874
1936,1328,1843
1915,1373,1964
1867,1394,1979
1882,1345,1845
1949,1360,1841
1865,1411,1980
1471,1418,2005
2254,1410,1874
2128,1376,1843
0,1491,1984
0,1453,2022
0,1444,1915
0,1500,1877
0,1524,2039
0,1598,2061
0,1390,1873
0,1389,1818
0,1489,1989
0,1589,2062
0,1438,1902
0,1431,1840
0,1497,1951
0,1511,1986
0,1457,1887
0,1502,1865
979,1602,1984
1977,1560,2010
2092,1535,1890
1761,1502,1872
0,1584,2033
0,1686,2032
0,1529,1868
0,1530,1849
117,1620,1991
1488,1626,2037
2117,1575,1917
2034,1588,1897
1808,1643,1999
1795,1665,2023
1808,1635,1902
1744,1615,1874
1904,1679,2010
1904,1697,2039
1792,1629,1910
1844,1650,1879
1858,1701,1989
1713,1739,2032
989,1691,1933
2596,1585,1887
2384,1728,2017
1907,1746,2067
1750,1711,1933
1788,1694,1895
1837,1727,2011
1841,1727,2046
1840,1684,1927
1840,1701,1898
1835,1781,2015
1839,1802,2047
1834,1734,1911
1834,1727,1882
1832,1798,2010
1833,1807,2065
1838,1775,1955
1837,1794,1919
1830,1862,2037
1839,1836,2073
1837,1734,1935
1837,1747,1894
1831,1853,2020
1837,1795,2063
1833,1781,2035
1807,1809,1968
1831,1909,2038
1840,1888,2059
1839,1868,1938
1831,1882,1891
1824,1919,1990
1799,2000,2075
1875,1853,1983
2076,1926,1943
2154,1950,2032
2162,1958,2059
2223,1901,1938
2320,1909,1925
2352,1957,2031
2354,2031,2062
2405,1917,1936
2507,1875,1916
2545,2004,2058
2536,1997,2079
2581,1915,1947
2662,1926,1904
2655,1983,2002
2645,1993,2058
2703,1921,1945
2785,1952,1911
2791,2014,2014
2766,2027,2046
2793,1966,1924
2860,2023,1905
1798,2032,2032
1413,2045,2045
1671,2032,1915
1861,1961,1917
1885,2054,2046
1847,2135,2071
1805,1979,1911
1836,1991,1891
1847,2106,2027
1835,2055,2071
1840,2027,1935
1831,2003,1898
1834,2047,2003
1828,1984,2033
1839,2021,1936
1840,2046,1930
1835,2094,2039
1824,2129,2067
1785,2030,1936
1823,2030,1899
1847,2093,2021
1871,2081,2042
1853,2027,1907
1826,2021,1874
1831,2082,2010
1833,2086,2064
1819,2003,1927
1802,1981,1872
1871,2059,1984
1886,2064,2036
1843,2030,1925
1826,2019,1887
1828,2065,1998
1840,2087,2030
1680,1995,1902
1644,1975,1859
1917,2053,1971
1917,2074,2025
1849,2011,1923
1808,2029,1879
1821,2071,1968
1851,2059,1994
1843,2000,1883
1815,2001,1889
1840,2099,2005
1841,2143,2035
1842,1995,1897
1827,1970,1856
1831,2032,1979
1834,2067,2033
1837,2023,1902
1835,2014,1842
1835,2095,1948
1833,2110,2016
1833,2054,1904
1837,2021,1857
1831,2080,1953
1830,2103,1995
1831,2059,1886
1834,2069,1851
1835,2052,1951
1831,2054,1970
1839,2020,1854
1833,2026,1833
1829,2096,1963
1833,2169,2006
1871,2055,1871
1919,1987,1840
1915,2043,1963
1887,2107,1984
1904,2047,1854
1970,2000,1825
1977,2069,1945
1952,2110,1984
1971,2033,1863
2032,2029,1855
2017,2082,1967
1969,2062,1973
2002,2030,1856
2043,2039,1813
1776,2096,1911
1552,2043,1911
1872,2131,1873
2112,2133,1911
2122,1999,1927
2064,2005,1903
2075,1985,1793
2139,2011,1784
2150,2114,1948
2105,2074,1968
2115,1875,1829
2181,2160,1807
2158,2122,1869
2063,1876,1863
2112,2031,1815
2178,2006,1815
2147,2014,1859
1911,2145,1905
1979,1904,1780
2166,1843,1751
2205,2027,1901
2151,2128,2033
2146,1945,1855
2224,1942,2075
2218,2042,2032
2166,1975,1903
2181,2192,1756
2192,2047,1664
2183,1900,1831
2160,1855,1911
2175,1915,1744
2217,1974,1733
2208,2045,1855
2161,2075,1871
2164,1978,1785
2191,1907,1694
2176,1871,1771
2155,2029,1801
2242,2091,1744
2293,1968,1693
1862,1873,1807
1177,1876,1834
1734,1987,1754
1978,2269,1731
1946,2192,1799
1883,1694,1813
1838,1712,1669
1818,1914,1694
1855,2125,1862
1840,2175,1816
1833,1930,1625
1834,1775,1669
1827,1971,1840
1834,2096,1843
1831,1992,1615
1840,2000,1727
1835,2309,1830
1833,2112,1804
1837,1939,1661
1835,1866,1669
1831,2071,1803
1834,2425,1904
1830,2203,1627
1837,1761,1515
1834,2227,1735
1830,2278,1828
1829,1862,1567
1835,2113,1593
1828,2038,1733
1835,1968,1727
1830,1892,1555
1831,1936,1604
1828,2058,1711
1917,2217,1744
2112,2352,1615
1856,1924,1535
1644,1705,1689
1669,1821,1731
1785,1937,1594
1904,2160,1569
1882,2217,1738
1743,1770,1721
1770,1725,1616
1872,1934,1598
1984,1984,1647
1887,2071,1617
1729,1739,1612
1763,1854,1581
1724,2031,1695
1663,1857,1742
1786,1787,1532
1856,1744,1535
0,2111,1753
0,1965,1698
0,1693,1570
0,1632,1535
0,1927,1611
0,1959,1759
0,1851,1583
0,1655,1447
0,1750,1674
0,1885,1683
0,1762,1424
0,1763,1482
0,1645,1648
805,1803,1617
1942,1706,1574
2135,1755,1489
1952,1663,1637
1819,1823,1711
1808,1834,1554
1836,1596,1474
1847,1673,1583
1843,1674,1695
1843,1745,1483
1843,1771,1472
1838,1774,1759
1840,1823,1744
1840,1535,1578
1838,1666,1585
1838,1781,1686
1840,1646,1654
1841,1711,1631
1837,1739,1639
1833,1638,1657
1828,1682,1680
1840,1503,1645
1838,1559,1697
1838,1735,1766
1831,1840,1852
1839,1858,1822
1837,1566,1760
1839,1533,1805
1938,1647,1839
2208,1693,1776
2487,1710,1641
2585,1627,1821
2683,1610,1931
2890,1607,1872
3103,1664,1775
3152,1571,1874
3207,1761,1941
3403,1681,1733
3648,1631,1794
3811,1562,1929
3750,1552,1968
3932,1626,1802
4095,1593,1806
4095,1713,1824
4095,1777,1995
4095,1715,1929
4095,1469,1790
4095,1467,1854
4095,1646,1933
4095,1622,1815
4095,1600,1718
4095,1872,1985
4095,1528,2047
4095,1507,1845
4095,1487,1745
4095,1600,1938
4095,1680,2017
4095,1680,1904
4095,1597,1755
4095,1587,1936
4095,1670,2053
4095,1437,1885
4095,1495,1777
4095,1637,1901
4095,1718,2057
4095,1616,1856
4095,1499,1846
4095,1615,1984
4095,1554,1964
4095,1515,1851
4095,1633,1894
4095,1799,1994
4095,1619,1871
4095,1447,1767
4095,1470,1814
4095,1616,2001
4095,1637,1971
4095,1458,1907
4095,1733,1858
4095,1735,1934
4095,1473,1924
4095,1474,1818
4095,1494,1910
4095,1584,2007
4095,1614,1987
4095,1710,1776
4095,1506,1849
4095,1584,1987
4095,1687,1973
4095,1535,1777
4095,1490,1872
4095,1629,1957
4095,1583,1923
4095,1534,1862
4095,1559,1791
4095,1535,2001
4095,1587,2014
4095,1532,1835
4095,1588,1814
4095,1783,1918
4095,1535,2032
4095,1495,1861
4095,1507,1862
4095,1582,1989
4095,1645,1979
4095,1659,1871
4095,1583,1799
4095,1502,1901
4095,1573,1979
4095,1602,1920
4095,1583,1827
4095,1741,1939
4095,1671,1952
4079,1422,1808
4077,1462,1802
3819,1535,1995
3735,1747,1935
3788,1694,1776
3724,1494,1830
3511,1613,2039
3463,1653,2091
3421,1555,1908
3468,1642,1776
3407,1535,1913
3303,1586,1953
3302,1463,1866
3346,1603,1825
3323,1828,1965
3233,1743,1937
3276,1682,1752
3312,1535,1775
3118,1520,1919
2982,1582,2016
3055,1574,1923
3236,1638,1842
3215,1711,1783
2871,1769,1873
2839,1553,1916
2945,1478,1879
2974,1584,2007
2961,1765,2064
2935,1677,1787
2834,1535,1689
2793,1600,1829
2791,1617,1907
2858,1815,1847
2832,1646,1841
2747,1579,1976
2698,1569,1994
2726,1573,1853
2787,1647,1800
2778,1797,1871
2650,1710,1949
2614,1767,1858
2741,1637,1723
2656,1621,1901
2495,1584,2010
2517,1563,1860
2597,1616,1792
2629,1719,1996
2541,1909,1970
2559,1720,1781
2479,1535,1697
2423,1565,1874
2414,1671,1959
2448,1664,1872
2495,1695,1792
2493,1808,1881
2353,1751,1885
2311,1623,1763
2403,1603,1831
2321,1712,1980
2263,1678,1936
2306,1703,1865
2354,1731,1808
2297,1637,1854
2245,1761,1890
2247,1712,1741
2251,1584,1777
2211,1651,1930
2173,1746,1965
2176,1776,1835
2257,1699,1781
2181,1752,1883
2143,1717,1919
2103,1737,1762
2209,1615,1767
2101,1668,1902
2082,1778,1967
2153,1807,1875
2178,1696,1747
2063,1638,1823
1985,1746,1918
2047,1729,1842
2063,1648,1793
2069,1660,1870
1948,1753,1947
1959,1857,1820
2006,1635,1770
1987,1648,1850
1987,1791,1911
1967,1771,1802
2000,1686,1781
1957,1707,1885
1881,1734,1942
1861,1865,1777
1957,1679,1809
1894,1766,1887
1872,1678,1874
1887,1653,1788
1890,1680,1776
1894,1909,1936
1827,1796,1936
1765,1643,1776
1858,1726,1763
1882,1763,1831
1747,1711,1898
1786,1712,1810
1884,1685,1791
1882,1825,1855
1725,1774,1887
1711,1735,1790
1815,1821,1790
1833,1811,1883
1674,1780,1939
1694,1703,1807
1744,1776,1717
1735,1821,1907
1727,1790,1946
1716,1827,1779
1759,1725,1725
1757,1826,1893
1599,1799,1899
1648,1851,1719
1719,1734,1749
1678,1781,1877
1655,1732,1905
1713,1744,1731
1663,1783,1779
1559,1839,1909
1535,1741,1920
1622,1684,1746
1648,1851,1697
1609,1913,1872
1600,1834,1951
1601,1793,1825
1611,1711,1700
1584,1781,1780
1576,1967,1901
1535,1802,1786
1629,1609,1794
1571,1795,1885
1563,1967,1909
1555,1774,1762
1598,1787,1696
1535,1841,1850
1531,1940,1887
1562,1708,1778
1568,1690,1789
1534,1790,1941
1493,1876,1956
1503,1807,1773
1535,1787,1742
1535,1853,1872
1504,1895,1936
1510,1737,1744
1534,1808,1764
1452,1841,1863
1445,1817,1906
1489,1792,1782
1487,1802,1752
1558,1872,1920
1470,1954,1931
1443,1819,1819
1504,1762,1796
1387,1763,1866
1443,1805,1910
1522,1874,1792
1505,1797,1746
1438,1866,1851
1431,1923,1985
1439,1828,1858
1482,1762,1776
1469,1790,1883
1418,1859,1937
1422,1840,1799
1453,1809,1742
1463,1847,1909
1395,1901,1953
1407,1811,1770
1447,1769,1707
1461,1824,1853
1445,1985,1957
1399,1813,1822
1439,1767,1761
1425,1819,1865
1359,1875,1921
1394,1798,1836
1458,1886,1806
1483,1940,1934
1406,1872,1931
1382,1705,1788
1409,1717,1775
1395,1869,1904
1451,1986,1951
1375,1798,1814
1471,1853,1761
1451,1871,1886
1381,1795,1920
1392,1801,1854
1463,1834,1809
1489,1878,1891
1373,1887,1939
1351,1776,1818
1381,1754,1777
1405,1840,1861
1430,1949,1953
1461,1879,1819
1432,1834,1744
1392,1840,1869
1336,1846,1935
1376,1791,1809
1445,1827,1783
1430,1876,1932
1383,1906,1967
1323,1809,1795
1393,1719,1742
1392,1824,1863
1457,1952,1950
1395,1867,1798
1392,1862,1793
1392,1931,1974
1356,1833,1887
1335,1713,1728
1439,1757,1791
1455,1947,1959
1408,1968,1968
1402,1766,1815
1424,1847,1744
1407,1840,1892
1390,1869,1937
1457,1798,1810
1433,1833,1775
1379,1931,1909
1371,1909,1926
1440,1850,1841
1435,1821,1786
1392,1807,1867
1367,1872,1884
1367,1862,1791
1436,1807,1834
1447,1970,1974
1367,1799,1904
1361,1666,1761
1418,1760,1739
1423,1967,1891
1415,2045,1958
1403,1883,1809
1478,1811,1795
1439,1854,1856
1359,1872,1930
1395,1866,1861
1501,1815,1770
1399,1891,1850
1346,1920,1919
1392,1904,1820
1402,1735,1733
1440,1873,1920
1392,1781,1936
1399,1858,1825
1462,1904,1791
1456,2014,1877
1404,1872,1907
1456,1794,1807
1451,1713,1795
1440,1842,1911
1343,1894,1866
1360,1837,1778
1481,1908,1808
1472,1930,1906
1411,1904,1939
1395,1776,1771
1435,1709,1725
1465,1856,1873
1394,1947,1903
1446,1786,1785
1577,1896,1788
1471,1897,1872
1322,1808,1904
1361,1739,1817
1453,1857,1789
1458,2002,1902
1424,1927,1911
1405,1774,1783
1478,1828,1773
1463,1933,1847
1392,1881,1874
1429,1679,1810
1520,1820,1808
1473,1964,1871
1392,1882,1858
1436,1839,1778
1534,1787,1809
1495,1920,1915
1408,1881,1936
1427,1761,1778
1475,1853,1749
1499,1946,1887
1430,1753,1923
1447,1804,1825
1483,1751,1770
1505,1969,1852
1443,2033,1857
1424,1787,1776
1498,1801,1791
1535,1877,1904
1488,1844,1936
1488,1985,1840
1483,1763,1735
1482,1744,1840
1465,1966,1891
1458,1915,1808
1477,1822,1743
1520,1879,1843
1472,1872,1893
1450,1696,1817
1511,1732,1821
1532,1882,1874
1472,1963,1897
1488,1862,1744
1519,1814,1744
1523,1956,1906
1508,1984,1887
1502,1712,1789
1504,1738,1744
1535,1803,1869
1514,1879,1893
1499,1954,1834
1520,1887,1774
1525,1932,1918
1484,1788,1891
1535,1736,1790
1555,1799,1733
1530,1850,1871
1493,1869,1930
1493,1939,1781
1535,1829,1742
1531,1894,1875
1486,1999,1933
1555,1776,1830
1612,1786,1746
1530,1846,1810
1461,1887,1881
1501,1827,1827
1587,1841,1776
1579,1925,1900
1527,2044,1891
1517,1808,1746
1565,1809,1751
1573,1841,1847
1504,1781,1904
1535,1805,1782
1611,1865,1747
1594,2047,1882
1561,1931,1918
1562,1737,1791
1631,1689,1697
1568,1910,1846
1513,1897,1961
1567,1895,1903
1613,1875,1749
1593,1848,1835
1561,1927,1904
1577,1902,1792
1630,1962,1782
1613,1834,1893
1589,1857,1888
1620,1799,1776
1620,2035,1761
1588,1899,1872
1562,1901,1909
1590,1773,1791
1638,1901,1728
1584,1939,1872
1535,1867,1943
1589,1809,1843
1647,1829,1760
1600,1971,1797
1556,1936,1860
1590,1842,1827
1697,1918,1791
1625,1904,1854
1515,1890,1894
1584,1911,1836
1651,1774,1748
1639,1963,1856
1589,1922,1897
1591,1767,1777
1649,1838,1774
1616,1872,1844
1591,2064,1917
1607,1847,1778
1696,1873,1703
1675,1887,1829
1558,1815,1902
1616,2037,1872
1706,1898,1728
1606,1837,1781
1581,1861,1922
1598,1828,1819
1689,2062,1742
1680,1873,1874
1583,1902,1941
1651,1726,1808
1665,1943,1773
1635,1872,1807
1594,1836,1885
1682,1811,1802
1669,1918,1738
1616,1923,1872
1647,1939,1931
1653,1856,1772
1696,1808,1699
1697,1996,1968
1658,1966,2000
1618,1802,1786
1657,1889,1731
1664,1872,1843
1633,1897,1894
1662,1904,1815
1705,1895,1757
1706,1834,1869
1662,1983,1933
1654,1938,1757
1646,1780,1718
1664,1823,1904
1651,1887,1933
1710,1873,1827
1712,1872,1776
1676,1886,1870
1658,1954,1910
1646,1831,1787
1729,1819,1776
1713,1969,1887
1623,1856,1895
1648,1791,1783
1767,1920,1782
1734,1919,1872
1635,1859,1904
1648,1831,1806
1721,1920,1778
1701,1847,1873
1662,1840,1921
1720,1877,1834
1757,1814,1709
1714,1859,1845
1639,1935,1901
1658,1892,1789
1760,1798,1765
1731,1872,1872
1668,1899,1904
1693,1873,1808
1778,1863,1791
1699,1808,1824
1648,1843,1879
1685,1806,1808
1775,2011,1814
1756,1862,1894
1728,1796,1887
1727,1746,1773
1743,1844,1731
1741,1904,1895
1681,1840,1941
1716,1771,1794
1793,1963,1787
1771,1985,1895
1712,1823,1921
1711,1825,1815
1744,1957,1767
1743,1888,1879
1711,1762,1923
1726,1690,1772
1779,1767,1732
1778,1907,1886
1764,1996,1973
1724,1839,1776
1755,1758,1750
1802,1900,1847
1707,1849,1936
1715,1829,1867
1791,1924,1795
1782,1756,1865
1694,1703,1911
1744,1894,1840
1783,1916,1796
1763,1904,1886
1728,1905,1876
1712,1744,1747
1782,1808,1779
1781,1822,1899
1734,1991,1969
1776,1860,1830
1813,1871,1766
1819,1840,1827
1696,1698,1889
1737,1707,1815
1787,1856,1783
1793,1998,1889
1745,2077,1883
1733,1697,1840
1779,1693,1754
1779,1817,1895
1758,1829,1946
1767,1765,1805
1791,1767,1771
1787,1927,1901
1733,1983,1863
1763,1719,1801
1889,1806,1808
1778,1742,1872
1696,1887,1929
1717,1897,1803
1773,1814,1742
1787,1763,1846
1765,1893,1903
1754,1807,1803
1819,1840,1779
1776,1795,1871
1754,1721,1872
1753,1809,1789
1808,1853,1825
1815,1871,1918
1793,1973,1909
1749,1837,1776
1751,1671,1689
1759,1788,1849
1740,1874,1923
1770,1695,1776
1826,1818,1748
1827,1856,1883
1735,1865,1914
1739,1832,1798
1820,1827,1739
1823,1734,1831
1755,1795,1936
1758,1775,1799
1838,1787,1757
1843,1872,1893
1841,1936,1952
1739,1781,1775
1765,1691,1710
1807,1841,1904
1747,1870,1922
1778,1889,1808
1834,1817,1728
1821,1760,1826
1765,1873,1911
1776,1893,1854
1842,1737,1760
1833,1794,1866
1750,1845,1922
1779,1808,1821
1834,1851,1733
1796,1859,1877
1754,1808,1915
1787,1719,1792
1846,1813,1753
1806,1933,1873
1751,1753,1914
1786,1733,1786
1827,1760,1767
1859,1904,1883
1793,1880,1891
1797,1899,1839
1797,1765,1776
1799,1763,1874
1793,1885,1930
1782,1767,1776
1854,1765,1735
1840,1856,1883
1754,1787,1935
1769,1804,1781
1838,1766,1787
1827,1866,1898
1776,2072,1920
1770,1689,1783
1835,1629,1744
1840,1856,1892
1809,1991,1933
1777,1731,1792
1823,1688,1713
1828,1808,1868
1771,1847,1961
1799,1968,1863
1857,1968,1795
1842,1779,1810
1791,1699,1891
1807,1749,1803
1808,1680,1745
1815,1867,1894
1792,1985,1936
1829,1833,1808
1847,1826,1719
1840,1773,1849
1818,1783,1924
1801,1730,1791
1871,1744,1779
1853,1976,1909
1791,1933,1929
1792,1739,1808
1879,1757,1759
1849,1907,1839
1787,1982,1925
1794,1732,1796
1861,1661,1739
1879,1925,1937
1781,1787,1936
1808,1807,1808
1822,1758,1767
1841,1849,1885
1821,1927,1925
1827,1968,1783
1881,1765,1778
1831,1712,1849
1803,1744,1834
1811,1750,1797
1852,1826,1743
1827,1867,1893
1798,1920,1925
1815,1775,1781
1872,1822,1793
1840,1895,1874
1838,1868,1931
1849,1856,1826
1845,1660,1725
1837,1820,1826
1811,1974,1924
1819,1794,1787
1860,1725,1742
1875,1769,1892
1863,1975,1961
1815,1909,1805
1874,1690,1727
1840,1751,1805
1798,1840,1909
1806,1875,1838
1850,1827,1746
1857,1807,1850
1829,1947,1950
1812,1867,1842
1833,1626,1750
1856,1792,1872
1828,1909,1936
1861,1873,1811
1847,1741,1732
1836,1806,1865
1838,1891,1942
1857,1830,1799
1849,1834,1734
1867,1894,1867
1802,1807,1904
1783,1668,1766
1862,1710,1744
1860,1867,1887
1777,1921,1914
1819,1903,1821
1849,1755,1749
1823,1726,1854
1824,1885,1953
1870,1834,1845
1847,1734,1739
1807,1790,1824
1778,1923,1942
1840,1885,1825
1895,1906,1727
1840,1773,1856
1779,1873,1955
1808,1679,1777
1893,1712,1744
1827,1833,1872
1818,1866,1953
1865,1869,1830
1831,1777,1707
1805,1855,1849
1806,1889,1936
1833,1806,1806
1872,1845,1753
1881,1733,1829
1815,1879,1919
1808,1838,1838
1840,1705,1744
1841,1842,1872
1828,1873,1941
1862,1885,1812
1873,1793,1749
1879,1850,1871
1801,1882,1920
1776,1805,1775
1854,1755,1763
1905,1847,1899
1835,1843,1927
1817,1758,1790
1858,1820,1735
1837,1918,1887
1791,1814,1940
1815,1765,1803
1875,1834,1735
1878,1824,1859
1827,1904,1941
1842,1847,1885
1895,1898,1745
1870,1818,1846
1776,1758,1889
1791,1796,1847
1888,1872,1808
1869,1833,1871
1813,1793,1879
1826,1857,1811
1901,1809,1836
1835,1792,1845
1761,1793,1909
1850,1794,1869
1935,1860,1830
1867,2001,1878
1755,1873,1875
1794,1728,1791
1847,1712,1753
1883,1947,1898
1829,1883,1902
1821,1737,1750
1853,1770,1725
1865,1891,1865
1815,1869,1941
1843,1831,1856
1943,1808,1806
1866,1968,1872
1779,1870,1929
1821,1751,1782
1853,1760,1746
1916,2041,1989
1819,1822,1882
1758,1714,1793
1845,1743,1810
1898,1925,1947
1821,1870,1937
1810,1776,1805
1872,1766,1775
1872,1862,1855
1827,1939,1925
1859,1924,1860
1930,1730,1755
1897,1831,1870
1778,1904,1957
1815,1860,1826
1893,1844,1711
1847,1889,1858
1795,1907,1949
1851,1801,1843
1898,1791,1781
1862,1859,1877
1808,1889,1924
1799,1891,1779
1843,1780,1751
1847,1808,1845
1830,1789,1981
1893,1901,1846
1879,1809,1726
1839,1875,1853
1831,1896,1936
1807,1779,1840
1854,1775,1797
1904,1963,1875
1854,1881,1904
1827,1809,1821
1859,1805,1771
1845,1871,1853
1822,1859,1913
1917,1948,1903
1939,2014,1697
1805,1748,1779
1735,1775,1898
1799,1866,1861
1935,1821,1792
1872,1893,1888
1835,1874,1893
1863,1919,1808
1876,1882,1790
1841,1872,1867
1783,1834,1916
1808,1807,1808
1882,1839,1753
1907,1868,1877
1835,2020,1953
1815,1856,1840
1853,1696,1766
1847,1829,1853
1869,1968,1938
1863,1835,1776
1856,1838,1757
1844,1889,1855
1814,1934,1969
1846,1786,1766
1910,1741,1749
1932,1868,1917
1776,1909,1898
1751,1811,1810
1847,1891,1808
1871,1838,1895
1853,1988,1840
1856,1929,1842
1853,1707,1750
1850,1817,1789
1808,1804,1929
1829,1794,1831
1965,1888,1769
1862,1939,1859
1776,1897,1932
1818,1779,1808
1898,1895,1866
1907,1904,1891
1808,1888,1856
1807,1808,1835
1840,1782,1799
1855,1893,1861
1847,1922,1918
1883,1936,1851
1853,1739,1687
1823,1756,1925
1823,1897,1932
1845,1871,1840
1929,1795,1729
1856,1870,1809
1810,1958,1987
1815,1886,1886
1840,1759,1770
1872,1856,1853
1852,1971,1882
1869,1798,1811
1854,1707,1730
1842,1795,1872
1804,1877,1897
1829,1880,1808
1907,1869,1803
1906,1920,1951
1825,1845,1906
1825,1859,1780
