2919,1885,1899
2880,1809,1776
2905,1776,1689
2911,1853,1805
2858,1884,1873
2845,1808,1773
2873,1763,1666
2865,1833,1776
2817,1863,1877
2805,1807,1770
2831,1750,1655
2812,1808,1733
2756,1866,1825
2758,1792,1754
2779,1732,2811
2736,1755,1660
2704,1808,1777
2624,1691,4095
1981,1031,4095
0,0,4095
0,0,4095
0,0,4095
523,0,3524
1311,0,2105
1666,293,1579
1804,785,1664
1923,1008,1813
2021,1188,1863
2085,1329,1845
2182,1369,1827
2302,1422,1829
2358,1583,1829
2370,1718,1830
2416,1680,1831
2511,1695,1829
2544,1825,1833
2529,1925,1827
2559,1920,1827
2635,1934,1827
2661,2021,1835
2635,2074,1829
2658,2064,1826
2715,2064,1827
2723,2145,1941
2551,2089,2625
2382,1903,1051
2461,1893,886
2608,2045,1613
2640,2131,1950
2653,2099,1936
2704,2096,1840
2704,2179,1810
2663,2246,1808
2685,2217,1722
2747,2197,1635
2753,2271,1705
2697,2315,1747
2695,2275,1626
2739,2240,1532
2746,2303,1619
2699,2357,1680
2688,2298,1565
2738,2271,1469
2747,2350,1569
2705,2385,1649
2699,2334,1552
2723,2304,1467
2725,2369,1555
2673,2390,1616
2672,2346,1521
2714,2311,1431
2707,2363,1520
2654,2402,1600
2635,2346,1504
2671,2306,1429
2673,2373,1520
2625,2415,1611
2624,2329,1515
2666,2302,1414
2655,2366,1519
2608,2411,1605
2591,2347,1502
2630,2304,1420
2617,2353,1503
2559,2384,1590
2543,2334,1525
2583,2277,1407
2581,2325,1509
2512,2367,1609
2490,2295,1459
2525,2254,1429
2535,2321,1485
2481,2352,1600
2463,2277,1478
2499,2241,1414
2496,2308,1531
2436,2346,1618
2434,2285,1520
2463,2235,1418
2451,2288,1511
2407,2341,1603
2405,2283,1503
2441,2229,1426
2438,2283,1535
2380,2325,1642
2371,2259,1526
2416,2224,1480
2406,2287,1584
2354,2330,1664
2343,2271,1585
2379,2226,1502
2375,2282,1618
2319,2321,1678
2301,2251,1595
2349,2198,1535
2351,2260,1618
2302,2298,1718
2285,2236,1590
2314,2203,1535
2304,2243,1623
2251,2253,1679
2242,2219,1645
2278,2167,1554
2279,2234,1617
2224,2274,1731
2219,2198,1634
2256,2160,1569
2256,2217,1673
2202,2271,1767
2198,2194,1669
2224,2128,1578
2224,2192,1674
2178,2240,1757
2161,2185,1662
2196,2149,1605
2205,2202,1674
2151,2215,1775
2143,2152,1683
2175,2124,1648
2167,2185,1712
2118,2224,1835
2118,2157,1744
2156,2102,1616
2148,2162,1744
2093,2205,1817
2079,2137,1724
2112,2093,1683
2112,2149,1707
2071,2194,1830
2058,2130,1714
2085,2079,1680
2077,2134,1764
2025,2176,1865
2017,2097,1733
2064,2064,1665
2069,2132,1781
2000,2153,1845
2000,2094,1722
2032,2058,1652
2030,2113,1758
1984,2148,1865
1982,2087,1730
2022,2042,1692
2015,2106,1778
1971,2145,1871
1966,2086,1794
2000,2027,1702
1996,2079,1842
1939,2126,1876
1936,2045,1798
1975,1999,1714
1968,2063,1804
1925,2099,1889
1907,2032,1711
1948,1999,1680
1945,2038,1804
1891,2081,1939
1881,2010,1791
1929,1973,1721
1929,2031,1754
1878,2075,1889
1872,1988,1806
1904,1942,1725
1905,2001,1835
1854,2032,1867
1842,1951,1791
1889,1904,1724
1882,1968,1809
1839,2018,1899
1826,1967,1804
1875,1919,1727
1891,1974,1834
1841,2000,1879
1823,1935,1808
1863,1905,1709
1872,1962,1835
1837,1985,1920
1835,1936,1840
1879,1887,1734
1883,1961,1849
1850,1999,1894
1843,1943,1810
1892,1897,1730
1894,1940,1881
1856,1969,1899
1856,1909,1790
1893,1871,1815
1904,1935,1874
1853,1982,1969
1854,1907,1810
1904,1853,1759
1914,1908,1859
1867,1946,1959
1855,1888,1907
1904,1856,1743
1904,1917,1885
1859,1923,1945
1859,1870,1849
1901,1849,1769
1911,1917,1863
1873,1941,1985
1869,1878,1856
1906,1854,1779
1919,1913,1002
1905,1965,1573
1905,1906,1902
1927,1863,1923
1920,1911,1843
1891,1948,1809
1883,1887,1814
1923,1842,1824
1923,1895,1818
1888,1955,1819
1872,1883,1827
1903,1831,1839
1918,1902,1791
1872,1945,1815
1860,1887,1802
1898,1847,1834
1920,1914,1866
1882,1931,1819
1862,1874,1792
1901,1841,1810
1917,1911,1824
1872,1942,1836
1856,1891,1823
1886,1847,1835
1885,1886,1856
1866,1946,1858
1859,1886,1853
1891,1821,1817
1901,1887,1840
1863,1936,1827
1858,1873,1825
1891,1831,1823
1904,1899,1826
1853,1947,1808
1837,1874,1698
1872,1822,1626
1890,1882,1728
1845,1930,1823
1846,1872,1738
1889,1840,1657
1892,1872,1748
1846,1904,1827
1831,1872,1728
1869,1820,1668
1875,1861,1745
1839,1905,1825
1833,1855,1743
1872,1803,1667
1872,1858,1744
1815,1905,1824
1813,1845,1750
1855,1806,1680
1857,1861,1749
1823,1911,1840
1808,1850,1761
1851,1808,1677
1856,1866,1774
1820,1894,1855
1803,1835,1754
1809,1787,1657
1807,1851,1744
1787,1906,1856
1761,1841,1766
1792,1787,1675
1871,1840,1754
1767,1875,1845
1845,1834,1759
1856,1791,1670
1815,1839,1756
1798,1874,1851
1766,1817,1751
1857,1775,1670
1775,1847,1775
1763,1899,1856
1778,1808,1773
1747,1733,1678
1802,1819,1769
1776,1873,1856
1760,1808,1776
1813,1762,1681
1810,1829,1767
1760,1856,1847
1754,1782,1766
1799,1767,1682
1813,1840,1787
1738,1856,1861
1694,1785,1769
1765,1751,1695
1801,1818,1787
1787,1873,1872
1747,1808,1788
1778,1744,1691
1749,1803,1775
1676,1837,1852
1730,1795,1776
1767,1754,1693
1772,1811,1782
1727,1873,1868
1712,1811,1785
1776,1748,1701
1764,1806,1791
1776,1847,1874
1716,1783,1776
1737,1755,1693
1772,1808,1795
1714,1841,1877
1701,1781,1779
1741,1734,1693
1731,1805,1777
1695,1854,1875
1682,1777,1783
1715,1719,1680
1712,1787,1760
1680,1838,1862
1663,1787,1797
1709,1739,1703
1741,1803,1771
1721,1842,1857
1680,1791,1781
1701,1753,1706
1743,1808,1787
1648,1840,1871
1652,1775,1786
1741,1730,1703
1721,1799,1786
1657,1847,1865
1680,1792,1782
1705,1767,1707
1712,1810,1792
1681,1847,1878
1709,1786,1793
1690,1750,1708
1703,1819,1792
1683,1869,1885
1678,1815,1806
1715,1744,1723
1712,1792,1803
1667,1862,1883
1659,1808,1779
1712,1761,1717
1728,1818,1817
1680,1881,1904
1663,1809,1808
1681,1745,1712
1712,1806,1794
1669,1845,1881
1706,1806,1817
1749,1767,1743
1712,1831,1810
1678,1872,1897
1669,1818,1819
1712,1754,1734
1725,1808,1810
1677,1851,1893
1682,1812,1811
1739,1780,1729
1703,1815,1804
1686,1866,1899
1683,1791,1814
1703,1742,1731
1716,1806,1808
1675,1871,1895
1664,1808,1813
1699,1751,1723
1713,1801,1800
1664,1854,1895
1651,1797,1806
1676,1747,1710
1689,1797,1789
1602,1844,1879
1611,1813,1795
1667,1737,1708
1664,1776,1797
1619,1833,1886
1659,1771,1793
1648,1725,1709
1671,1788,1785
1643,1831,1874
1635,1786,1804
1727,1741,1712
1741,1791,1790
1632,1840,1873
1639,1776,1773
1726,1721,1697
1683,1790,1799
1646,1814,1886
1637,1760,1805
1663,1729,1719
1680,1783,1797
1627,1833,1885
1622,1790,1801
1669,1744,1703
1674,1794,1793
1663,1846,1889
1616,1774,1808
1705,1743,1717
1695,1793,1790
1639,1840,1875
1633,1790,1796
1686,1744,1722
1690,1801,1812
1648,1827,1904
1642,1788,1813
1663,1745,1725
1697,1806,1808
1634,1841,1895
1635,1792,1813
1669,1757,1725
1648,1805,1809
1616,1840,1892
1600,1787,1809
1699,1734,1717
1682,1807,1814
1637,1862,1902
1632,1780,1815
1712,1749,1726
1750,1803,1821
1619,1840,1895
1637,1789,1808
1685,1733,1718
1691,1799,1803
1637,1866,1895
1644,1798,1811
1685,1758,1723
1705,1806,1819
1664,1862,1914
1654,1803,1837
1685,1765,1738
1696,1805,1818
1666,1856,1915
1664,1820,1831
1702,1770,1750
1709,1799,1824
1678,1855,1920
1663,1810,1834
1710,1764,1740
1714,1815,1829
1679,1859,1923
1680,1808,1845
1719,1776,1746
1721,1834,1829
1686,1872,1920
1681,1821,1845
1721,1776,1755
1733,1840,1834
1688,1887,1915
1683,1841,1840
1718,1739,1747
1728,1809,1826
1686,1875,1919
1676,1827,1851
1719,1779,1763
1728,1838,1835
1686,1880,1925
1682,1834,1854
1728,1792,1761
1737,1857,1845
1698,1893,1934
1690,1826,1843
1730,1759,1748
1729,1821,1835
1703,1874,1929
1701,1831,1851
1741,1780,1760
1747,1838,1827
1701,1878,1926
1696,1837,1854
1744,1789,1772
1758,1842,1853
1713,1887,1930
1707,1841,1844
1738,1798,1767
1751,1840,1840
1712,1871,1938
1703,1815,1847
1748,1782,1751
1749,1840,1825
1707,1883,1922
1697,1830,1840
1742,1780,1749
1744,1830,1834
1706,1877,1920
1692,1815,1840
1736,1759,1745
1744,1818,1834
1697,1872,1921
1693,1820,1825
1750,1782,1748
1765,1823,1849
1718,1856,1930
1697,1815,1838
1733,1771,1747
1744,1830,1823
1719,1887,1930
1713,1837,1851
1745,1776,1760
1747,1823,1830
1712,1882,1921
1722,1831,1851
1766,1776,1761
1776,1839,1845
1729,1871,1936
1723,1821,1850
1760,1783,1750
1762,1815,1835
1733,1891,1931
1729,1855,1856
1773,1814,1772
1773,1855,1840
1724,1873,1922
1727,1823,1854
1788,1795,1776
1793,1859,1849
1744,1910,1942
1734,1855,1853
1773,1791,1762
1788,1823,1837
1747,1872,1936
1738,1830,1854
1774,1797,1757
1782,1844,1831
1747,1899,1937
1738,1840,1842
1783,1799,1763
1802,1857,1855
1749,1893,1942
1741,1821,1861
1787,1806,1759
1791,1866,1839
1758,1897,1941
1741,1835,1851
1773,1781,1744
1776,1834,1840
1753,1886,1936
1740,1839,1853
1776,1794,1760
1791,1844,1851
1766,1899,1941
1747,1853,1857
1776,1793,1761
1796,1840,1840
1763,1887,1936
1747,1830,1865
1791,1775,1774
1807,1847,1847
1763,1903,1943
1760,1835,1865
1797,1782,1762
1802,1851,1840
1777,1898,1940
1771,1846,1871
1808,1792,1775
1809,1863,1849
1767,1904,1935
1748,1840,1838
1789,1813,1741
1808,1870,1843
1750,1857,1932
1744,1808,1847
1795,1767,1767
1799,1841,1834
1759,1905,1931
1751,1849,1847
1793,1784,1744
1805,1841,1825
1771,1904,1922
1755,1869,1846
1777,1776,1745
1791,1883,1833
1773,2015,1937
1749,1738,1846
1776,1697,1723
1776,1757,1798
1754,1851,1907
1771,1987,1894
1813,1916,1792
1770,1659,1776
1722,1792,1856
1725,1666,1776
1749,1734,1680
1781,1825,1789
1765,1905,1865
1744,1878,1791
1738,1747,1677
1773,1611,1732
1685,1747,1845
1579,1885,1762
1595,1664,1682
1648,1840,1766
1616,1573,1789
1587,1385,1671
1634,1389,1573
1653,1600,1674
1619,1781,1792
1609,1730,1705
1621,1535,1562
1664,1616,1651
1601,1570,1795
1558,1474,1671
1610,1519,1556
1633,1593,1651
1591,1591,1718
1569,1520,1664
1616,1505,1600
1634,1435,1647
1664,1526,1699
1629,1577,1677
1607,1520,1618
1601,1453,1613
1489,1423,1712
1578,1456,1701
1648,1535,1615
1585,1585,1676
1514,1619,1755
1503,1579,1663
1535,1306,1567
1583,1403,1679
1535,1559,1744
1522,1435,1647
1530,1258,1535
1563,1439,1674
1555,1671,1776
1534,1520,1644
0,1483,1601
0,1417,1707
0,1455,1778
0,1531,1970
0,1392,1975
0,1395,1747
0,1534,1758
0,1471,1812
0,1328,1842
1225,1441,1838
2095,1609,1827
2137,1299,1825
1925,1283,1828
1817,1417,1831
1818,1489,1830
1843,1567,1823
1845,1395,1829
1843,1365,1829
1840,1520,1830
1837,1482,1828
1836,1429,1829
1841,1503,1833
1840,1479,1826
1837,1445,1829
1831,1664,1829
1840,1600,1831
1835,1423,1827
1839,1374,1828
1840,1314,1835
1837,1621,1834
1831,1677,1829
1840,1697,1827
1833,1569,1827
1839,1377,1834
1837,1456,1826
1840,1520,1830
1843,1481,1845
1987,1511,1999
2154,1623,2106
2278,1616,2029
2559,1605,1949
2654,1641,1991
2672,1535,2032
2783,1438,1962
3022,1374,1904
3120,1600,1982
3088,1609,2642
2981,1473,2207
2975,1470,1714
2983,1575,1694
2951,1523,1796
2932,1325,1847
3008,1459,1840
3059,1627,1840
2970,1635,1831
2909,1595,1826
2978,1588,1825
2998,1634,1827
2921,1610,1829
2878,1347,1831
2916,1507,1829
2970,1566,1829
2929,1535,1827
2948,1535,1827
3047,1505,1831
3102,1670,1830
3069,1781,1827
3088,1563,1825
3136,1411,1829
3183,1535,1833
3109,1767,1829
3097,1675,1830
3216,1493,1825
3247,1765,1827
3185,1589,1826
3133,1675,1827
3257,1614,1829
3261,1645,1825
3200,1653,1829
3313,1713,1799
3313,1751,1693
3253,1531,1721
3219,1519,1873
3248,1711,1851
3309,1648,1708
3287,1621,1705
3235,1669,1856
3263,1595,1830
3328,1751,1705
3284,1745,1750
3242,1744,1885
3253,1596,1823
3319,1722,1740
3337,1751,1770
3225,1627,1840
3203,1601,1743
3291,1634,1713
3314,1840,1809
3253,1807,1873
3260,1623,1767
3301,1490,1627
3271,1571,1713
3235,1705,1909
3146,1706,1856
3175,1618,1707
3242,1683,1721
3231,1663,1882
3177,1708,1779
3184,1715,1705
3198,1727,1793
3112,1630,1858
3101,1573,1766
3153,1618,1664
3206,1653,1779
3149,1798,1899
3121,1815,1839
3105,1573,1657
3101,1565,1718
3099,1730,1873
3059,1674,1769
3062,1684,1680
3094,1685,1759
3036,1680,1872
2979,1712,1792
3043,1623,1666
3033,1670,1733
3014,1741,1873
2931,1658,1750
2943,1680,1643
2986,1739,1715
2925,1675,1852
2911,1634,1794
2950,1707,1707
2938,1764,1732
2893,1728,1837
2899,1649,1771
2899,1641,1646
2882,1680,1739
2835,1698,1849
2834,1750,1783
2882,1745,1680
2853,1730,1701
2786,1670,1819
2753,1535,1738
2821,1643,1651
2821,1725,1706
2737,1772,1812
2722,1751,1792
2770,1693,1681
2779,1736,1733
2707,1838,1818
2714,1662,1754
2711,1585,1642
2665,1627,1695
2635,1809,1856
2625,1815,1761
2677,1591,1648
2685,1616,1697
2605,1797,1808
2559,1715,1739
2649,1597,1635
2672,1600,1754
2559,1748,1823
2506,1757,1699
2581,1808,1669
2594,1712,1744
2543,1638,1785
2503,1684,1761
2523,1652,1641
2497,1564,1662
2468,1673,1792
2461,1769,1734
2533,1818,1645
2513,1679,1702
2412,1616,1776
2384,1625,1734
2471,1714,1682
2469,1653,1722
2381,1733,1807
2355,1686,1712
2419,1617,1603
2454,1774,1718
2350,1696,1814
2289,1586,1699
2377,1625,1604
2398,1710,1657
2331,1791,1803
2267,1722,1749
2304,1614,1647
2334,1570,1681
2259,1747,1777
2231,1715,1722
2318,1602,1650
2320,1679,1719
2214,1770,1776
2193,1648,1685
2293,1584,1600
2315,1810,1715
2171,1719,1800
2128,1721,1725
2192,1612,1637
2230,1647,1681
2181,1770,1786
2160,1598,1692
2160,1679,1631
2171,1745,1734
2143,1712,1802
2142,1664,1707
2128,1616,1597
2155,1787,1691
2097,1735,1789
2098,1729,1741
2171,1661,1648
2133,1739,1706
2062,1698,1819
2029,1578,1726
2101,1667,1611
2096,1761,1719
2023,1854,1821
2006,1680,1767
2066,1683,1671
2103,1674,1680
2027,1744,1803
1929,1619,1683
1987,1614,1615
2047,1681,1727
1986,1773,1813
1943,1802,1759
2000,1691,1619
2007,1637,1683
1991,1843,1837
1919,1707,1762
1907,1572,1631
1931,1636,1711
1911,1690,1811
1914,1724,1751
1973,1733,1667
1955,1680,1734
1879,1890,1839
1871,1745,1762
1911,1611,1639
1939,1628,1729
1895,1707,1823
1818,1671,1717
1887,1711,1652
1906,1757,1719
1818,1735,1841
1818,1662,1790
1862,1731,1649
1879,1728,1723
1822,1763,1806
1808,1738,1779
1832,1535,1654
1840,1687,1705
1845,1840,1847
1815,1683,1804
1833,1744,1663
1807,1723,1728
1776,1734,1815
1765,1707,1774
1803,1636,1680
1812,1653,1749
1775,1855,1863
1774,1680,1791
1792,1649,1670
1798,1840,1765
1739,1828,1881
1717,1629,1734
1777,1636,1679
1791,1651,1742
1709,1708,1811
1703,1763,1840
1759,1810,1669
1819,1776,1731
1733,1771,1809
1648,1637,1786
1694,1595,1764
1737,1713,1840
1728,1793,1861
1740,1758,1718
1717,1639,1681
1681,1775,1731
1663,1887,1865
1664,1682,1804
1728,1573,1663
1757,1715,1723
1679,1780,1818
1623,1731,1807
1713,1667,1733
1728,1762,1771
1631,1773,1819
1631,1835,1783
1689,1753,1745
1712,1684,1794
1646,1717,1814
1636,1722,1799
1701,1615,1715
1696,1776,1813
1639,1797,1899
1665,1762,1821
1678,1730,1710
1679,1840,1807
1633,1773,1892
1580,1647,1790
1626,1648,1716
1655,1744,1770
1621,1766,1863
1611,1831,1872
1643,1728,1713
1637,1779,1789
1616,1911,1920
1595,1708,1812
1654,1626,1727
1649,1703,1777
1599,1826,1899
1582,1725,1874
1620,1744,1702
1648,1808,1731
1609,1786,1833
1598,1734,1843
1621,1702,1656
1577,1734,1803
1535,1783,1905
1554,1782,1817
1584,1696,1716
1595,1775,1827
1567,1806,1959
1553,1769,1892
1593,1776,1675
1599,1719,1811
1522,1776,1871
1535,1838,1837
1613,1740,1775
1603,1693,1852
1535,1806,1885
1535,1823,1847
1594,1697,1702
1642,1841,1810
1571,1903,1920
1563,1778,1833
1525,1599,1723
1563,1793,1829
1525,1764,1913
1508,1762,1818
1535,1721,1712
1616,1840,1808
1535,1782,1918
1483,1729,1840
1553,1783,1735
1604,1904,1825
1555,1767,1868
1517,1755,1873
1581,1723,1777
1579,1793,1744
1499,1799,1869
1527,1757,1871
1600,1723,1789
1591,1889,1761
1527,1913,1893
1511,1840,1863
1529,1657,1806
1565,1779,1830
1513,1831,1923
1509,1821,1845
1574,1751,1706
1577,1735,1781
1535,1870,1950
1518,1719,1840
1587,1719,1717
1535,1793,1803
1535,1853,1879
1520,1797,1891
1535,1766,1775
1579,1938,1873
1515,1903,1919
1489,1791,1895
1535,1754,1746
1584,1841,1824
1521,1822,1907
1507,1747,1819
1568,1775,1822
1587,1911,1807
1532,1944,1918
1487,1761,1840
1535,1712,1735
1569,1802,1835
1523,1922,1886
1575,1856,1793
1600,1729,1739
1535,1732,1845
1489,1808,1917
1503,1877,1872
1585,1903,1771
1603,1755,1846
1525,1810,1905
1499,1876,1782
1568,1891,1730
1566,1850,1814
1535,1857,2000
1520,1772,1937
1555,1763,1751
1563,1759,1737
1530,1892,1961
1530,1877,1907
1581,1842,1790
1595,1786,1808
1528,1879,1913
1526,1821,1883
1562,1839,1795
1562,1792,1821
1519,1822,1920
1535,1872,1883
1583,1791,1746
1609,1818,1857
1570,1890,1926
1563,1837,1882
1567,1775,1838
1565,1865,1792
1527,1894,1968
1529,1863,1884
1584,1843,1786
1666,1807,1859
1584,1823,1943
1499,1824,1808
1527,1918,1723
1571,1863,1835
1535,1742,1941
1535,1757,1874
1607,1855,1803
1617,1939,1871
1593,2004,1968
1562,1830,1879
1595,1715,1769
1648,1802,1838
1569,1855,1984
1515,1869,1913
1600,1856,1807
1647,1983,1887
1593,1925,1955
1535,1817,1863
1589,1744,1770
1584,1797,1857
1565,1840,1980
1557,1929,1906
1614,1840,1792
1638,1870,1891
1602,1934,1987
1535,1898,1876
1582,1759,1773
1622,1779,1869
1615,1902,1979
1589,1919,1927
1613,1854,1827
1621,1895,1858
1611,1923,1967
1603,1842,1910
1595,1797,1775
1606,1829,1840
1582,1920,1999
1535,1819,1919
1630,1895,1799
1654,1909,1846
1559,1825,1952
1575,1838,1923
1637,1849,1819
1591,1845,1840
1626,1895,1979
1654,1984,1927
1634,1845,1817
1708,1886,1867
1637,1877,1941
1630,1835,1887
1581,1825,1837
1648,1883,1883
1638,1982,1968
1574,1808,1878
1669,1853,1839
1655,1987,1905
1595,1856,1967
1638,1887,1935
1680,1837,1790
1661,1954,1863
1634,2028,1983
1606,1757,1895
1613,1682,1787
1648,1818,1870
1600,1870,1991
1632,1904,1919
1643,1892,1776
1664,1872,1840
1665,1904,1963
1625,1922,1934
1657,2058,1856
1714,1861,1857
1658,1753,1936
1623,1856,1883
1634,1782,1800
1662,1919,1857
1655,2029,1998
1618,1851,1931
1649,1840,1808
1661,1984,1868
1625,1886,1959
1630,1778,1904
1707,1853,1838
1725,1953,1891
1642,1835,1937
1631,1777,1919
1690,1868,1815
1714,1899,1839
1669,1991,1978
1643,1954,1933
1712,1863,1822
1701,1773,1839
1614,1901,1969
1596,1899,1923
1642,1855,1823
1746,1958,1901
1697,1943,2001
1655,1899,1907
1676,1919,1822
1762,1890,1874
1664,1874,1945
1651,1840,1914
1733,1908,1846
1777,1904,1877
1701,1938,1975
1711,1946,1935
1769,1920,1813
1704,1872,1853
1694,1872,1968
1708,1904,1936
1750,1827,1847
1758,1903,1884
1744,1921,1955
1699,1889,1878
1721,1874,1791
1716,1888,1878
1709,1989,2027
1717,1823,1954
1742,1920,1829
1728,1965,1857
1702,1990,1966
1708,1834,1937
1751,1854,1831
1805,1913,1876
1664,1923,1940
1715,1861,1927
1756,1836,1847
1931,1993,1884
1742,1957,1969
1692,1872,1895
1749,1837,1781
1857,2005,1897
1780,1982,2037
1677,1826,1942
1776,1795,1817
1782,1862,1865
1734,2000,1979
1714,1953,1943
1753,1878,1822
1771,1878,1888
1803,2042,2010
1759,1910,1917
1722,1888,1774
1737,1856,1869
1730,1915,2000
1739,1936,1906
1799,1856,1819
1774,1894,1889
1792,1937,1992
1725,1998,1930
1783,1921,1830
1744,1817,1849
1709,1905,1977
1669,1899,1929
1841,1853,1789
1857,1936,1869
1694,1935,2015
1711,1890,1938
1771,1882,1813
1853,1991,1875
1815,1987,2000
1664,1856,1920
1793,1879,1819
1791,1877,1875
1727,1887,1968
1744,1870,1946
1841,1918,1838
1846,2047,1879
1679,1913,1966
1755,1883,1949
1823,1934,1827
1807,1936,1850
1787,1951,1984
1739,1823,1924
1800,1873,1810
1856,2000,1872
1799,2013,1989
1756,1901,1920
1765,1826,1792
1790,1879,1856
1776,2042,2013
1791,1993,1949
1731,1780,1771
1817,1841,1855
1842,2112,2007
1763,1941,1935
1782,1766,1783
1835,1846,1840
1776,2025,1989
1773,1973,1937
1915,1808,1769
1852,1819,1827
1819,2081,1984
1775,2038,1970
1824,1829,1810
1851,1803,1838
1760,1967,1997
1757,1965,1960
1803,1850,1808
1852,1984,1867
1821,1968,1999
1778,1851,1895
1834,1851,1801
1871,1906,1877
1823,1939,1985
1806,2011,1954
1883,1909,1828
1858,1963,1853
1799,1965,1942
1761,1948,1925
1830,1823,1856
1874,1826,1878
1856,1879,1999
1830,1984,1951
1861,1969,1835
1865,2031,1883
1827,2082,1989
1795,1904,1889
1840,1699,1776
1857,1807,1851
1863,1970,1997
1826,1975,1930
1857,1893,1806
1875,1920,1894
1840,1993,1987
1818,1965,1969
1857,1969,1845
1871,1897,1839
1819,1969,1953
1793,1879,1907
1856,1836,1808
1888,1883,1870
1836,1929,1950
1830,2005,1931
1895,2074,1857
1909,2035,1857
1825,1786,1914
1809,1782,1913
1881,1861,1834
1893,1903,1875
1857,1962,1947
1808,1922,1875
1852,1840,1811
1879,1997,1876
1847,2025,2000
1843,1919,1921
1889,1969,1822
1882,1791,1825
1822,1891,1936
1817,1872,1893
1887,1869,1809
1915,1933,1888
1850,1936,1974
1829,1948,1911
1887,1920,1807
1919,1952,1859
1853,2063,1973
1853,1942,1941
1871,1744,1783
1887,1815,1840
1841,1893,1943
1840,2000,1923
1872,1890,1791
1882,1859,1834
1872,1936,1984
1857,2029,1954
1871,1853,1799
1899,1903,1849
1853,1999,1972
1849,1833,1925
1883,1835,1770
1898,1914,1838
1840,1936,1961
1835,1882,1921
1924,1904,1808
1918,1950,1861
1856,1959,1941
1840,1893,1918
1870,1829,1798
1904,1883,1837
1872,2046,1975
1840,1917,1934
1862,1808,1814
1890,1841,1836
1886,1903,1951
1854,1949,1922
1903,1850,1835
1956,1936,1826
1843,2027,1945
1814,1930,1888
1889,1808,1794
1904,1797,1853
1862,1904,1965
1899,2025,1915
1891,1870,1822
1911,1840,1862
1862,1986,1961
1845,1996,1917
1883,1831,1763
1936,1926,1838
1882,2027,1984
1840,1788,1922
1897,1834,1814
1979,1872,1843
1886,1961,1939
1822,1887,1921
1939,1902,1833
1929,2099,1893
1833,1862,1904
1857,1781,1863
1887,1815,1794
1919,1984,1875
1879,1965,1983
1845,1901,1920
1900,1808,1771
1938,1855,1820
1904,2065,1989
1851,1897,1929
1889,1759,1791
1903,1841,1829
1877,1888,1962
1937,2035,1924
1914,1968,1786
1839,1778,1829
1823,1808,1958
1867,1917,1950
1940,2034,1831
1934,1826,1814
1866,1789,1895
1831,1845,1879
1910,2017,1834
1914,1840,1819
1858,1809,1931
1854,1850,1887
1925,1797,1798
1939,1970,1823
1873,1987,1921
1840,1873,1884
1917,1891,1821
1936,1901,1857
1834,1856,1926
1811,1826,1878
1920,1823,1791
1966,1978,1842
1883,2055,1965
1797,1818,1866
1855,1710,1761
1915,1840,1840
1907,1988,1974
1869,1958,1885
1902,1808,1741
1913,1848,1803
1885,1925,1920
1863,1917,1899
1872,1929,1791
1896,1872,1813
1871,1817,1931
1867,1904,1923
1906,1808,1775
1919,1861,1785
1857,1972,1927
1844,1875,1889
1914,1783,1762
1947,1829,1808
1883,1977,1946
1856,2003,1931
1904,1906,1814
1885,1751,1789
1853,1791,1872
1847,1799,1842
1904,1846,1781
1907,1858,1844
1856,1985,1936
1853,1920,1893
1890,1814,1767
1913,1875,1840
1863,1910,1900
1845,1841,1863
1899,1873,1771
1911,1757,1825
1857,1877,1957
1839,1904,1904
1885,1827,1773
1914,1841,1791
1867,1992,1965
1845,1878,1927
1867,1712,1774
1887,1852,1786
1859,1843,1922
1855,1899,1907
1898,1871,1779
1920,1846,1818
1873,1879,1907
1854,1899,1868
1881,1822,1776
1902,1887,1836
1851,1879,1936
1837,1849,1897
1901,1833,1788
1937,1872,1847
1891,1869,1918
1861,1840,1887
1873,1817,1790
1895,1825,1831
1852,1813,1939
1835,1846,1875
1890,1819,1786
1914,1838,1780
1855,1888,1936
1828,1855,1919
1874,1739,1776
1904,1791,1794
1873,1934,1920
1867,1839,1895
1881,1855,1769
1917,1798,1776
1879,1988,1920
1831,1842,1889
1885,1744,1754
1893,1839,1792
1866,1894,1933
1854,1815,1897
1877,1810,1775
1872,1771,1801
1831,1957,1921
1813,1872,1911
1871,1734,1758
1889,1715,1777
1856,1843,1893
1841,1847,1879
1885,1776,1786
1907,1870,1809
1871,1910,1887
1840,1789,1867
1878,1757,1782
1882,1742,1787
1847,1872,1919
1853,1927,1887
1871,1731,1744
1890,1815,1793
1887,1878,1927
1866,2018,1890
1835,1805,1725
1847,1696,1757
1840,1973,1907
1834,1867,1872
1873,1803,1764
1877,1844,1795
1837,1865,1906
1830,1811,1864
1887,1798,1762
1895,1773,1781
1834,1814,1901
1850,1932,1904
1889,1723,1756
1868,1734,1759
1830,1831,1902
1825,1847,1856
1910,1825,1743
1879,1926,1791
1819,1857,1926
1809,1799,1854
1870,1777,1745
1900,1744,1811
1840,1826,1904
1829,1885,1883
1874,1825,1747
1889,1710,1776
1837,1845,1893
1833,1885,1843
1878,1851,1776
1881,1844,1779
1817,1841,1904
1815,1907,1885
1851,1646,1747
1862,1804,1777
1833,1833,1895
1838,1765,1863
1891,1809,1776
1934,2013,1827
1846,1950,1909
1761,1686,1814
1823,1680,1712
1872,1749,1795
1841,1831,1906
1840,1846,1870
1883,1823,1761
1913,1840,1803
1840,1872,1890
1793,1788,1847
1900,1837,1767
1930,1936,1808
1819,1745,1875
1787,1698,1867
1839,1712,1767
1872,1787,1792
1869,1888,1923
1814,1936,1839
1849,1893,1776
1879,1780,1830
1826,1791,1867
1806,1789,1837
1856,1766,1739
1894,1702,1796
1835,1808,1906
1807,1779,1887
1862,1821,1774
1872,1762,1748
1857,1744,1860
1825,1852,1868
1854,1739,1783
1904,1899,1831
1837,1907,1913
1831,1669,1867
1826,1643,1712
1849,1815,1778
1822,1909,1924
1823,1826,1907
1878,1866,1774
1872,1821,1759
1826,1766,1892
1817,1750,1843
1856,1712,1744
1933,1887,1854
1855,1920,1936
1792,1759,1817
1808,1712,1712
1857,1785,1790
1840,1867,1931
1814,1859,1882
1851,1791,1774
1892,1775,1811
1849,2046,1915
