1871,1889,1874
1853,1961,1997
1838,1822,1843
1877,1744,1729
1882,1821,1835
1841,1910,1938
1861,1840,1872
1901,1830,1791
1887,1874,1855
1841,1911,1931
1845,1799,1845
1892,1769,1732
1891,1899,1826
1855,1843,1957
1837,1879,1855
1872,1818,1775
1877,1857,1841
1839,1873,1935
1876,1887,1846
1893,1792,1739
1855,1863,1881
1831,1937,1994
1856,1887,1840
1897,1776,1758
1873,1818,1852
1838,1957,1906
1843,1787,1831
1905,1758,1791
1885,1873,1910
1829,1855,1869
1839,1839,1808
1888,1838,1786
1888,1879,1885
1856,1889,2001
1872,1895,1819
1887,1839,1712
1872,1783,1840
1839,1869,1891
1861,1888,1844
1909,1859,1805
1904,1885,1904
1820,1899,1950
1801,1766,1801
1860,1723,1727
1872,1845,1818
1876,1946,1951
1847,1856,1788
1863,1779,1770
1870,1817,1894
1840,1907,1943
1860,1919,1861
1894,1841,1776
1871,1797,1839
1862,1913,1968
1872,1869,1888
1903,1772,1794
1890,1855,1859
1859,1939,1979
1851,1824,1822
1883,1769,1765
1899,1899,1847
1845,1857,1905
1857,1742,1839
1889,1776,1761
1889,1927,1831
1855,1923,1943
1859,1815,1858
1897,1835,1823
1898,1943,1840
1857,1897,1904
1873,1839,1859
1936,1774,1761
1891,1894,1845
1829,1887,1978
1819,1822,1830
1875,1799,1790
1883,1837,1871
1847,1922,1936
1842,1877,1815
1886,1783,1761
1889,1806,1874
1839,1882,1934
1859,1889,1808
1883,1791,1773
1886,1771,1904
1851,1901,1945
1867,1939,1866
1913,1904,1767
1877,1805,1843
1837,1769,1899
1850,1818,1861
1901,1861,1775
1887,1874,1868
1837,1904,1872
1878,1825,1835
1918,1856,1737
1904,1865,1872
1843,1871,1943
1840,1819,1853
1882,1785,1786
1891,1908,1872
1841,1878,1935
1845,1894,1843
1896,1874,1791
1876,1922,1866
1828,1777,1906
1840,1792,1831
1891,1881,1796
1889,1882,1869
1841,1840,1926
1841,1781,1808
1899,1813,1766
1901,1953,1867
1845,1922,1934
1831,1765,1840
1887,1811,1750
1883,1847,1787
1840,1845,1895
1850,1851,1863
1904,1853,1801
1887,1841,1898
1841,1925,1947
1834,1885,1833
1872,1792,1802
1877,1834,1809
1847,1875,1933
1851,1847,1861
1885,1900,1765
1868,1861,1905
1831,1799,1915
1855,1801,1829
1893,1843,1797
1883,1914,1855
1839,1882,1883
1846,1821,1872
1905,1855,1808
1904,1942,1871
1827,1861,1936
1834,1841,1858
1883,1876,1807
1878,1813,1853
1840,1829,1919
1850,1817,1829
1892,1840,1836
1887,1915,1866
1847,1877,1952
1858,1859,1753
1900,1811,1786
1884,1813,1868
1836,1854,1935
1855,1862,1847
1910,1898,1791
1906,1931,1840
1840,1887,1889
1826,1811,1807
1883,1831,1791
1893,1859,1872
1851,1977,1938
1872,1795,1806
1873,1760,1755
1869,1836,1861
1869,1894,1952
1867,1889,1859
1882,1874,1754
1865,1872,1836
1845,1826,1901
1863,1854,1835
1904,1933,1775
1885,1910,1857
1831,1786,1925
1831,1754,1790
1881,1838,1745
1872,1878,1845
1827,1869,1967
1854,1855,1839
1908,1783,1815
1883,1873,1920
1828,1869,1933
1827,1797,1808
1882,1791,1773
1895,1894,1867
1853,1888,1931
1859,1835,1857
1905,1808,1777
1883,1857,1871
1839,1968,1938
1878,2013,1855
1877,1782,1765
1857,1746,1830
1831,1920,1936
1866,1872,1859
1874,1719,1765
1867,1761,1855
1837,1857,1936
1851,1855,1840
1891,1831,1769
1873,1887,1858
1843,1910,1935
1859,1872,1856
1902,1885,1781
1891,1902,1871
1826,1871,1923
1840,1766,1820
1898,1817,1763
1911,1999,1873
1844,1837,1933
1852,1739,1808
1890,1808,1757
1866,1890,1877
1839,1878,1942
1872,1840,1854
1906,1857,1779
1877,1872,1856
1841,1877,1914
1872,1787,1812
1853,1809,1745
1913,1863,1859
1904,1940,1945
1857,1824,1833
1859,1786,1770
1916,1872,1850
1862,1957,1930
1865,1802,1818
1891,1744,1755
1910,1795,1897
1872,1975,1985
1865,1846,1820
1858,1787,1727
1876,1872,1862
1871,1946,1964
1857,1910,1872
1867,1794,1759
1891,1796,1843
1839,1847,1920
1852,1829,1820
1903,1806,1783
1887,1871,1872
1846,1859,1896
1846,1817,1867
1936,1914,1806
1895,1859,1856
1779,1771,1883
1836,1763,1821
1871,1789,1793
1904,1838,1907
1871,1910,1951
1826,1873,1827
1894,1838,1770
1882,1925,1889
1829,1918,1941
1851,1802,1791
1874,1719,1728
1873,1797,1855
1831,1893,1938
1823,1893,1856
1877,1805,1767
1881,1808,1850
1842,1856,1917
1851,1839,1831
1887,1818,1755
1859,1879,1843
1837,1911,1941
1839,1854,1849
1872,1808,1772
1857,1886,1875
1904,1983,1962
1879,1858,1840
1829,1745,1738
1854,1807,1840
1858,1904,1935
1847,1858,1839
1916,1777,1750
1889,1847,1829
1855,1866,1902
1839,1846,1863
1931,1839,1808
1954,1968,1910
1835,1998,1962
1787,1730,1802
1826,1675,1727
1846,1822,1846
1831,1902,1930
1867,1869,1839
1898,1811,1777
1915,1917,1879
1895,1947,1943
1862,1827,1850
1877,1730,1761
1875,1821,1824
1832,1878,1911
1840,1830,1840
1899,1872,1791
1892,1962,1858
1850,1821,1906
1836,1769,1835
1879,1792,1781
1881,1869,1847
1872,1902,1937
1888,1851,1862
1907,1859,1790
1856,1873,1861
1854,1890,1933
1840,1836,1857
1910,1823,1787
1894,1873,1870
1840,1904,1936
1923,1855,1852
1891,1834,1785
1891,1882,1870
1854,1905,1936
1858,1849,1852
1904,1822,1785
1885,1875,1872
1841,1901,1937
1847,1830,1840
1888,1807,1777
1883,1861,1873
1835,1879,1939
1839,1822,1849
1875,1791,1777
1876,1835,1868
1802,1856,1927
1799,1795,1824
1879,1762,1767
1889,1799,1858
1757,1808,1921
1808,1737,1807
1775,1699,1744
1840,1750,1862
1818,1776,1930
1812,1712,1837
1840,1669,1747
1851,1715,1824
1843,1729,1907
1825,1663,1815
1843,1618,1744
1843,1664,1831
1777,1682,1894
1893,1623,1797
1868,1595,1724
1854,1638,1807
1823,1657,1881
1723,1575,1781
1894,1534,1711
1857,1597,1808
1808,1620,1872
1805,1569,1778
1854,1535,1699
1911,1586,1791
1863,1603,1859
1821,1567,1787
1865,1531,1727
1849,1578,1808
1814,1610,1859
1811,1535,1785
1854,1518,1728
1836,1586,1814
1829,1610,1872
1824,1564,1777
1862,1535,1713
1840,1602,1802
1791,1611,1863
1776,1535,1767
1856,1516,1712
1889,1600,1815
1779,1634,1882
1765,1575,1780
1850,1535,1708
1840,1600,1759
1777,1630,1841
1842,1584,1771
1757,1563,1697
1847,1626,1791
1838,1650,1875
1801,1585,1779
1847,1557,1711
1842,1627,1809
1813,1661,1887
1814,1603,1787
1856,1577,1712
1835,1638,1808
1798,1677,1888
1809,1616,1792
1846,1584,1717
1844,1654,1814
1793,1680,1879
1787,1616,1776
1835,1599,1717
1841,1665,1834
1809,1693,1903
1808,1638,1790
1842,1603,1719
1845,1674,1815
1809,1709,1894
1806,1648,1797
1852,1627,1723
1854,1697,1814
1809,1718,1881
1817,1674,1805
1860,1645,1737
1857,1701,1823
1818,1742,1904
1823,1681,1808
1865,1672,1731
1874,1744,1843
1845,1775,1919
1849,1718,1817
1879,1701,1750
1883,1775,1849
1837,1814,1931
1840,1747,1840
1885,1723,1766
1888,1785,1861
1856,1824,1943
1858,1757,1842
1889,1742,1770
1904,1824,1874
1891,1874,1973
1919,1840,1913
1979,1825,1843
1975,1901,1949
1925,1926,2011
1917,1850,1898
1951,1821,1819
1955,1883,1922
1901,1909,2002
1900,1847,1907
1943,1823,1840
1950,1891,1961
1904,1930,2030
1904,1872,1919
1954,1840,1841
1957,1903,1930
1911,1939,1986
1918,1885,1889
1955,1855,1809
1957,1922,1909
1911,1948,1970
1918,1889,1872
1957,1870,1811
1955,1941,1915
1906,1970,1984
1911,1906,1881
1963,1882,1823
1971,1958,1935
1930,1981,2000
1933,1918,1901
1970,1901,1838
1968,1967,1940
1920,1984,2000
1926,1925,1918
1968,1910,1850
1968,1970,1942
1933,2000,2001
1931,1948,1909
1970,1920,1855
1955,1985,1947
1927,2030,2017
1937,1965,1925
1980,1938,1847
1975,2007,1954
1946,2044,2023
1955,1991,1935
2000,1959,1871
2005,2025,1963
1956,2053,2037
1968,1988,1936
2007,1973,1867
1999,2039,1967
1955,2071,2033
1963,2005,1935
2006,1985,1869
2000,2055,1962
1955,2089,2032
1971,2020,1941
2011,1995,1871
2011,2062,1970
1975,2085,2035
1981,2019,1944
2030,2002,1869
2018,2081,1968
1975,2111,2039
1995,2046,1937
2053,2023,1872
2034,2089,1967
2000,2118,2039
2011,2058,1946
2066,2032,1875
2068,2097,1975
2032,2134,2046
2047,2075,1947
2095,2035,1879
2081,2109,1969
2038,2141,2039
2064,2073,1940
2103,2045,1878
2087,2105,1969
2036,2137,2030
2062,2083,1936
2113,2047,1870
2100,2112,1968
2054,2137,2043
2071,2082,1944
2113,2058,1879
2106,2121,1969
2068,2145,2036
2077,2084,1930
2116,2047,1866
2107,2112,1975
2064,2134,2034
2066,2072,1927
2117,2054,1870
2114,2112,1968
2064,2128,2026
2074,2077,1930
2122,2060,1877
2112,2115,1973
2075,2139,2043
2064,2070,1935
2111,2043,1867
2101,2110,1961
2066,2139,2029
2071,2080,1936
2121,2038,1867
2110,2103,1967
2065,2131,2029
2064,2064,1936
2110,2027,1870
2110,2133,1958
2078,2128,2035
2085,2103,1936
2118,2063,1858
2106,2058,1952
2064,2174,2021
2079,2047,1925
2114,2011,1855
2106,2039,1959
2064,2177,2032
2080,2068,1923
2121,2064,1865
2112,2099,1963
2075,2137,2029
2082,2013,1920
2128,2025,1856
2118,2085,1946
2068,2146,2018
2077,2009,1920
2119,2015,1858
2122,2112,1951
2076,2103,2023
2077,2031,1933
2112,2030,1854
2109,2102,1945
2076,2128,2015
2079,2030,1919
2112,1991,1839
2103,2128,1947
2067,2089,2026
2078,1972,1921
2099,1982,1834
2096,2053,1930
2063,2032,2002
2064,2025,1920
2103,1987,1861
2096,2047,1941
2055,2071,2005
2065,2006,1911
2106,1991,1856
2096,2058,1954
2043,2083,2009
2060,2019,1904
2097,1971,1842
2090,2032,1947
2059,2064,2010
2043,1995,1901
2085,1977,1833
2091,2032,1931
2038,2053,2000
2035,1996,1911
2081,1968,1849
2073,1997,1936
2033,2093,2004
2045,1993,1905
2083,2025,1833
2077,1999,1929
2029,2069,2005
2030,1973,1911
2082,1904,1841
2079,2013,1935
2026,2091,2002
2033,2027,1907
2073,1899,1834
2059,2003,1936
2009,2031,1999
2021,1973,1909
2071,1938,1841
2064,1984,1933
2018,2061,2002
2026,1965,1904
2066,1889,1840
2061,2032,1923
2009,2027,1996
2005,1933,1891
2059,1936,1823
2047,1984,1920
2013,2017,1987
2017,1961,1894
2044,1932,1821
2035,1994,1920
2004,2015,1994
2007,1950,1890
2047,1917,1815
2032,1984,1915
1990,2016,1985
1999,2033,1873
2038,1929,1809
2030,1987,1919
1995,2003,1977
2000,1935,1876
2044,1903,1814
2032,1969,1910
1986,1958,1984
2000,1938,1894
2032,1878,1815
2019,1978,1909
1987,2059,1986
1985,1921,1876
2027,1898,1808
2015,1965,1913
1977,1984,1990
1985,1917,1897
2038,1889,1817
2030,1951,1914
1984,1979,1983
1985,1889,1887
2031,1866,1826
2021,1961,1923
1975,1973,1985
1975,1968,1883
2017,1900,1821
2015,2009,1904
1972,1973,1973
1979,1907,1886
2010,1882,1827
1999,1911,1920
1953,1966,1977
1960,1926,1872
2008,1866,1813
2002,1995,1920
1962,1970,1983
1966,1871,1880
2004,1845,1809
1999,1958,1910
1959,1989,1978
1962,1894,1881
2000,1877,1806
1995,1930,1911
1956,1938,1989
1959,1910,1887
2000,1863,1808
1987,1926,1904
1946,1943,1977
1958,1889,1886
2001,1859,1823
1991,1913,1906
1946,1936,1975
1946,1878,1873
1999,1847,1807
1986,1910,1894
1948,1943,1970
1942,1886,1872
1991,1856,1809
1982,1920,1909
1945,1942,1968
1945,1922,1859
1989,1840,1801
1979,1904,1904
1938,1934,1970
1954,1866,1870
1984,1840,1808
1967,1899,1886
1929,1936,1952
1949,1868,1872
1984,1853,1813
1968,1807,1907
1935,1924,1968
1934,1842,1867
1973,1854,1795
1967,1933,1881
1922,1923,1955
1932,1851,1863
1968,1839,1802
1959,1897,1900
1915,1926,1953
1919,1861,1841
1966,1842,1799
1966,1898,1904
1919,1916,1963
1928,1851,1857
1966,1826,1795
1955,1895,1903
1920,1925,1961
1921,1858,1855
1963,1829,1783
1950,1889,1878
1913,1914,1949
1921,1855,1850
1966,1831,1791
1963,1881,1886
1917,1911,1958
1923,1852,1847
1959,1824,1787
1956,1888,1893
1906,1911,1953
1919,1840,1854
1955,1823,1795
1954,1885,1897
1906,1907,1966
1911,1853,1862
1956,1820,1783
1945,1886,1872
1902,1910,1957
1911,1842,1859
1956,1810,1797
1952,1881,1887
1908,1904,1950
1915,1846,1840
1945,1821,1791
1938,1877,1893
1905,1905,1954
1904,1850,1847
1954,1825,1788
1937,1875,1886
1890,1907,1940
1897,1840,1837
1930,1808,1765
1923,1865,1861
1892,1893,1936
1894,1831,1845
1936,1808,1776
1939,1876,1882
1885,1898,1937
1885,1830,1829
1921,1807,1770
1908,1872,1869
1883,1901,1941
1876,1840,1842
1925,1804,1772
1910,1867,1872
1867,1887,1935
1875,1813,1840
1922,1802,1787
1917,1869,1891
1872,1885,1945
1878,1815,1835
1920,1789,1773
1910,1858,1871
1870,1891,1934
1873,1825,1826
1904,1795,1759
1895,1863,1867
1857,1883,1949
1872,1809,1846
1908,1787,1776
1904,1853,1856
1856,1886,1937
1871,1819,1846
1903,1789,1779
1904,1853,1873
1853,1871,1930
1855,1810,1834
1898,1789,1772
1886,1845,1871
1842,1865,1933
1859,1811,1826
1898,1785,1761
1888,1846,1873
1853,1870,1935
1869,1809,1836
1900,1791,1770
1891,1853,1872
1850,1873,1934
1856,1808,1835
1895,1781,1772
1882,1843,1860
1840,1872,1930
1851,1806,1826
1889,1778,1757
1883,1847,1859
1845,1872,1928
1856,1808,1830
1894,1779,1759
1883,1846,1862
1847,1873,1925
1842,1814,1818
1888,1786,1765
1887,1858,1872
1843,1883,1936
1845,1814,1831
1893,1791,1767
1886,1860,1862
1845,1890,1927
1846,1816,1829
1895,1785,1776
1888,1863,1872
1854,1887,1935
1859,1825,1835
1897,1805,1770
1883,1866,1866
1840,1892,1936
1861,1819,1832
1898,1806,1782
1887,1864,1877
1840,1885,1938
1853,1820,1828
1899,1805,1770
1894,1870,1873
1855,1904,1941
1855,1829,1835
1886,1798,1767
1874,1855,1862
1840,1881,1923
1843,1824,1829
1872,1797,1765
1870,1859,1871
1825,1882,1925
1839,1826,1822
1871,1795,1764
1871,1859,1869
1835,1889,1927
1843,1829,1829
1874,1802,1765
1877,1858,1859
1828,1877,1921
1840,1810,1823
1878,1794,1763
1875,1866,1872
1837,1892,1934
1841,1821,1825
1885,1802,1770
1871,1865,1846
1831,1888,1923
1842,1822,1837
1878,1792,1741
1872,1851,1872
1850,1883,1966
1861,1824,1830
1903,1804,1742
1904,1863,1867
1861,1882,1936
1868,1826,1827
1920,1804,1717
1912,1856,1855
1878,1875,1969
1884,1810,1840
1930,1792,1808
1919,1858,1856
1871,1873,1905
1874,1815,1776
1914,1799,1739
1911,1865,1840
1874,1889,1918
1893,1825,1872
1930,1794,1757
1910,1867,1845
1867,1884,1915
1876,1818,1825
1929,1796,1779
1917,1850,1856
1869,1884,1953
1885,1826,1820
1920,1807,1763
1906,1867,1858
1878,1885,1923
1889,1819,1822
1919,1791,1752
1902,1855,1847
1856,1877,1910
1872,1808,1823
1925,1788,1762
1905,1853,1854
1863,1875,1918
1872,1807,1808
1904,1776,1765
1894,1847,1859
1858,1877,1909
1869,1808,1806
1891,1778,1736
1886,1840,1837
1856,1866,1904
1856,1799,1791
1899,1776,1737
1879,1840,1805
1842,1863,1915
1853,1799,1819
1893,1785,1744
1877,1847,1816
1840,1857,1887
1845,1795,1782
1875,1775,1738
1870,1840,1793
1839,1861,1920
1840,1802,1769
1872,1783,1744
1866,1853,1829
1823,1867,1947
1838,1802,1801
1873,1783,1744
1867,1849,1829
1823,1872,1853
1827,1807,1786
1871,1791,1714
1858,1847,1835
1829,1871,1895
1843,1807,1811
1881,1779,1742
1865,1854,1827
1813,1877,1903
1830,1811,1803
1882,1787,1756
1872,1853,1861
1827,1871,1915
1840,1808,1806
1872,1779,1744
1872,1841,1840
1826,1878,1904
1825,1806,1808
1866,1777,1776
1856,1845,1846
1815,1870,1904
1825,1808,1773
1858,1779,1735
1853,1850,1838
1821,1867,1888
1823,1806,1829
1861,1784,1735
1856,1854,1894
1818,1876,1912
1826,1810,1804
1866,1775,1745
1855,1847,1841
1811,1873,1894
1812,1805,1794
1854,1789,1719
1840,1843,1838
1806,1883,1920
1807,1808,1797
1847,1776,1719
1837,1840,1836
1805,1890,1905
1822,1839,1829
1857,1804,1670
1840,1850,1754
1806,1940,1889
1827,1831,1805
1874,1880,1789
1854,1863,1860
1787,1778,1882
1808,1714,1776
1871,1750,1710
1849,1725,1831
1796,1735,1808
1803,1713,1779
1874,1713,1825
1855,1871,1802
1806,1822,1875
1822,1725,1799
1872,1769,1755
1865,1872,1872
1809,1791,1898
1810,1708,1775
1859,1726,1730
1866,1846,1904
1825,1857,1915
1808,1625,1773
1831,1679,1660
1860,1874,1871
1842,1968,1904
1791,1593,1675
1744,1412,1616
1723,1615,1764
1715,1595,1840
1739,1661,1712
1865,1689,1506
1712,1585,1660
1530,1449,1779
1531,1415,1633
1634,1535,1590
1627,1629,1663
1558,1535,1642
1571,1446,1507
1568,1341,1447
1519,1302,1581
1476,1377,1595
1553,1622,1569
1595,1465,1417
1523,1277,1557
1472,1305,1483
1479,1217,1530
1554,1271,1379
1565,1505,1611
1567,1708,1657
1507,1344,1486
1645,1217,1377
1653,1506,1530
1846,1488,1642
1575,1501,1629
1510,1616,1502
1535,1395,1659
1504,1239,1771
1519,1471,1638
1669,1648,1535
1633,1577,1594
1463,1535,1718
1427,1390,1668
1513,1447,1661
1598,1587,1647
1520,1637,1751
1396,1601,1697
1404,1469,1662
1527,1729,1725
1430,1675,1767
1283,1507,1649
1364,1407,1621
1443,1446,1806
1331,1677,1751
1328,1563,1601
1363,1568,1666
1370,1730,1808
1375,1723,1795
1385,1558,1680
1383,1574,1706
1399,1884,1845
1383,1765,1851
1460,1535,1727
1515,1664,1653
1335,1665,1786
1371,1735,1892
1437,1648,1764
1457,1674,1695
1501,1741,1803
1529,1786,1893
1395,1759,1806
1412,1690,1706
1399,1707,1765
1393,1789,1841
1505,1873,1792
1521,1825,1771
1505,1774,1851
1473,1826,1861
1531,1753,1771
1535,1807,1681
1494,1772,1795
1494,1814,1904
1489,1796,1813
1567,1792,1728
1589,1857,1887
1513,1902,1927
1489,1799,1806
1599,1786,1824
1574,1959,1938
1557,1919,1939
1601,1849,1769
1711,1815,1698
1605,1855,1837
1531,1914,1957
1535,1895,1854
1603,1915,1762
1638,1936,1895
1571,1842,1923
1600,1866,1776
1612,1876,1735
1603,1921,1851
1600,1936,1941
1640,1933,1866
1648,1837,1725
1622,1824,1847
1623,1893,1952
1634,1824,1843
1694,1814,1750
1633,1833,1831
1589,1856,1925
1641,1819,1830
1735,1780,1769
1662,1776,1840
1616,1966,1954
1609,1759,1839
1706,1535,1760
1761,1712,1872
1664,1765,1921
1680,1603,1840
1678,1579,1781
1712,1675,1840
1681,1776,1920
1738,1635,1752
1771,1526,1747
1694,1648,1947
1625,1575,1923
1639,1502,1782
1701,1520,1739
1810,1664,1846
1713,1768,1966
1706,1590,1888
1658,1488,1763
1619,1535,1839
1724,1573,1930
1713,1562,1817
1670,1457,1745
1702,1631,1871
1715,1589,1942
1675,1679,1853
1728,1526,1733
1728,1535,1823
1785,1655,1968
1751,1681,1875
1750,1485,1777
1711,1490,1815
1669,1535,1884
1706,1533,1786
1812,1572,1712
1746,1694,1889
1676,1619,1994
1715,1577,1834
1741,1599,1735
1714,1664,1843
1651,1726,1919
1771,1625,1839
1776,1518,1762
1765,1607,1873
1795,1655,1937
1766,1596,1814
1779,1667,1747
1792,1758,1867
1765,1824,1934
1734,1635,1795
1763,1557,1764
1809,1643,1882
1740,1701,1936
1739,1613,1808
1777,1598,1767
1795,1754,1851
1744,1853,1930
1767,1735,1839
1764,1594,1712
1757,1631,1858
1750,1758,1959
1891,1713,1856
1787,1680,1758
1723,1680,1823
1785,1875,1923
1786,1801,1831
1770,1674,1782
1826,1735,1836
1743,1791,1889
1776,1744,1831
1812,1682,1782
1847,1812,1849
1806,1852,1883
1778,1778,1787
1814,1703,1733
1799,1779,1835
1745,1799,1919
1866,1803,1782
1802,1805,1733
1758,1873,1863
1743,1869,1943
1793,1776,1829
1834,1743,1776
1805,1902,1887
1725,2005,1926
1777,1858,1789
1819,1791,1741
1798,1831,1840
1754,1904,1904
1776,1815,1802
1810,1825,1744
1812,1924,1851
1790,1930,1918
1844,1854,1812
1791,1874,1741
1786,1971,1879
1775,2029,1951
1811,2031,1814
1851,1849,1724
1850,1875,1835
1735,1861,1899
1817,1847,1779
1898,1937,1756
1830,1982,1863
1774,1980,1914
1773,2046,1809
1846,2123,1761
1767,2191,1863
1776,2098,1890
1712,2026,1789
1833,2038,1759
1840,2160,1834
1767,2192,1875
1789,2165,1791
1861,2190,1743
1852,2435,1877
1767,2371,1909
1830,2139,1771
1835,2133,1712
1794,2248,1886
1799,2270,1919
1777,2262,1776
1808,2190,1754
1820,2287,1829
1794,2349,1858
1823,2448,1808
1827,2253,1749
1798,2233,1817
1776,2352,1918
1808,2263,1808
1860,2189,1794
1840,2355,1890
1776,2421,1898
1792,2397,1751
1863,2203,1706
1839,2302,1852
1783,2378,1915
1802,2402,1776
1872,2341,1730
1831,2319,1872
1776,2320,1887
1814,2289,1779
1843,2266,1725
1847,2340,1843
1812,2423,1925
1840,2365,1812
1847,2314,1743
1810,2343,1838
1792,2320,1887
1827,2258,1815
1875,2292,1741
1820,2304,1842
1782,2273,1940
1818,2303,1808
1888,2395,1747
1834,2256,1824
1789,2265,1872
1792,2224,1777
1838,2153,1711
1841,2133,1850
1829,2395,1936
1897,2340,1817
1883,2181,1686
1802,2244,1803
1779,2321,1961
1833,2240,1831
1898,2203,1721
1809,2171,1808
1767,2167,1904
1843,2144,1791
1879,2205,1711
1831,2225,1835
1835,2224,1920
1840,2275,1827
1838,2112,1729
1809,2156,1866
1808,2263,1882
1889,2155,1792
1875,2041,1728
1809,2118,1818
1795,2195,1903
1839,2148,1822
1865,2137,1712
1833,2138,1808
1840,2226,1925
1851,2145,1831
1878,2020,1755
1823,2019,1843
1808,2191,1887
1835,2144,1759
1904,2112,1776
1867,2135,1837
1807,1910,1842
1802,1854,1797
1872,1983,1769
1841,2140,1882
1806,2112,1902
1833,2042,1776
1888,1906,1743
1877,1981,1859
1802,2101,1887
1813,1983,1826
1887,1995,1775
1871,2021,1856
1789,2015,1907
1837,1956,1797
1841,1885,1725
1828,1984,1865
1829,2081,1917
1870,2000,1827
1847,1946,1741
1819,1902,1822
1817,1905,1876
1855,1997,1787
1879,1941,1763
1845,1866,1866
1873,2079,1959
1872,1949,1805
1803,1733,1685
1793,1822,1825
1810,1890,1905
1851,1908,1815
1872,1920,1776
1873,2055,1909
1808,1918,1875
1808,1730,1738
1856,1754,1701
1841,1863,1849
1822,1953,1931
1850,1841,1806
1861,1806,1757
1857,1906,1882
1812,1936,1920
1872,1878,1812
1913,1951,1770
1840,1842,1811
1782,1815,1895
1820,1758,1799
1902,1730,1706
1906,1835,1847
1821,1947,1905
1795,1814,1798
1872,1770,1774
1862,1922,1851
1851,1810,1891
1846,1741,1787
1846,1719,1738
1832,1837,1813
1809,1886,1872
1841,1835,1796
1887,1761,1765
1901,1921,1868
1827,1931,1891
1838,1728,1827
1897,1719,1776
1861,1707,1844
1786,1735,1867
1842,1754,1759
1931,1819,1768
1867,1859,1860
1803,1835,1911
1817,1808,1785
1878,1701,1740
1879,1739,1853
1819,1911,1952
1845,1865,1813
1890,1782,1771
1828,1808,1823
1778,1710,1856
1870,1762,1813
1936,1940,1747
1869,1749,1835
1809,1807,1942
1832,1723,1804
1858,1661,1715
1858,1806,1838
1853,1855,1917
1859,1763,1805
1902,1730,1779
1855,1779,1850
1834,1740,1891
1842,1777,1787
1909,1762,1798
1866,1824,1894
1805,1725,1857
1824,1697,1734
1883,1744,1754
1867,1821,1879
1819,1833,1934
1865,1840,1827
1882,1731,1737
1854,1760,1857
1810,1777,1903
1855,1739,1797
1904,1685,1761
1873,1776,1851
1842,1789,1904
1857,1702,1803
1895,1854,1749
1822,1776,1839
1807,1690,1872
1858,1721,1826
1901,1694,1813
1888,1798,1859
1821,1773,1905
1831,1709,1802
1885,1781,1762
1863,1794,1830
1868,1738,1882
1873,1791,1810
1892,1660,1767
1862,1766,1887
1861,1815,1909
1847,1782,1783
1886,1822,1759
1861,1763,1872
1885,1931,1948
1856,1717,1771
1906,1597,1740
1841,1754,1854
1780,1675,1904
1830,1776,1817
1900,1925,1798
1895,1808,1859
1838,1744,1920
1840,1619,1778
1872,1699,1742
1882,1838,1877
1862,1820,1921
1841,1719,1765
1867,1713,1712
1871,1828,1887
1871,1856,1973
1885,1851,1836
1863,1738,1732
1843,1739,1854
1843,1854,1906
1839,1627,1814
1878,1651,1765
1867,1667,1904
1856,1793,1975
1861,1837,1777
1884,1741,1716
1841,1746,1844
1820,1758,1900
1905,1769,1840
1921,1816,1834
1848,1815,1862
1806,1709,1889
1882,1703,1840
1915,1761,1829
1862,1761,1867
1818,1837,1885
1851,1811,1790
1922,1749,1805
1890,1856,1888
1847,1910,1958
1872,1819,1808
1907,1808,1758
1870,1810,1878
1881,1760,1939
1891,1650,1798
1881,1679,1742
1856,1823,1878
1860,1889,1927
1919,1794,1821
1935,1696,1771
1871,1781,1905
1827,1861,1925
1839,1767,1786
1894,1745,1782
1882,1788,1900
1871,1840,1929
1902,1754,1840
1904,1773,1761
1871,1858,1862
1853,1853,1953
1890,1713,1806
1923,1573,1776
1887,1744,1901
1808,1819,1904
1843,1819,1792
1904,1787,1766
1894,1847,1900
1855,1838,1959
1899,1776,1793
1879,1744,1757
1855,1775,1872
1836,1802,1934
1873,1825,1857
1904,1808,1779
1872,1710,1856
1855,1739,1910
1855,1839,1794
1892,1765,1759
1885,1939,1870
1851,1884,1968
1846,1726,1836
1904,1711,1766
1883,1686,1863
1872,1899,1938
1861,1805,1830
1937,1777,1779
1872,1749,1887
1831,1827,1955
1858,1774,1840
1936,1760,1786
1900,1795,1857
1821,1837,1891
1834,1763,1776
1918,1758,1776
1875,1831,1883
1831,1807,1923
1882,1792,1823
1929,1741,1792
1869,1815,1905
1835,1870,1956
1872,1855,1840
1919,1744,1780
1902,1763,1881
1858,1795,1946
1854,1854,1808
1890,1708,1722
1871,1713,1842
1826,1791,1909
1872,1840,1818
1905,1789,1776
1897,1884,1911
1835,1828,1966
1837,1699,1792
1892,1687,1735
1892,1855,1887
1857,1939,1940
1875,1761,1831
1891,1663,1750
1873,1879,1854
1843,1893,1934
1903,1863,1815
1875,1654,1708
1827,1690,1831
1839,1766,1936
1868,1777,1871
1883,1819,1792
1888,1890,1871
1856,1891,1895
1843,1771,1811
1872,1776,1776
1862,1799,1889
1851,1794,1934
1871,1755,1825
1897,1831,1811
1866,1801,1901
1846,1831,1904
1872,1798,1756
1905,1837,1812
1902,1806,1921
1871,1953,1943
1853,1733,1795
1846,1648,1723
1849,1786,1887
1863,1862,1936
1937,1904,1845
1949,1700,1794
1850,1835,1911
1812,1837,1932
1835,1776,1751
1904,1807,1732
1918,1939,1905
1856,1915,1952
1850,1695,1808
1882,1677,1744
1875,1840,1882
1887,1909,1943
1877,1813,1837
1911,1776,1788
1915,1857,1878
1815,1838,1902
1825,1776,1798
1877,1770,1791
1882,1808,1910
1849,1902,1926
1863,1781,1803
1915,1813,1808
1863,1827,1869
1841,1774,1882
1869,1740,1808
1917,1856,1771
1895,1841,1885
1829,1855,1946
1876,1853,1853
1911,1749,1791
1872,1792,1853
1856,1844,1898
1851,1776,1795
1896,1777,1774
1905,1866,1895
1846,1968,1926
1878,1834,1834
1926,1771,1774
1869,1845,1894
1825,1857,1897
1865,1857,1830
1916,1856,1781
1901,1935,1898
1849,1798,1935
1858,1776,1802
1923,1841,1790
1861,1851,1885
1836,1879,1917
1874,1940,1835
1932,1766,1797
1885,1826,1877
1859,1847,1922
1906,1861,1804
1886,1827,1761
1871,1902,1882
