1872,1600,1741
1878,1717,1886
1904,1744,1963
1856,1638,1775
1818,1622,1698
1809,1730,1863
1793,1779,1879
1829,1680,1755
1885,1729,1761
1842,1803,1883
1808,1821,1895
1853,1775,1772
1896,1872,1772
1842,1893,1870
1808,1883,1878
1843,1845,1771
1878,1879,1757
1851,1982,1875
1843,1999,1911
1910,1983,1808
1945,2019,1810
1839,2033,1882
1757,2015,1855
1826,1935,1755
1959,2111,1834
1910,2163,1936
1788,2041,1867
1824,2025,1737
1890,2062,1759
1885,2141,1901
1810,2098,1882
1835,2072,1761
1941,2158,1809
1934,2173,1951
1789,2135,1872
1792,2029,1721
1856,2071,1724
1843,2173,1889
1823,2157,1924
1859,2108,1802
1900,2129,1778
1861,2209,1895
1818,2197,1887
1845,2160,1776
1898,2151,1781
1874,2256,1904
1871,2242,1935
1899,2178,1807
1853,2122,1726
1809,2192,1838
1805,2202,1869
1862,2158,1775
1897,2174,1771
1872,2247,1893
1845,2249,1903
1870,2198,1769
1898,2180,1755
1872,2266,1862
1868,2274,1891
1905,2191,1773
1951,2191,1751
1961,2291,1862
2021,2262,1896
1887,2256,1744
2086,2256,1738
1975,2259,1896
1759,2154,1913
1931,2233,1831
2071,2239,1789
1868,2096,1818
1829,2416,1853
1906,2192,1770
1949,1967,1729
1911,1865,1825
1963,2416,1936
1984,1931,1833
1974,2000,1687
1920,2135,1774
1907,1904,1803
1979,2033,1744
2083,2245,1808
2021,2098,1840
1879,1926,1665
1903,1680,1587
1997,1933,1687
2006,1936,1806
1954,1856,1796
1958,1793,1659
1995,1872,1690
1993,1849,1811
1974,1895,1781
1990,1799,1661
2020,1809,1653
1988,1890,1779
1957,1887,1792
1987,1799,1670
2023,1803,1664
1989,1808,1791
1959,1817,1797
1980,1715,1680
2015,1766,1675
2000,1795,1760
1949,1776,1746
1921,1731,1688
1935,1730,1691
1909,1783,1808
1872,1760,1809
1888,1665,1686
1915,1712,1675
1887,1761,1803
1845,1737,1806
1872,1670,1690
1904,1687,1700
1849,1721,1822
1811,1699,1824
1839,1651,1691
1882,1623,1693
1841,1694,1795
1815,1691,1840
1839,1635,1716
1851,1677,1695
1849,1796,1840
1835,1841,1875
1851,1573,1735
1853,1502,1708
1838,1762,1875
1811,1614,1884
1841,1583,1761
1893,1593,1776
1859,1646,1877
1788,1563,1837
1819,1491,1739
1929,1660,1838
1916,1632,1951
1872,1616,1936
1857,1615,1785
1819,1593,1721
1758,1651,1817
1777,1679,1860
1844,1652,1782
1851,1652,1762
1810,1693,1862
1809,1728,1897
1883,1715,1854
1921,1744,1853
1872,1796,1936
1794,1751,1894
1858,1712,1809
1986,1808,1908
1879,1816,1961
1742,1728,1858
1846,1712,1775
1931,1764,1815
1871,1821,1931
1788,1781,1880
1751,1687,1762
1786,1725,1802
1792,1812,1936
1786,1808,1939
1840,1761,1829
1874,1777,1830
1827,1838,1958
1789,1821,1950
1810,1757,1826
1846,1775,1831
1831,1808,1965
1799,1840,1967
1838,1777,1856
1856,1798,1861
1809,1830,1952
1798,1821,1980
1828,1755,1850
1856,1772,1856
1827,1834,1984
1790,1857,1978
1811,1777,1844
1856,1811,1847
1828,2009,1971
1798,1789,1973
1851,1902,1879
1917,1791,1877
1804,1791,1921
1756,1811,1945
1816,1779,1879
1871,1779,1866
1872,1863,1973
1893,1824,1953
1841,1780,1803
1856,1863,1840
1841,1826,1968
1821,1790,1969
1867,1826,1867
1920,1847,1854
1911,1982,1998
1863,1891,1949
1896,1794,1808
1945,1845,1825
1917,1929,1948
1892,1914,1961
1929,1858,1839
1968,1863,1856
1943,1931,1951
1919,1923,1945
1951,1867,1853
1983,1871,1818
1949,1931,1936
1934,1928,1958
1967,1869,1821
2013,1882,1804
1983,1940,1915
1931,1934,1936
1945,1866,1822
1968,1872,1808
1949,1941,1921
1931,1931,1926
1958,1870,1801
1988,1884,1807
1950,1936,1925
1933,1923,1920
1963,1860,1808
1998,1863,1805
1958,1920,1911
1927,1915,1922
1961,1847,1809
1985,1861,1818
1959,1920,1931
1922,1903,1926
1953,1838,1808
1987,1856,1810
1949,1920,1926
1922,1904,1933
1967,1840,1811
1995,1873,1812
1955,1921,1927
1911,1886,1923
1948,1813,1810
1982,1835,1821
1951,1913,1938
1923,1891,1931
1942,1822,1799
1984,1840,1815
1949,1907,1934
1923,1903,1932
1942,1854,1815
1968,1859,1815
1947,1904,1936
1923,1896,1919
1946,1857,1799
1970,1883,1808
1937,1938,1921
1908,1907,1911
1931,1841,1805
1968,1861,1805
1933,1936,1920
1906,1925,1930
1935,1866,1808
1965,1882,1808
1930,1950,1915
1903,1941,1915
1938,1885,1808
1968,1910,1809
1930,1970,1926
1902,1954,1911
1923,1886,1791
1942,1902,1796
1934,1963,1921
1897,1956,1911
1930,1895,1791
1959,1911,1808
1936,1974,1931
1897,1954,1914
1922,1877,1780
1953,1911,1796
1929,1989,1927
1904,1961,1918
1927,1895,1793
1955,1914,1795
1926,1983,1909
1895,1972,1914
1933,1904,1789
1968,1922,1805
1939,1990,1926
1910,1982,1923
1936,1911,1808
1967,1934,1808
1947,2000,1922
1920,1978,1910
1948,1918,1793
1984,1939,1850
1959,2013,1933
1927,1995,1947
1964,1926,1834
2007,1965,1870
2006,2062,2032
1987,2055,2014
2002,1980,1890
2032,1985,1909
1991,2054,1965
1957,2017,1990
1985,1954,1878
2012,1968,1891
1983,2038,1975
1956,2026,2003
1999,1961,1870
2019,1977,1888
1998,2047,1983
1959,2025,1997
1991,1959,1879
2025,1978,1883
2000,2041,1984
1978,2036,2014
1995,1977,1897
2037,1983,1908
2000,2058,2032
1973,2034,2034
2001,1968,1891
2027,1986,1915
2000,2055,2001
1968,2021,2007
1997,1968,1911
2027,1984,1904
1994,2052,2032
1968,2026,2000
1987,1965,1885
2027,1987,1863
1991,2054,2011
1961,2034,2000
1999,1967,1893
2029,1987,1904
1995,2061,2015
1968,2037,2039
1990,1968,1867
2017,1988,1849
1994,2063,2013
1967,2039,2013
1990,1973,1911
2025,1990,1899
1995,2064,2007
1956,2033,2000
1983,1966,1886
2022,1995,1920
1998,2066,2015
1971,2037,2035
1998,1965,1865
2031,2000,1889
1995,2080,1988
1957,2034,2000
1997,1963,1876
2033,1984,1877
1999,2064,2000
1973,2043,1998
1999,1984,1873
2023,1994,1901
2000,2070,2064
1969,2061,2035
2000,1984,1930
2037,2000,1903
2011,2066,1978
1972,2064,1987
1991,1974,1873
2034,1993,1899
2000,2069,2012
1983,2064,2022
2016,1987,1907
2045,2007,1894
2015,2080,2015
1993,2065,2019
2028,1983,1897
2057,2006,1905
2027,2086,2034
2009,2059,2013
2035,1991,1885
2064,2005,1861
2032,2071,2031
1995,2062,2032
2023,1983,1863
2038,2001,1897
2009,2070,2032
1998,2041,2026
2027,1971,1857
2063,2000,1915
2017,2074,2011
1982,2030,2000
2013,1968,1836
2064,1987,1898
2032,2054,2013
1990,2037,2010
2018,1970,1886
2037,1987,1879
2026,2065,2025
1998,2038,2015
2017,1968,1883
2037,1985,1892
2011,2037,2007
1993,2018,1981
2011,1962,1878
2047,1978,1874
2009,2039,2038
1983,2019,1973
2017,1970,1856
2053,1983,1950
2021,2021,2021
1990,2002,1957
2017,1945,1904
2057,1968,1875
2025,2033,2030
1988,2009,1955
2019,1942,1878
2052,1971,1931
2023,2035,1965
1999,2021,1968
2028,1958,1924
2060,1968,1903
2013,2032,2016
1979,2014,2051
2017,1939,1935
2059,1968,1904
2011,2047,2018
1979,2027,2020
2017,1955,1887
2041,1968,1900
2009,2039,1997
1975,2035,1981
2016,1938,1874
2055,1943,1885
2016,2007,2010
1982,2010,1990
2011,1952,1865
2039,1968,1887
2026,2031,2003
1989,2003,2033
2018,1936,1872
2047,1959,1885
2018,2019,1966
1990,2003,1968
2019,1926,1849
2042,1946,1883
2010,2000,1967
1983,1957,1979
2003,1921,1851
2032,1939,1906
1998,1997,2053
1977,1975,1968
2009,1909,1867
2033,1930,1887
2002,2006,2007
1974,1968,1998
2000,1890,1766
2041,1923,1886
2011,1999,1994
1977,1969,1999
2000,1913,1859
2026,1938,1851
1995,2004,2009
1978,1978,2002
2006,1894,1877
2032,1917,1883
2000,1984,2000
1972,1967,1989
1993,1903,1870
2021,1921,1882
1991,1980,2000
1978,1952,2003
2010,1909,1872
2035,1929,1891
2002,1983,2013
1973,1959,1999
2000,1902,1877
2032,1927,1889
2006,1987,2006
1985,1965,1995
2007,1877,1867
2032,1917,1882
1997,2000,2002
1968,1945,1982
2000,1850,1857
2022,1873,1874
1987,1955,1997
1967,1948,1993
1999,1879,1860
2026,1888,1875
1998,1968,2015
1956,1941,1984
1973,1842,1847
2034,1904,1871
2000,1948,1996
1968,1905,1975
1973,1840,1853
1986,1890,1870
1968,1983,1987
2000,1969,1986
2029,1861,1861
1993,1862,1887
1969,1935,1998
2009,1891,1982
2042,1851,1859
2089,1891,1877
2056,1957,1997
1957,1936,1989
1987,1855,1866
2028,1884,1878
1991,1941,1998
1966,1917,1971
1988,1857,1860
2016,1872,1901
1983,1942,2007
1959,1917,1975
2016,1849,1856
2025,1870,1878
1962,1936,2000
1920,1914,1958
1970,1846,1822
2011,1862,1843
1978,1925,1982
1952,1900,1963
1983,1829,1831
2007,1856,1847
1996,1916,1968
1949,1897,1939
1974,1825,1831
1999,1856,1855
1959,1921,1963
1937,1926,1937
1964,1819,1823
1987,1829,1839
1949,1898,1948
1919,1881,1926
1945,1809,1806
1978,1840,1831
1900,1914,1943
1916,1880,1917
1904,1783,1807
1986,1803,1831
1920,1877,1959
1914,1872,1932
1947,1813,1792
1955,1837,1809
1936,1893,1940
1905,1868,1932
1891,1818,1795
1959,1853,1813
1943,1907,1941
1903,1907,1930
1947,1786,1789
1973,1781,1802
1909,1872,1933
1875,1865,1922
1923,1787,1827
1967,1827,1821
1957,1922,1919
1930,1903,1925
1956,1822,1789
1907,1837,1803
1917,1913,1925
1907,1887,1909
1969,1818,1791
1967,1855,1823
1930,1915,1935
1905,1883,1917
1936,1814,1793
1968,1856,1838
1919,1898,1950
1904,1860,1921
1923,1843,1789
1943,1895,1807
1890,1857,1907
1872,1825,1895
1910,1763,1787
1954,1793,1793
1879,1873,1907
1846,1835,1890
1899,1755,1774
1872,1789,1751
1834,1840,1821
1807,1791,1798
1808,1690,1667
1854,1737,1657
1755,1806,1741
1667,1636,1675
1696,1506,1518
1674,1516,1482
1535,1554,1504
1460,1479,1456
1483,1325,1311
1535,1553,1353
1494,1410,1459
1435,1225,1388
1509,1136,1233
1459,1298,1260
1422,1399,1390
1362,1312,1363
1392,1283,1231
1415,1249,1232
1371,1296,1369
1392,1223,1389
1451,1212,1311
1602,1442,1393
1531,1498,1563
1563,1456,1533
1606,1393,1462
1647,1525,1491
1675,1459,1562
1559,1389,1564
1685,1472,1483
1697,1425,1533
1726,1518,1664
1682,1587,1693
1712,1619,1573
1705,1628,1596
1767,1699,1774
1655,1514,1728
1632,1453,1566
1717,1479,1634
1683,1582,1761
1671,1637,1729
1695,1501,1623
1722,1612,1595
1695,1613,1709
1698,1520,1759
1750,1581,1611
1818,1764,1654
1734,1718,1732
1699,1637,1738
1760,1642,1653
1827,1553,1613
1728,1606,1759
1744,1630,1797
1777,1660,1704
1818,1675,1712
1789,1855,1828
1728,1685,1829
1830,1591,1654
1789,1631,1690
1846,1828,1882
1777,1751,1855
1776,1503,1678
1799,1584,1693
1761,1646,1786
1650,1653,1818
1791,1767,1729
1858,1819,1761
1761,1745,1823
1818,1681,1817
1839,1743,1776
1827,1745,1797
1765,1670,1845
1760,1681,1867
1851,1711,1769
1855,1835,1802
1792,1774,1879
1776,1744,1858
1826,1757,1786
1871,1860,1843
1805,1783,1907
1771,1823,1887
1809,1783,1739
1847,1779,1806
1829,1832,1915
1773,1845,1919
1806,1840,1801
1830,1779,1787
1795,1853,1922
1802,1840,1923
1843,1840,1792
1836,1839,1813
1795,1854,1962
1762,1959,1943
1823,1874,1756
1845,1885,1794
1798,1948,1943
1757,1895,1906
1808,1889,1792
1845,1907,1803
1808,1979,1938
1787,1950,1917
1818,1787,1793
1840,1850,1853
1793,1990,1950
1776,1926,1907
1859,1846,1799
1884,2064,1853
1745,1968,1898
1664,1808,1840
1762,1883,1856
1839,1953,1902
1790,1947,1926
1771,1909,1870
1819,1858,1806
1825,1924,1810
1775,2029,1927
1755,1998,1907
1792,1920,1783
1797,1948,1821
1758,2001,1927
1738,1994,1894
1779,1931,1763
1799,1951,1808
1747,1969,1919
1717,1951,1871
1771,1913,1808
1823,2010,1841
1789,2182,1952
1728,1906,1843
1741,1806,1744
1789,1819,1787
1760,2001,1885
1747,2007,1878
1758,1872,1778
1788,1850,1776
1741,1968,1903
1711,1926,1879
1787,1865,1808
1840,1968,1831
1722,1964,1871
1675,1860,1805
1743,1853,1765
1779,1926,1840
1735,2011,1914
1719,1963,1863
1785,1935,1781
1796,1969,1809
1750,1969,1923
1678,1890,1893
1699,1859,1755
1746,1930,1791
1738,2073,1947
1723,2110,1918
1726,1831,1741
1764,1849,1765
1743,1994,1920
1686,2046,1919
1678,1830,1722
1706,1831,1734
1650,1932,1917
1642,1974,1941
1667,1943,1815
1693,1927,1840
1648,2073,1931
1597,1984,1902
1632,1883,1758
1649,1859,1782
1615,1945,1930
1599,1986,1918
1617,1840,1809
1626,1984,1805
1584,2039,1891
1570,1918,1889
1630,1843,1776
1668,1904,1780
1608,2096,1916
1590,2067,1939
1622,1842,1791
1637,1808,1804
1587,1887,1939
1595,1921,1910
1631,1911,1744
1642,1915,1776
1600,2015,1949
1579,1941,1911
1621,1889,1792
1653,1925,1824
1616,1946,1919
1602,1968,1901
1639,1938,1807
1645,1897,1811
1594,1898,1923
1587,1856,1871
1651,1938,1771
1699,1901,1778
1601,1925,1899
1586,1901,1899
1634,1864,1840
1681,1911,1825
1649,2047,1918
1613,1939,1869
1659,1860,1748
1677,1919,1765
1623,1879,1903
1603,1872,1902
1663,1906,1790
1680,1904,1802
1653,1918,1929
1628,1857,1894
1666,1871,1779
1712,1990,1827
1695,2086,1957
1645,1926,1890
1669,1884,1776
1693,1815,1795
1657,1862,1922
1645,1934,1866
1694,1855,1767
1728,1939,1813
1674,1901,1907
1652,1915,1861
1712,1873,1791
1749,1882,1826
1697,1874,1901
1666,1974,1886
1670,1903,1772
1696,1825,1819
1689,1985,1961
1693,1974,1939
1709,1855,1772
1737,1811,1791
1700,1956,1918
1680,1881,1904
1726,1789,1776
1739,1864,1822
1694,1965,1904
1682,1975,1872
1730,1857,1774
1747,1851,1797
1731,1951,1917
1722,1958,1913
1744,1903,1783
1731,1808,1730
1712,1892,1900
1705,1984,1940
1757,1847,1809
1840,1971,1841
1770,1995,1891
1652,1726,1867
1707,1787,1775
1801,1936,1855
1749,1922,1886
1687,1925,1852
1728,1846,1776
1785,1957,1817
1777,2065,1925
1729,1899,1872
1791,1840,1793
1817,1936,1809
1745,1974,1904
1731,1994,1902
1783,1951,1808
1807,2001,1814
1745,2112,1894
1712,2062,1866
1788,1856,1800
1826,1984,1839
1759,2126,1904
1712,2115,1861
1770,1987,1770
1792,2078,1806
1744,2161,1913
1738,2043,1911
1739,1966,1759
1803,2036,1823
1730,2160,1961
1730,2083,1901
1749,1894,1759
1768,2081,1776
1744,2161,1910
1749,2227,1906
1774,2151,1749
1761,2063,1762
1729,2109,1904
1738,2035,1881
1808,2089,1783
1811,2201,1822
1742,2227,1901
1737,2192,1906
1791,2212,1797
1794,2079,1799
1776,2161,1903
1795,2196,1889
1813,2208,1825
1813,2169,1821
1729,2227,1911
1740,2272,1891
1808,2175,1802
1822,2139,1812
1793,2295,1950
1747,2206,1839
1792,2119,1734
1837,2116,1797
1777,2223,1941
1771,2275,1936
1827,2170,1817
1840,2273,1821
1776,2216,1886
1790,2022,1849
1819,1955,1780
1822,2043,1854
1791,2288,1950
1753,2166,1870
1805,2016,1778
1815,2090,1807
1795,2338,1953
1792,2213,1934
1832,2069,1808
1835,2162,1799
1791,2150,1923
1771,2189,1893
1828,2002,1777
1846,2011,1794
1793,2141,1901
1783,2138,1890
1842,2097,1814
1872,2061,1838
1831,2263,1933
1805,2042,1871
1790,1915,1757
1811,1905,1822
1809,2043,1938
1823,2038,1943
1843,1927,1767
1853,2040,1771
1801,2128,1910
1791,2066,1904
1869,1997,1799
1887,2028,1824
1822,2118,1924
1797,2128,1891
1840,1985,1789
1855,1923,1808
1823,2007,1930
1808,2023,1880
1853,1913,1773
1872,2019,1819
1842,2108,1939
1809,2013,1895
1870,1974,1790
1898,2034,1812
1866,2147,1959
1829,2023,1889
1856,1881,1740
1883,1924,1779
1862,2013,1898
1818,2085,1877
1858,1945,1831
1871,2015,1835
1840,2096,1911
1812,2001,1869
1879,1939,1789
1923,2065,1830
1875,2096,1947
1840,2003,1891
1849,1835,1725
1874,1873,1773
1867,1950,1936
1831,1962,1882
1879,1919,1775
1918,1919,1835
1870,2002,1920
1840,2067,1904
1893,1931,1787
1907,1904,1783
1886,2031,1904
1841,1945,1898
1852,1831,1776
1874,1772,1790
1855,1929,1906
1845,1907,1872
1924,1923,1767
1955,1969,1827
1878,2032,1967
1836,1955,1907
1871,1887,1744
1901,1906,1791
1869,1929,1927
1855,1971,1892
1887,1889,1776
1909,1856,1807
1871,1933,1920
1847,1975,1872
1883,1951,1773
1936,1936,1810
1872,1951,1883
1857,1924,1870
1920,1993,1803
1904,1884,1822
1854,1808,1902
1857,1856,1903
1922,1835,1775
1933,1919,1819
1873,1924,1915
1872,1856,1893
1919,1813,1776
1922,1849,1791
1861,1968,1899
1856,1942,1911
1906,1808,1795
1929,1808,1803
1884,1923,1909
1875,1931,1880
1915,1761,1760
1949,1929,1843
1887,1899,1925
1834,1776,1849
1886,1757,1746
1918,1808,1815
1893,1919,1938
1886,1861,1888
1915,1808,1777
1946,1856,1824
1903,1862,1873
1903,1875,1902
1911,1881,1778
1909,1713,1792
1872,1859,1923
1877,1833,1905
1924,1773,1781
1930,1788,1813
1891,1851,1916
1883,1820,1879
1936,1807,1789
1943,1877,1831
1903,1838,1919
1885,1786,1904
1906,1759,1778
1931,1801,1795
1893,1847,1921
1878,1807,1917
1925,1749,1787
1952,1790,1807
1897,1794,1950
1877,1807,1926
1913,1771,1744
1931,1761,1786
1893,1877,1931
1877,1791,1886
1923,1721,1770
1956,1774,1823
1915,1821,1962
1902,1898,1911
1945,1850,1785
1931,1707,1787
1891,1839,1918
1880,1791,1903
1931,1721,1805
1948,1729,1886
1904,1808,1969
1887,1811,1885
1920,1725,1712
1941,1770,1797
1906,1783,1968
1897,1953,1936
1917,1744,1783
1911,1681,1771
1872,1755,1895
1872,1753,1899
1921,1712,1793
1947,1790,1863
1907,1800,1941
1899,1797,1884
1925,1707,1819
1933,1789,1807
1895,1808,1893
1871,1766,1883
1907,1751,1776
1925,1808,1779
1893,1837,1934
1884,1841,1920
1945,1739,1801
1939,1705,1831
1871,1813,1920
1862,1759,1886
1920,1863,1786
1923,1699,1795
1885,1820,1903
1886,1827,1904
1927,1801,1810
1936,1840,1799
1886,1794,1889
1874,1756,1850
1922,1733,1751
1925,1805,1867
1874,1874,1963
1856,1808,1847
1910,1754,1743
1936,1745,1803
1885,1874,1919
1856,1856,1882
1919,1765,1759
1936,1751,1827
1882,1839,1904
1871,1859,1866
1923,1872,1791
1940,1808,1840
1899,1870,1947
1883,1841,1885
1918,1712,1767
1928,1745,1792
1900,1812,1928
1907,1854,1895
1926,1842,1774
1926,1950,1825
1859,1787,1879
1872,1680,1873
1936,1747,1782
1934,1885,1806
1887,1882,1899
1885,1840,1897
1909,1760,1766
1921,1766,1792
1885,1847,1905
1887,1875,1918
1938,1798,1831
1951,1965,1829
1899,1879,1904
1863,1734,1839
1911,1698,1738
1936,1740,1811
1904,1855,1936
1874,1809,1910
1906,1870,1778
1922,1803,1791
1884,1836,1865
1899,1853,1873
1923,1797,1811
1936,1817,1829
1890,1954,1949
1872,1815,1903
1936,1795,1769
1963,1811,1874
1889,1808,1919
1872,1737,1909
1918,1839,1781
1931,1911,1782
1903,1904,1936
1886,1929,1873
1918,1840,1795
1932,1739,1789
1901,1835,1937
1892,1872,1885
1929,1869,1776
1917,1744,1790
1878,1763,1937
1871,1882,1910
1917,1879,1782
1919,1853,1811
1904,1975,1952
1872,1815,1865
1915,1753,1719
1947,1808,1827
1891,1898,2000
1872,1785,1907
1927,1809,1776
1974,1919,1840
1933,1942,1873
1846,1787,1843
1895,1709,1779
1921,1811,1826
1897,1904,1918
1894,1851,1897
1946,1849,1744
1931,1933,1837
1861,1905,1898
1857,1815,1899
1953,1855,1803
1959,1959,1810
1881,1863,1927
1860,1792,1917
1915,1757,1773
1975,1986,1845
1891,2031,1969
1849,1740,1877
1893,1755,1797
1925,1839,1798
1885,1916,1904
1884,1890,1904
1925,1813,1789
1937,1873,1817
1880,1939,1914
1873,1873,1875
1929,1799,1760
1935,1871,1853
1855,1969,1855
1873,1895,1890
1936,1837,1842
1906,1870,1817
1846,1890,1954
1856,1879,1870
1905,1852,1770
1937,1862,1754
1910,1954,1969
1872,1935,1963
1886,1817,1782
1910,1799,1791
1874,1915,1917
1872,1915,1925
1915,1829,1741
1934,1930,1874
1869,1878,1952
1840,1808,1884
1888,1785,1776
1930,1881,1818
1904,1927,1942
1873,1963,1903
1915,1918,1806
1925,1869,1802
1872,1886,1934
1878,1927,1817
1918,1819,1811
1911,1837,1821
1856,1882,1891
1852,1857,1866
1909,1810,1757
1951,1908,1800
1898,1936,1922
1869,1964,1937
1899,1872,1802
1899,1834,1792
1854,1923,1916
1859,1904,1902
1919,1803,1781
1926,1818,1817
1856,1870,1935
1853,1843,1904
1906,1885,1787
1929,1930,1834
1878,1925,1936
1895,2026,1969
1910,1785,1767
1927,1827,1808
1884,1915,1933
1856,1793,1867
1907,1808,1855
1929,1904,1819
1899,1929,1952
1873,1896,1914
1906,1830,1794
1936,1884,1783
1909,2030,1973
1875,1987,1945
1910,1904,1854
1909,1766,1796
1867,1805,1876
1856,1817,1827
1913,1840,1767
1953,1914,1872
1904,1966,1927
1901,1981,1901
1905,1857,1794
1903,1809,1795
1872,1883,1935
1886,1872,1871
1917,2014,1781
1951,1971,1845
1871,1803,1911
1818,1783,1883
1878,1792,1824
1920,1919,1821
1879,2000,1939
1873,1891,1885
1904,1890,1795
1917,1881,1822
1873,2006,1964
1866,1903,1892
1915,1863,1739
1917,1917,1824
1842,1900,1920
1855,1861,1891
1915,1817,1793
1894,1922,1808
1842,1903,1909
1851,1935,1869
1906,1927,1785
1947,2032,1842
1895,2032,1963
1830,1849,1863
1872,1819,1788
1911,1863,1807
1872,1911,1830
1873,1914,1907
1904,1847,1790
1905,1889,1840
1880,1947,1936
1850,1933,1903
1904,1883,1789
1931,1913,1861
1889,2096,1952
1884,1946,1901
1913,1758,1737
1910,1831,1791
1870,1990,1951
1838,1888,1893
1872,1809,1757
1906,1831,1813
1879,1945,1946
1866,1936,1912
1905,2060,1792
1920,1877,1822
1865,1869,1919
1859,1845,1887
1904,1835,1792
1937,1894,1803
1890,1981,1945
1856,1874,1894
1911,1873,1782
1923,1935,1839
1878,1969,1958
1874,2002,1881
1885,1943,1763
1919,1934,1840
1862,1942,1951
1859,1941,1893
1887,1879,1733
1929,1882,1813
1882,1948,1890
1879,1961,1904
1910,1967,1810
1839,2033,1824
1866,2043,1917
1898,1966,1871
1933,1937,1770
1902,1904,1817
1814,1968,1913
1825,1968,1885
1941,1943,1776
1917,1994,1825
1875,1979,1943
1849,2015,1883
1886,1994,1745
1904,1922,1809
1872,2096,1952
1853,2002,1893
1837,1867,1751
1875,1899,1838
1818,1989,1911
1815,1974,1889
1882,1869,1763
1971,1961,1810
1892,2117,1947
1797,1939,1901
1840,1861,1750
1893,1909,1794
1869,2096,1930
1853,2090,1905
1925,1882,1782
1904,1971,1809
1855,1970,1936
1824,1908,1895
1867,1831,1785
1914,1915,1817
1863,2041,1922
1852,2014,1882
1910,1987,1811
1904,1927,1851
1877,2034,1933
1847,1927,1845
1893,1841,1759
1903,1863,1815
1859,1955,1923
1824,1953,1904
1904,1942,1807
1955,1963,1853
1886,1983,1925
1856,1936,1872
1873,1890,1779
1907,1927,1840
1868,1995,1924
1873,1903,1890
1907,1909,1781
1862,2027,1849
1916,1974,1943
1859,1899,1923
1958,1867,1826
1920,2000,1845
1835,1966,1904
1825,1925,1870
1904,1914,1792
1917,1933,1859
1855,1916,1902
1883,1882,1835
1902,1954,1763
1926,1947,1847
1921,1984,1931
1864,1920,1889
1900,1823,1806
1919,1925,1826
1827,2001,1924
1894,1947,1903
1907,1842,1778
1878,1861,1815
1861,1904,1897
1887,1964,1845
1897,1952,1780
1913,1935,1840
1883,1909,1942
1863,1905,1891
1919,1872,1810
1908,1921,1820
1854,1969,1920
1852,1963,1888
1889,1840,1761
1905,1893,1775
1861,1967,1898
1869,1936,1910
1857,1920,1813
1903,1920,1835
1825,1939,1927
1845,1913,1879
1909,1849,1748
1924,1965,1820
1857,1969,1955
1826,1904,1873
1867,1857,1792
1903,1936,1823
1850,1919,1915
1859,1905,1871
1904,1918,1751
1917,1948,1840
1863,1920,1941
1840,1849,1871
1904,1829,1776
1909,1914,1782
1862,2015,1927
1825,1904,1904
1872,1841,1751
1885,1949,1807
1877,1919,1936
1851,1875,1884
1907,1869,1773
1904,1950,1806
1893,1971,1901
1913,1933,1876
1893,1850,1791
1937,1887,1827
1862,1985,1926
1812,1835,1904
1922,1821,1804
1843,1839,1808
1791,1909,1904
1856,1935,1872
1873,1933,1757
1898,1844,1781
1842,1898,1911
1831,1831,1872
1885,1802,1765
1920,1921,1801
1865,1926,1916
1821,1872,1888
1895,1808,1759
1927,1854,1818
1862,1901,1912
1840,1889,1879
1907,1846,1758
1935,1858,1803
1878,1947,1945
1855,1927,1917
1862,1847,1775
1876,1882,1807
1843,1892,1907
1856,1888,1885
1885,1739,1770
1866,1780,1782
1858,1856,1897
1837,1872,1873
1894,1829,1789
1898,1840,1830
1875,1883,1927
1802,1895,1875
1893,1871,1760
1931,1812,1807
1853,1873,1901
1837,1873,1871
1888,1729,1758
1951,1824,1835
1856,1856,1919
1827,1731,1870
1909,1729,1734
1923,1861,1789
1868,1982,1932
1853,1807,1882
1898,1725,1761
1911,1918,1824
1855,1925,1912
1840,1799,1845
1878,1772,1757
1897,1734,1822
1865,1779,1918
1846,1851,1867
1881,1775,1755
1894,1799,1808
1856,1900,1919
1847,1850,1871
1906,1771,1775
1927,1839,1815
1895,1904,1917
1853,1851,1881
1854,1806,1763
1864,1816,1810
1840,1825,1915
1839,1848,1867
1872,1789,1763
1889,1758,1821
1850,1803,1939
1852,1866,1893
1883,1849,1762
1887,1847,1822
1840,1750,1918
1843,1789,1869
1892,1744,1743
1904,1776,1802
1852,1898,1926
1858,1840,1878
1905,1799,1779
1926,1745,1847
1872,1823,1920
1840,1811,1875
1881,1815,1767
1889,1810,1827
1890,1840,1913
1837,1769,1866
1854,1718,1773
1877,1817,1833
1843,1872,1923
1835,1840,1865
1882,1818,1767
1890,1797,1819
1843,1791,1920
1844,1843,1886
1894,1777,1770
1914,1798,1831
1855,1858,1939
1834,1787,1890
1869,1792,1781
1898,1809,1824
1869,1842,1917
1840,1803,1825
1895,1783,1763
1935,1785,1813
1901,1825,1907
1831,1844,1872
1851,1835,1777
1863,1761,1804
1853,1807,1923
1871,1805,1882
1908,1808,1776
1894,1849,1805
1827,1769,1911
1826,1750,1872
1904,1847,1759
1885,1759,1789
1847,1765,1911
1843,1736,1889
1889,1739,1775
1954,1835,1827
1863,1903,1903
1812,1824,1838
1872,1808,1799
1889,1806,1855
1862,1905,1935
1830,1825,1869
1872,1758,1744
1910,1808,1840
1857,1747,1920
1843,1765,1858
1887,1746,1781
1879,1825,1838
1839,1901,1923
1841,1904,1872
1894,1842,1747
1883,1705,1812
1851,1755,1968
1847,1770,1895
1887,1719,1747
1920,1757,1787
1825,1845,1892
1840,1856,1857
1861,1755,1769
1862,1796,1842
1843,1882,1955
1848,1828,1866
1871,1763,1763
1883,1786,1825
1847,1939,1904
1841,1822,1879
1899,1716,1787
1898,1805,1823
1854,1887,1936
1837,1765,1863
1876,1706,1750
1891,1814,1807
1839,1814,1906
1854,1877,1885
1887,1852,1769
1904,1780,1795
1853,1826,1917
1814,1786,1872
1885,1820,1773
1904,1747,1806
1875,1791,1919
1824,1792,1861
1875,1784,1762
1881,1905,1851
1844,1919,1950
1840,1795,1888
1876,1701,1747
1893,1802,1818
1856,1840,1919
1837,1791,1872
1872,1749,1776
1900,1861,1828
1863,1929,1921
1858,1809,1840
1920,1740,1753
1866,1764,1821
