1738,1742,1735
1713,1803,1863
1681,1792,1869
1707,1730,1742
1734,1737,1734
1712,1808,1857
1697,1813,1858
1717,1726,1718
1744,1727,1728
1711,1785,1840
1680,1785,1843
1713,1712,1743
1750,1733,1735
1712,1807,1845
1683,1791,1839
1712,1714,1730
1738,1718,1727
1709,1798,1840
1685,1777,1840
1715,1706,1712
1744,1715,1716
1714,1790,1839
1680,1770,1835
1711,1702,1701
1744,1716,1703
1706,1765,1836
1664,1751,1825
1701,1683,1709
1744,1712,1711
1714,1776,1829
1671,1747,1813
1690,1663,1690
1731,1682,1699
1706,1760,1811
1671,1748,1808
1699,1670,1683
1729,1686,1682
1702,1739,1798
1665,1734,1796
1699,1668,1674
1729,1681,1685
1703,1751,1802
1664,1725,1801
1684,1623,1680
1726,1687,1665
1693,1749,1774
1664,1741,1778
1694,1662,1664
1725,1693,1680
1702,1781,1799
1669,1738,1776
1696,1625,1651
1728,1615,1652
1693,1727,1760
1654,1673,1762
1692,1673,1657
1731,1681,1658
1698,1744,1776
1655,1714,1775
1691,1677,1642
1725,1653,1641
1693,1712,1756
1677,1749,1760
1697,1643,1648
1729,1653,1648
1701,1738,1765
1673,1664,1751
1693,1643,1622
1726,1635,1627
1701,1705,1744
1653,1648,1728
1682,1616,1617
1727,1648,1627
1694,1637,1744
1662,1669,1738
1694,1606,1613
1733,1626,1610
1703,1697,1728
1671,1693,1733
1697,1631,1609
1729,1619,1614
1699,1689,1725
1665,1679,1719
1697,1599,1590
1739,1621,1598
1695,1695,1712
1657,1668,1708
1687,1605,1582
1725,1614,1589
1707,1685,1712
1677,1660,1707
1699,1590,1582
1735,1599,1580
1703,1698,1698
1667,1670,1707
1712,1606,1584
1747,1611,1577
1715,1671,1687
1683,1702,1701
1713,1561,1569
1743,1629,1580
1713,1633,1694
1689,1695,1690
1723,1558,1566
1744,1615,1561
1715,1630,1675
1689,1682,1680
1728,1559,1563
1762,1583,1562
1727,1663,1680
1701,1662,1667
1737,1566,1535
1776,1584,1561
1737,1652,1679
1711,1648,1680
1734,1532,1567
1774,1583,1571
1738,1653,1679
1702,1641,1680
1738,1583,1563
1783,1584,1570
1753,1652,1682
1723,1664,1681
1756,1562,1535
1793,1573,1558
1772,1648,1680
1744,1648,1694
1775,1579,1566
1808,1581,1567
1779,1655,1690
1757,1649,1680
1776,1611,1569
1823,1585,1575
1802,1673,1707
1771,1749,1703
1791,1611,1574
1819,1633,1584
1801,1678,1710
1789,1637,1712
1814,1566,1580
1841,1612,1589
1813,1690,1719
1785,1664,1723
1812,1588,1593
1850,1605,1594
1827,1691,1707
1790,1663,1706
1824,1597,1589
1865,1615,1598
1835,1684,1714
1803,1663,1719
1837,1638,1600
1883,1639,1613
1855,1699,1730
1813,1627,1726
1845,1593,1598
1870,1574,1594
1849,1722,1712
1812,1698,1705
1841,1595,1595
1891,1584,1607
1858,1689,1728
1827,1680,1729
1856,1535,1616
1893,1693,1616
1865,1769,1728
1830,1734,1735
1861,1581,1614
1875,1635,1607
1858,1681,1727
1826,1677,1727
1858,1612,1602
1902,1604,1600
1872,1701,1714
1839,1651,1728
1858,1584,1600
1883,1594,1601
1856,1666,1714
1831,1633,1712
1859,1585,1591
1887,1595,1593
1866,1652,1711
1834,1655,1701
1846,1567,1567
1873,1488,1565
1851,1659,1701
1830,1661,1710
1859,1595,1581
1891,1605,1568
1854,1647,1685
1824,1614,1694
1843,1558,1563
1879,1585,1565
1859,1635,1681
1827,1642,1681
1851,1535,1535
1882,1610,1535
1857,1663,1673
1836,1655,1690
1860,1574,1579
1887,1583,1573
1867,1666,1680
1840,1655,1691
1868,1622,1575
1904,1587,1584
1872,1669,1709
1847,1646,1706
1874,1599,1584
1911,1601,1581
1875,1669,1699
1851,1664,1708
1881,1603,1599
1919,1622,1615
1890,1697,1731
1866,1678,1729
1872,1600,1597
1918,1618,1600
1907,1705,1714
1872,1683,1737
1904,1600,1623
1937,1626,1626
1911,1712,1740
1877,1699,1739
1904,1631,1611
1931,1623,1625
1907,1695,1749
1879,1694,1754
1906,1629,1637
1936,1648,1630
1909,1718,1750
1886,1702,1760
1908,1639,1643
1945,1642,1636
1915,1719,1765
1894,1714,1770
1920,1651,1638
1961,1661,1652
1933,1714,1762
1889,1699,1773
1931,1619,1650
1961,1651,1642
1935,1725,1761
1903,1712,1765
1925,1639,1642
1954,1652,1643
1933,1712,1758
1901,1707,1760
1929,1648,1656
1967,1670,1662
1943,1729,1776
1904,1712,1767
1927,1662,1650
1955,1667,1663
1930,1742,1787
1902,1712,1787
1921,1642,1655
1952,1648,1647
1933,1727,1774
1904,1714,1789
1937,1647,1670
1968,1649,1680
1936,1729,1791
1906,1727,1792
1931,1657,1671
1967,1654,1674
1945,1727,1792
1914,1719,1787
1936,1659,1679
1967,1659,1668
1940,1737,1792
1915,1716,1800
1945,1648,1685
1983,1675,1693
1939,1746,1804
1908,1738,1806
1936,1659,1683
1973,1678,1689
1953,1765,1810
1915,1733,1821
1946,1662,1706
1984,1674,1705
1950,1749,1818
1921,1741,1826
1947,1669,1694
1983,1696,1693
1963,1759,1824
1927,1746,1835
1949,1680,1705
1980,1671,1696
1945,1738,1822
1911,1739,1827
1942,1680,1712
1983,1680,1708
1949,1745,1824
1926,1739,1847
1950,1677,1726
1986,1693,1712
1963,1771,1829
1932,1759,1841
1951,1680,1718
1979,1707,1712
1955,1771,1834
1927,1750,1841
1954,1680,1728
1991,1704,1715
1951,1770,1831
1931,1759,1841
1953,1676,1719
1984,1684,1723
1962,1766,1840
1919,1757,1855
1945,1687,1727
1983,1687,1718
1962,1760,1849
1931,1769,1851
1952,1687,1723
1971,1689,1719
1951,1758,1839
1922,1753,1855
1937,1683,1729
1968,1690,1719
1947,1766,1838
1908,1776,1846
1937,1663,1724
1963,1664,1726
1936,1751,1840
1905,1744,1838
1936,1668,1710
1968,1677,1710
1925,1745,1831
1895,1755,1846
1922,1683,1727
1954,1693,1718
1925,1749,1834
1888,1744,1833
1917,1678,1709
1947,1682,1719
1919,1759,1841
1892,1757,1847
1907,1680,1715
1937,1685,1705
1919,1757,1829
1883,1750,1840
1903,1680,1721
1926,1696,1717
1899,1782,1835
1875,1770,1840
1889,1659,1706
1936,1668,1712
1919,1753,1841
1883,1765,1852
1906,1696,1719
1945,1696,1719
1908,1760,1840
1874,1779,1855
1903,1715,1696
1939,1697,1727
1911,1775,1806
1876,1776,1866
1893,1683,1735
1923,1680,1737
1915,1775,1866
1877,1776,1869
1908,1707,1778
1938,1709,1779
1911,1793,1886
1873,1783,1862
1910,1720,1767
1936,1712,1706
1917,1790,1897
1885,1791,1907
1897,1712,1788
1936,1715,1776
1914,1786,1861
1873,1785,1879
1895,1719,1775
1923,1705,1787
1904,1788,1897
1874,1793,1915
1905,1726,1793
1939,1758,1776
1915,1806,1899
1874,1779,1936
1894,1712,1805
1929,1744,1777
1912,1823,1886
1884,1803,1905
1903,1730,1791
1939,1744,1791
1904,1818,1931
1874,1818,1925
1902,1738,1808
1935,1743,1791
1895,1823,1910
1863,1825,1927
1885,1743,1791
1921,1763,1782
1904,1826,1916
1872,1831,1968
1890,1767,1805
1923,1758,1808
1887,1822,1908
1870,1839,1973
1895,1743,1807
1919,1757,1830
1890,1857,1920
1856,1840,1936
1881,1773,1835
1923,1776,1783
1901,1834,1919
1862,1829,1925
1882,1763,1778
1909,1783,1751
1904,1863,1921
1872,1827,1934
1891,1760,1826
1917,1777,1823
1886,1840,1930
1859,1846,1900
1881,1780,1819
1923,1788,1825
1899,1856,1923
1862,1852,1923
1885,1777,1846
1922,1781,1819
1888,1857,1951
1855,1863,1936
1881,1789,1821
1918,1806,1816
1889,1856,1922
1843,1846,1953
1874,1795,1831
1909,1818,1803
1888,1880,1889
1840,1868,1939
1872,1787,1823
1921,1791,1819
1897,1872,1949
1858,1863,1965
1878,1781,1834
1907,1805,1823
1885,1885,1954
1861,1866,1961
1879,1789,1940
1914,1801,1829
1879,1874,1949
1845,1878,1938
1859,1806,1818
1904,1826,1884
1875,1893,1937
1847,1850,1988
1877,1781,1868
1904,1805,1840
1874,1873,1941
1841,1872,1968
1860,1808,1846
1900,1819,1843
1874,1881,1970
1840,1889,1970
1854,1836,1841
1890,1820,1828
1873,1889,1949
1845,1861,1968
1857,1796,1855
1892,1822,1832
1859,1902,1971
1823,1904,2012
1856,1840,1852
1899,1814,1838
1872,1873,2001
1827,1873,2015
1840,1818,1835
1889,1840,1873
1862,1914,1959
1819,1875,1980
1840,1802,1857
1879,1808,1748
1855,1889,1948
1829,1902,1970
1841,1830,1833
1878,1820,1826
1861,1888,1911
1815,1898,1941
1836,1834,1856
1873,1854,1820
1850,1952,1937
1820,1903,1939
1841,1817,1850
1872,1838,1795
1856,1927,1967
1817,1905,1983
1837,1825,1826
1878,1837,1868
1856,1935,1987
1812,1898,1975
1830,1815,1842
1872,1863,1856
1856,1934,1967
1823,1925,1983
1841,1841,1776
1873,1826,1840
1851,1904,1965
1814,1912,2019
1845,1866,1863
1885,1837,1847
1856,1914,1943
1822,1906,1987
1834,1840,1875
1872,1854,1920
1857,1935,1990
1823,1950,1986
1845,1881,1844
1881,1853,1840
1855,1918,1920
1815,1936,1886
1846,1873,1941
1897,1850,1871
1863,1893,2018
1827,1930,2022
1838,1854,1871
1886,1837,1859
1861,1915,1957
1827,1936,2017
1853,1862,1903
1879,1861,1870
1856,1931,1981
1819,1981,1999
1843,1917,1903
1875,1808,1872
1840,1871,2012
1774,1862,2432
1768,1806,1712
1567,1566,4095
743,946,1184
335,672,1360
60,253,4095
0,0,4095
0,0,4095
0,0,4095
0,0,4095
0,0,4095
0,0,4095
0,0,4095
0,0,4095
0,0,4095
0,0,4095
0,0,4095
0,0,4095
0,0,4095
0,0,4095
0,0,4095
0,0,4095
0,0,4095
0,0,4095
0,0,4095
0,0,1077
0,0,0
0,0,645
0,0,1835
0,0,2110
0,0,1948
0,0,1826
0,0,1818
0,0,1815
0,98,1817
0,1383,1831
638,2162,1835
1806,2371,2241
2061,2391,2559
1967,2541,1115
2091,2803,1387
2323,2815,1789
2594,3082,1904
2726,3551,1872
2766,3613,1830
2853,3452,1819
3037,3574,1827
3082,4025,1831
3248,4095,1830
3070,4095,1827
2795,4095,1828
2913,4095,1890
3280,4095,1872
3354,4095,1721
3351,4095,1636
3370,4095,1745
3359,4095,1751
3303,4095,1645
3428,4095,1614
3493,4095,1666
3442,4095,1680
3508,4095,1534
3709,4095,1497
3607,4095,1598
3456,4095,1583
3483,4095,1477
3429,4095,1439
3583,4095,1514
3642,4095,1559
3703,4095,1442
3790,4095,1398
3743,4095,1473
3600,4095,2528
3399,4095,1894
3362,4095,1522
3355,4095,1690
3458,4095,1835
3686,4095,1867
3742,4095,1839
3614,4095,1824
3600,4095,1824
3632,4095,1830
3665,4095,1824
3664,4095,1826
3419,4095,1827
3617,4095,1831
3734,4095,1826
3659,4095,1831
3534,4095,1827
3607,4095,1829
3567,4095,1827
3558,4095,1829
3446,4095,1829
3489,4095,1825
3619,4095,1831
3545,4095,1829
3554,4095,1827
3475,4095,1828
3578,4095,1830
3441,4095,1835
3360,4095,1825
3398,4095,1826
3473,4095,1829
3442,4095,1830
3343,4095,1834
3377,4095,1827
3363,4095,1807
3294,4095,1936
3188,4095,1904
3286,4095,1818
3292,4095,1804
3261,4095,1863
3138,4095,1865
3178,4095,1745
2990,4095,1661
3117,4095,1809
3079,4095,1858
3018,3995,1706
3098,3870,1654
3056,4081,1792
2983,3921,1788
2967,3840,1680
3040,4031,1680
2994,3905,1737
2887,3682,1703
2894,3487,1586
2937,3499,1587
2919,3730,1745
2867,3792,1759
2766,3405,1535
2843,3387,1535
2807,3595,1712
2735,3583,1737
2626,3351,1589
2673,3346,1554
2625,3311,1657
2523,3310,1668
2502,3295,1580
2505,3230,1491
2501,3120,1616
2423,3163,1687
2403,3248,1574
2442,3024,1513
2275,3147,1611
2261,3120,1645
2269,3084,1535
2250,3024,1520
2189,3037,1618
2091,2906,1630
2127,2927,1476
2096,2895,1438
2059,2923,1606
2035,2967,1691
2066,3008,1572
2017,2861,1424
1911,2712,1567
1872,2708,1646
1847,2702,1627
1921,2709,2260
1910,2889,2173
1858,3002,1702
1810,2672,1495
1808,2438,2195
1768,2559,2026
1754,2665,1826
1786,2559,1792
1840,2539,1910
1811,2624,1814
1727,2643,1799
1699,2559,1761
1792,2559,1886
1748,2512,1818
1629,2418,1781
1686,2288,1810
1763,2469,1839
1799,2445,1830
1699,2438,1831
1725,2478,1840
1902,2409,1814
1706,2305,1819
1649,2224,1829
1708,2385,1826
1808,2300,1828
1801,2229,1823
1742,2320,1829
1724,2242,1829
1774,2277,1827
1803,2350,1829
1722,2178,1826
1748,2157,1831
1822,2234,1829
1797,2203,1830
1769,2169,1827
1802,2185,1829
1814,2154,1831
1791,2121,1815
1805,2107,1764
1851,2122,1650
1906,2029,1705
1875,2221,1793
1797,2079,2784
1802,1923,3710
1867,1987,2427
1856,2010,1613
1825,2030,1488
1855,1995,1525
1904,1998,1575
1863,2005,1662
1837,2018,1702
1843,1926,1564
1862,1909,1518
1853,1968,1634
1820,1957,1680
1840,1777,1594
1842,1882,1561
1810,1969,1616
1756,1911,1665
1787,1783,1609
1823,1930,1561
1776,1902,1667
1662,1890,1669
1604,1818,1559
1586,1701,1535
1497,1857,1653
1365,1891,1661
1298,1818,1570
1261,1715,1579
1134,1776,1658
1085,1831,1747
1095,1770,1616
1121,1919,1520
1006,1675,1586
944,1740,1641
955,1687,1535
998,1717,1520
961,1807,1641
905,1735,1651
944,1636,1553
988,1665,1555
955,1813,1680
909,1767,1647
880,1616,1511
919,1607,1479
932,1711,1620
924,1728,1710
934,1737,1595
959,1622,1553
950,1610,1611
905,1776,1673
933,1664,1563
983,1611,1505
965,1638,1675
927,1648,1680
973,1633,1558
1048,1595,1520
1008,1638,1627
965,1631,1674
1008,1488,1559
1083,1651,1554
1071,1731,1667
991,1665,1623
976,1466,1511
1071,1507,1535
1084,1648,1700
1065,1633,1776
1100,1587,1650
1117,1618,1535
1095,1630,1668
1074,1534,1744
1110,1456,1654
1168,1518,1632
1200,1599,1747
1136,1709,1805
1137,1637,1643
1216,1567,1585
1232,1610,1715
1163,1600,1734
1158,1463,1616
1227,1573,1622
1232,1584,1717
1210,1575,1735
1237,1479,1630
1289,1626,1645
1279,1620,1763
1230,1568,1734
1282,1535,1626
1367,1535,1579
1330,1567,1682
1260,1616,1701
1286,1501,1600
1371,1491,1573
1355,1575,1716
1331,1595,1746
1353,1574,1591
1397,1523,1520
1381,1616,1661
1363,1651,1728
1429,1607,1633
1456,1524,1566
1408,1584,1686
1411,1642,1745
1426,1458,1585
1443,1439,1527
1444,1557,1685
1449,1626,1747
1503,1557,1645
1555,1607,1616
1521,1685,1768
1428,1526,1764
1456,1390,1667
1535,1535,1643
1568,1609,1738
1535,1599,1776
1535,1569,1680
1535,1571,1627
1535,1628,1791
1520,1555,1783
1583,1492,1625
1603,1506,1584
1590,1566,1694
1535,1600,1691
1578,1535,1614
1643,1535,1617
1598,1615,1732
1575,1589,1742
1617,1617,1648
1662,1611,1615
1643,1518,1703
1623,1530,1753
1657,1578,1648
1676,1523,1570
1659,1622,1713
1621,1559,1767
1680,1562,1659
1724,1535,1618
1692,1567,1735
1696,1584,1758
1729,1574,1648
1724,1535,1629
1685,1607,1729
1691,1634,1775
1731,1488,1673
1738,1503,1617
1727,1607,1765
1711,1630,1789
1743,1581,1686
1787,1523,1629
1762,1610,1723
1749,1597,1799
1758,1587,1649
1797,1566,1625
1790,1707,1747
1750,1680,1795
1772,1501,1664
1819,1488,1631
1821,1535,1758
1795,1654,1803
1786,1586,1677
1808,1513,1607
1798,1779,1744
1761,1678,1774
1808,1605,1668
1869,1455,1642
1854,1519,1733
1775,1600,1773
1792,1553,1674
1856,1559,1633
1894,1616,1786
1815,1750,1804
1814,1565,1680
1870,1535,1643
1853,1646,1760
1819,1662,1808
1862,1565,1681
1904,1574,1634
1879,1655,1745
1839,1595,1805
1874,1595,1707
1925,1662,1664
1895,1627,1751
1856,1630,1788
1888,1531,1691
1926,1555,1637
1895,1702,1755
1872,1663,1807
1918,1520,1707
1963,1605,1654
1908,1722,1769
1867,1667,1804
1918,1652,1658
1957,1535,1645
1936,1674,1781
1873,1702,1803
1903,1535,1691
1965,1521,1671
1949,1682,1790
1926,1677,1809
1918,1591,1677
2015,1593,1678
1941,1622,1766
1883,1719,1813
1925,1527,1690
1977,1613,1662
1968,1597,1808
1922,1659,1845
1946,1599,1685
2000,1661,1649
1983,1788,1782
1958,1670,1840
1957,1594,1713
1997,1579,1677
1981,1612,1755
1952,1657,1818
1966,1614,1692
1994,1580,1635
1985,1675,1776
1955,1650,1837
1991,1645,1734
2039,1792,1709
2000,1646,1776
1925,1516,1791
1943,1565,1697
2007,1645,1680
2006,1665,1790
1971,1641,1840
1990,1621,1710
2038,1570,1690
2007,1738,1807
1981,1798,1856
2002,1734,1744
2041,1512,1658
2000,1627,1776
1959,1680,1803
2001,1575,1712
2032,1563,1685
2027,1684,1819
1995,1775,1840
1998,1664,1694
2065,1671,1663
2009,1648,1776
1958,1658,1840
1998,1616,1718
2057,1572,1692
2021,1590,1808
1995,1826,1847
1999,1645,1706
2037,1637,1680
2032,1727,1790
1999,1801,1859
2018,1562,1742
2113,1730,1718
2021,1701,1744
1967,1569,1770
1995,1600,1715
2085,1648,1716
2085,1869,1823
2027,1747,1833
2006,1623,1695
2037,1567,1699
2031,1591,1819
2006,1723,1844
2054,1654,1724
2106,1691,1701
2053,1749,1779
1986,1733,1829
2007,1621,1703
2062,1648,1681
2067,1815,1812
2017,1711,1840
2031,1596,1714
2080,1647,1702
2055,1674,1829
2023,1729,1858
2043,1649,1696
2068,1664,1673
2041,1727,1802
2014,1714,1851
2062,1674,1744
2066,1699,1688
2032,1711,1792
1994,1679,1842
2026,1605,1731
2099,1690,1724
2079,1767,1829
2029,1769,1843
2038,1712,1713
2071,1730,1694
2077,1771,1813
2014,1715,1847
2032,1631,1755
2087,1675,1707
2064,1744,1776
2004,1617,1857
2036,1746,1763
2105,1744,1735
2080,1769,1818
2015,1742,1840
2015,1567,1706
2059,1675,1677
2054,1771,1813
2006,1771,1853
2037,1648,1722
2082,1661,1696
2083,1775,1830
2029,1720,1872
2032,1699,1733
2096,1744,1712
2065,1870,1823
2000,1728,1873
2023,1597,1754
2069,1676,1725
2047,1738,1833
2013,1792,1867
2021,1689,1719
2070,1667,1696
2046,1682,1818
2023,1719,1885
2055,1672,1769
2091,1792,1712
2061,1827,1810
2014,1681,1843
2058,1664,1760
2090,1654,1712
2058,1767,1808
2006,1837,1856
2055,1750,1760
2077,1680,1701
2058,1734,1825
2020,1808,1872
2016,1689,1736
2086,1659,1717
2074,1798,1844
1991,1795,1856
2011,1643,1727
2091,1712,1712
2087,1829,1840
2018,1752,1851
2029,1626,1744
2083,1680,1725
2053,1780,1838
2031,1789,1860
2045,1706,1735
2064,1739,1710
2028,1873,1833
1983,1686,1885
2022,1659,1787
2085,1749,1734
2083,1903,1871
2002,1653,1845
1974,1561,1723
2074,1802,1771
2096,1975,1826
1979,1667,1831
1989,1695,1725
2066,1743,1682
2038,1744,1875
1981,1685,1915
2003,1811,1774
2045,1729,1700
2067,1709,1831
1977,1677,1860
1995,1669,1778
2043,1721,1712
2033,1930,1821
1988,1815,1854
1971,1620,1730
2026,1638,1731
2007,1791,1809
1937,1680,1819
2000,1661,1776
2047,1703,1745
2014,1754,1825
1969,1813,1854
1994,1727,1757
2022,1661,1710
2001,1821,1840
1982,1753,1868
1984,1642,1738
2032,1722,1719
2012,1852,1863
1936,1747,1839
1991,1635,1715
2062,1709,1739
2001,1747,1837
1936,1670,1876
1957,1595,1744
2029,1709,1712
2032,1892,1847
1981,1903,1907
1968,1697,1773
2023,1659,1717
1993,1707,1822
1963,1744,1879
1987,1735,1775
2010,1621,1696
1997,1704,1823
1977,1897,1903
1983,1710,1747
2000,1501,1712
2001,1648,1826
1981,1873,1875
1975,1657,1757
1994,1616,1743
1986,1763,1855
1975,1726,1918
2016,1776,1827
2010,1774,1730
1973,1671,1819
1923,1712,1882
1963,1727,1785
2033,1814,1770
2005,1831,1840
1942,1648,1850
1979,1680,1808
2005,1619,1726
1985,1666,1829
1961,1799,1919
2003,1826,1821
1989,1647,1730
1951,1690,1814
1969,1791,1883
1969,1769,1790
2000,1664,1731
1982,1648,1840
1950,1747,1925
1977,1808,1787
2009,1790,1775
1979,1678,1872
1936,1725,1917
2000,1845,1840
2032,1707,1737
1954,1711,1835
1898,1691,1889
1943,1629,1807
1993,1664,1784
1989,1921,1886
1961,1869,1902
1921,1595,1755
1984,1701,1744
1993,1850,1870
1936,1780,1914
1933,1661,1801
1982,1683,1769
1972,1741,1902
1945,2003,1955
1953,1861,1804
1966,1589,1694
1949,1648,1845
1923,1735,1920
1983,1755,1791
1968,1741,1754
1941,1746,1879
1918,1782,1915
1926,1739,1776
2000,1859,1753
1970,1869,1845
1888,1723,1869
1899,1655,1823
1985,1791,1781
1973,1872,1918
1904,1774,1894
1920,1680,1794
1947,1695,1741
1932,1792,1872
1936,1811,1969
1959,1798,1813
1936,1714,1685
1921,1837,1840
1920,1809,1982
1936,1922,1834
1962,1876,1744
1959,1831,1862
1903,1750,1901
1881,1643,1804
1934,1683,1782
1943,1753,1907
1917,1809,1937
1981,2055,1872
1967,1827,1763
1957,1780,1839
1873,1749,1851
1889,1690,1799
1953,1762,1813
1942,1803,1898
1920,2059,1967
1923,1933,1844
1940,1600,1741
1925,1914,1885
1886,1872,1938
1914,1691,1822
1933,1746,1779
1926,1924,1918
1894,1906,1876
1931,1707,1818
1933,1712,1745
1923,1870,1887
1871,1840,1965
1898,1778,1837
1943,1695,1749
1922,1811,1872
1887,1900,1882
1904,1853,1849
1936,1867,1778
1931,1805,1866
1892,1982,1909
1904,1845,1847
1949,1779,1809
1928,1799,1905
1858,1812,1990
1889,1783,1845
1927,1710,1775
1909,1946,1861
1885,1983,1906
1879,1778,1829
1904,1712,1740
1918,2019,1914
1879,1845,1930
1885,1699,1799
1953,1836,1788
1927,1840,1936
1847,1831,1917
1905,1827,1772
1955,1920,1847
1886,1904,1933
1819,1825,1951
1853,1664,1797
1942,1851,1792
1919,1953,1906
1840,1779,1904
1872,1837,1808
1966,1938,1838
1947,2127,1953
1830,1690,1876
1858,1629,1782
1945,1748,1775
1913,1859,1903
1869,1995,2001
1904,1814,1818
1937,1811,1748
1886,1951,1919
1811,1869,1967
1879,1814,1824
1910,1794,1787
1872,1793,1914
1840,1863,1967
1886,1885,1869
1923,1872,1805
1918,1951,1949
1855,1808,1968
1862,1757,1819
1904,1838,1792
1904,1853,1906
1872,2142,1966
1869,1861,1850
1891,1648,1732
1870,1777,1872
1841,1892,1968
1904,1827,1943
1919,1917,1823
1863,1849,1895
1859,1903,1893
1924,1941,1808
1911,1835,1798
1846,1870,1966
1794,1722,1953
1830,1745,1814
1913,1883,1840
1920,1877,1825
1837,1895,1883
1843,1973,1865
1894,1951,1826
1872,1807,1904
1821,1747,1905
1872,1745,1808
1935,1917,1831
1892,1904,2000
1827,1872,1979
1825,1871,1797
1886,1744,1754
1889,1849,1907
1866,1875,1975
1962,1941,1852
1915,2095,1797
1809,1773,1904
1782,1741,1939
1840,1856,1886
1889,1771,1826
1868,1886,1883
1825,1901,1962
1915,1918,1873
1904,1879,1810
1859,1995,1921
1818,1917,2013
1839,1727,1845
1877,1733,1776
1861,1867,1926
1823,1922,1955
1861,1904,1856
1950,1935,1817
1886,1870,1938
1826,1841,1950
1854,1921,1851
1885,1933,1734
1862,1814,1879
1815,1760,1937
1843,1813,1893
1902,1993,1875
1877,1953,1951
1798,1807,1951
1840,1844,1878
1920,1934,1888
1872,1904,1918
1808,1857,1977
1857,1831,1858
1932,1783,1742
1859,1876,1872
1802,1930,1987
1859,1968,1904
1919,1920,1795
1854,1831,1884
1839,1837,1959
1846,1753,1840
1872,1853,1804
1871,1957,1935
1822,1957,1974
1845,1899,1854
1901,1807,1821
1868,1845,1879
1835,1902,1914
1897,1856,1840
1919,1887,1840
1886,2039,1946
1807,1790,1934
1813,1776,1854
1844,1785,1805
1869,1936,1930
1846,2004,2007
1867,1957,1869
1873,1806,1776
1861,1839,1901
1810,1920,1927
1840,1765,1837
1906,1793,1799
1919,2130,1981
1851,1962,1936
1843,1759,1795
1871,1705,1814
1818,1869,1984
1786,1965,2000
1817,1914,1829
1875,1810,1779
1904,1822,1900
1887,1925,1975
1795,1891,1842
1897,1824,1819
1875,1918,1943
1847,1943,1950
1868,1872,1824
1897,1819,1776
1813,1857,1921
1814,1949,1968
1917,1879,1863
1825,1801,1774
1840,1865,1875
1808,1927,1953
1840,1872,1840
1869,1778,1791
1877,2010,1909
1844,2034,1975
1845,1815,1893
1878,1774,1787
1883,1936,1886
1843,2002,1973
1853,1807,1850
1872,1717,1801
1857,1949,1904
1808,2037,1957
1827,1819,1839
1936,1840,1773
1919,1867,1882
1741,1902,2000
1791,1885,1901
1856,1856,1815
1861,1840,1888
1830,1964,1950
1855,1879,1875
1904,1971,1808
1847,1865,1870
1777,1811,1933
1810,1904,1855
1890,1917,1808
1872,1870,1920
1822,1824,1968
1843,1875,1858
1903,1825,1771
1893,1927,1905
1791,1948,1978
1834,1859,1842
1858,1808,1785
1968,1904,1821
1779,1913,1938
1819,1881,1879
1869,1923,1871
1859,1903,1958
1840,1866,1953
1845,1886,1822
1900,1953,1842
1904,1860,1918
1779,1825,1936
1879,1886,1840
1894,1904,1791
1886,1922,1919
1830,1923,1978
1879,1869,1825
1905,1854,1774
1878,1974,1968
1856,1885,1983
1849,1797,1833
1891,1872,1810
1863,1920,1895
1812,1931,1940
1872,1959,1817
1911,1817,1847
1873,1790,1942
1819,1879,1989
1840,1915,1849
1904,1835,1801
1978,1931,1879
1843,2047,1969
1783,1837,1901
1842,1782,1836
1843,1817,1902
1855,2000,1927
1833,1898,1830
1891,1738,1797
1885,1919,1940
1904,2077,1968
1827,1869,1838
1872,1765,1790
1854,1825,1906
1863,1953,1966
1885,2109,1856
1876,1757,1792
1839,1773,1914
1805,1778,1958
1836,1824,1840
1942,1927,1781
1975,1968,1902
1808,2064,1967
1738,1792,1856
1825,1733,1812
1840,1845,1882
1849,1927,1967
1850,1849,1856
1872,1871,1811
1909,1917,1921
1847,1869,1942
1782,1861,1833
1856,1871,1795
1819,1839,1883
1837,1969,1984
1814,1841,1861
1866,1794,1769
1851,1825,1861
1782,1887,1919
1792,1851,1819
1885,1823,1790
1879,1930,1936
1835,2067,1925
1772,1749,1805
1863,1728,1791
1846,1835,1950
1776,1889,1945
1789,1874,1840
1836,1792,1778
1869,1872,1894
1805,1891,1946
1840,1922,1872
1869,1904,1809
1838,1787,1842
1790,1818,1959
1836,1837,1854
1862,1831,1777
1852,1892,1874
1813,1923,1957
1868,1919,1856
1883,1840,1774
1808,1788,1874
1776,1818,1957
1853,1815,1813
1882,2004,1799
1807,1919,1856
1782,1850,1885
1811,1809,1803
1857,1824,1809
1920,1899,1905
1862,1890,1937
1837,1852,1793
1931,1839,1744
1875,1926,1840
1808,1975,1891
1808,1834,1878
1849,1808,1821
1854,1890,1874
1789,1968,1917
1821,1953,1826
1871,2033,1798
1837,1855,1794
1774,1807,1903
1787,1793,1799
1861,1821,1786
1842,1988,1882
1792,1959,1936
1810,1886,1822
1847,1900,1741
1829,2026,1819
1782,1943,1919
1809,1936,1856
1840,1904,1777
1794,1869,1830
1763,1907,1875
1778,1934,1782
1845,2027,1789
1843,2080,1882
1766,2000,1920
1773,1904,1818
1829,1919,1758
1808,1986,1859
1773,2025,1904
1782,2014,1807
1829,1974,1747
1808,1946,1850
1757,2064,1907
1763,1951,1751
1826,1936,1745
1828,2034,1911
1776,2070,1930
1787,1970,1799
1825,1941,1755
1823,2096,1872
1774,2051,1894
1775,1905,1786
1803,1772,1737
1791,1919,1857
1767,2032,1935
1796,1983,1822
1843,1988,1708
1808,1968,1840
1771,2026,1936
1790,1894,1859
1833,1967,1781
1795,1894,1826
1750,1872,1888
1794,1909,1819
1855,2045,1739
1827,1971,1849
1748,1909,1883
1776,1856,1837
1839,1861,1790
1825,1904,1842
1794,1990,1936
1803,1989,1825
1828,1836,1664
1814,2001,1831
1783,1973,1968
1787,1794,1837
1829,1776,1741
1815,1887,1818
1781,1964,1904
1803,1904,1786
1834,1919,1695
