969,1910,1889
1046,1965,1744
941,1894,1797
867,1968,1968
902,1990,1964
882,1907,1779
863,1919,1826
751,1967,1949
779,1937,1920
869,1991,1796
851,1875,1791
764,1819,1939
722,1915,1907
766,1965,1778
802,1927,1845
757,1989,1891
722,1869,1895
735,1845,1787
791,1953,1889
724,1801,1922
687,1975,1925
672,1952,1712
606,1821,1791
573,1865,1937
558,1808,1937
645,1808,1824
677,1994,1874
645,1958,1968
635,1994,1862
656,1707,1695
682,1806,1847
785,1968,2138
771,2030,2022
689,1917,1744
592,1791,1711
566,1778,1865
576,1806,1847
643,1744,1792
755,1837,1978
696,1839,1847
590,1769,1731
662,1800,1808
779,2046,1905
686,1886,1931
631,1616,1867
728,1772,1763
725,1810,1826
721,1840,1955
749,1830,1888
771,1754,1783
841,1929,1904
768,1840,1950
784,1763,1874
842,1856,1740
842,1815,1830
743,1773,1947
816,1757,1872
853,1749,1781
915,1755,1895
878,1874,1971
821,1973,1875
956,1658,1703
906,1682,1807
834,1791,1937
896,1744,1909
1002,1769,1842
973,1888,1855
959,1892,1925
917,1817,1872
1037,1731,1773
1053,1699,1856
971,1798,1998
883,1808,1875
896,1767,1786
817,1840,1824
641,1756,1872
622,1840,1845
667,1804,1797
667,1787,1877
627,1853,1954
643,1857,1879
661,1792,1776
597,1743,1840
486,1751,1952
524,1805,1919
705,1746,1799
720,1840,1830
580,1897,1911
608,1831,1865
656,1744,1805
727,1938,1857
624,1814,1962
654,1836,1885
675,1775,1778
690,1748,1889
681,1781,1936
687,1791,1847
736,1819,1749
736,1866,1854
741,1904,1982
775,1870,1856
783,1767,1738
789,1743,1901
746,1876,1989
791,1805,1846
898,1674,1791
818,1819,1846
880,1902,1883
821,1849,1842
918,1694,1744
912,1796,1873
957,1910,2003
848,1842,1873
853,1763,1777
935,1856,1903
897,1858,1885
883,1763,1823
1066,1720,1778
1082,1906,1923
1040,1915,1943
974,1776,1809
1056,1888,1728
1139,1908,1883
1056,1831,1941
987,1709,1825
1054,1757,1767
1165,1907,1913
1159,2091,1936
923,1744,1792
1110,1732,1775
1175,1859,1877
1154,1799,1936
1165,1793,1841
1202,1788,1742
1235,1953,1862
1270,1907,1927
1230,1879,1831
1207,1747,1775
1279,1749,1867
1297,1909,1943
1273,1893,1867
1222,1808,1743
1359,1810,1845
1344,2023,1989
1327,1810,1833
1373,1732,1687
1365,1901,1824
1275,1872,1975
1286,1872,1856
1445,1890,1738
1442,1938,1840
1403,2042,1965
1409,1878,1825
1483,1810,1741
1424,1885,1823
1397,2025,1922
1456,2058,1895
1507,1875,1796
1523,1924,1802
1463,2051,1885
1452,2001,1842
1554,1998,1810
1593,2201,1894
1499,1943,1959
1477,1854,1807
1557,1981,1703
1584,2002,1834
1569,2023,1943
1598,2017,1881
1616,1938,1747
1610,1936,1824
1590,2064,1968
1615,2161,1852
1657,1921,1727
1660,1904,1779
1597,1980,1915
1608,2005,1909
1680,1898,1783
1695,1966,1834
1682,2106,1954
1685,2069,1867
1711,1881,1731
1725,1950,1794
1745,2043,1956
1719,1967,1898
1762,1907,1770
1727,2030,1792
1683,2019,1904
1693,1887,1838
1790,1969,1788
1814,1966,1814
1761,1942,1904
1735,1951,1858
1776,1889,1781
1810,1972,1870
1779,1974,1913
1767,1941,1837
1852,1967,1776
1872,1907,1850
1814,1918,1926
1823,2009,1886
1841,1904,1739
1883,1898,1785
1813,2017,1947
1845,1942,1897
1895,1809,1747
1879,1815,1815
1828,1957,1936
1846,1941,1865
1909,1830,1790
1915,1958,1855
1867,2002,1918
1863,1853,1811
1936,1837,1744
1957,1905,1869
1929,1989,1948
1889,1900,1838
1939,1780,1753
2022,1824,1841
1981,2011,1858
1872,1840,1856
1918,1795,1799
1968,1867,1858
1968,1979,1933
1925,1879,1839
1968,1831,1725
1967,1808,1815
1940,1856,1927
1957,1791,1854
2036,1797,1761
2032,1931,1840
1938,1974,1909
1943,1862,1862
1995,1727,1763
2019,1808,1829
1987,1884,1934
1984,1845,1833
2038,1851,1744
2034,1822,1819
1979,1793,1898
2007,1786,1840
2083,1919,1819
2047,1962,1843
1947,1758,1878
1969,1717,1829
2055,1787,1762
2059,1813,1802
2017,1921,1917
2032,1865,1843
2075,1745,1742
2077,1776,1813
2030,1850,1929
2037,1743,1878
2160,1968,1813
2097,1978,1807
1939,1717,1855
1979,1691,1838
2079,1781,1773
2117,1798,1862
2100,1842,1973
2042,1761,1808
2071,1771,1723
2080,1910,1839
2035,1846,1934
2063,1853,1841
2109,1726,1737
2159,1813,1826
2045,1826,1899
2034,1744,1840
2075,1727,1737
2101,1794,1820
2086,1871,1950
2079,1777,1856
2105,1808,1723
2128,1835,1825
2090,1889,1961
2081,1765,1828
2111,1679,1714
2090,1758,1817
2066,1849,1934
2061,1757,1847
2132,1776,1765
2160,1902,1850
2111,1796,1920
2082,1755,1831
2091,1743,1708
2114,1787,1818
2064,1897,1941
2066,1803,1870
2121,1726,1749
2135,1786,1807
2091,1808,1895
2081,1750,1846
2112,1787,1776
2125,1758,1826
2093,1888,1908
2075,1793,1815
2145,1804,1745
2169,1799,1854
2103,1759,1871
2091,1759,1796
2148,1777,1771
2161,1825,1845
2069,1799,1891
2062,1776,1858
2143,1778,1811
2167,1843,1857
2082,1837,1901
2043,1827,1808
2122,1717,1729
2141,1746,1825
2141,1876,1942
2096,1856,1863
2145,1742,1738
2128,1714,1808
2089,1781,1887
2064,1797,1825
2134,1790,1733
2155,1834,1874
2079,1847,1958
2071,1843,1840
2131,1590,1743
2132,1761,1791
2131,1839,1915
2079,1840,1840
2122,1815,1744
2133,1867,1827
2099,1951,1899
2087,1750,1829
2107,1745,1707
2128,1765,1797
2077,1808,1925
2065,1781,1893
2142,1808,1745
2163,1903,1823
2045,1866,1891
2042,1749,1836
2128,1844,1776
2160,1865,1845
2092,1758,1908
2080,1749,1824
2111,1680,1737
2119,1808,1796
2087,1888,1920
2122,1860,1857
2158,1751,1755
2129,1797,1862
2062,1930,1904
2079,1818,1803
2092,1785,1736
2099,1754,1825
2090,1759,1930
2054,1792,1857
2099,1776,1744
2131,1815,1797
2112,1854,1927
2089,1903,1889
2131,1877,1773
2114,1776,1786
2047,1807,1899
2054,1827,1846
2103,1722,1763
2112,1805,1825
2084,1895,1949
2090,1783,1872
2124,1823,1713
2105,1901,1804
2067,1895,1952
2083,1910,1863
2098,1788,1706
2085,1655,1794
2032,1755,1908
2036,1814,1847
2138,1859,1761
2112,1926,1807
2026,1826,1876
2030,1787,1813
2094,1775,1744
2121,1805,1814
2046,1840,1904
2018,1840,1857
2096,1806,1803
2160,1950,1851
2059,1831,1839
1984,1733,1807
2064,1711,1776
2084,1830,1839
2039,1913,1929
2039,1847,1859
2091,1863,1745
2111,1849,1813
2059,1839,1893
2059,1907,1842
2061,1766,1746
2047,1662,1811
2016,1790,1873
2032,1851,1872
2087,1775,1775
2092,1851,1817
2093,1902,1929
2015,1909,1872
2054,1856,1776
2041,1646,1744
1995,1805,1874
1986,1773,1869
2071,1807,1776
2078,1861,1835
2001,1872,1904
2005,1805,1851
2053,1822,1742
2042,1811,1825
2064,1945,1969
2077,1955,1856
2035,1783,1741
2011,1776,1833
1968,1793,1929
1969,1843,1850
2029,1750,1744
2047,1774,1814
2000,1822,1907
1994,1777,1839
2085,1760,1727
2066,1877,1797
2033,2009,1920
1969,1925,1863
1997,1810,1763
2035,1808,1836
1982,1922,1942
1995,1882,1856
2000,1758,1744
2029,1887,1826
1983,1911,1921
1981,1839,1871
2047,1822,1745
2035,1843,1821
1963,1835,1919
1958,1829,1885
2035,1718,1766
2030,1812,1809
1975,1927,1919
1979,1840,1864
2043,1778,1729
1975,1774,1818
1947,1892,1937
1987,1898,1895
2036,1872,1759
1989,1828,1821
1950,1958,1956
1962,1891,1889
2026,1760,1791
2029,1819,1819
2012,1837,1940
1970,1936,1885
1990,1858,1777
1995,1841,1799
1956,1851,1926
1936,1824,1870
2016,1877,1807
2039,1839,1819
1979,1821,1904
1957,1922,1867
1986,1808,1743
1983,1809,1829
1936,1920,1920
1946,1830,1866
2003,1886,1777
2019,1893,1829
1995,1846,1941
1969,1986,1899
2007,1820,1744
1957,1758,1818
1910,1894,1938
1947,1859,1863
1984,1785,1734
1984,1831,1815
1949,1856,1910
1953,1843,1811
1962,1856,1789
1985,1904,1891
1942,1791,1915
1931,1777,1840
1969,1821,1779
2003,1894,1841
1933,1929,1930
1917,1843,1856
1961,1725,1751
1969,1871,1822
1918,1890,1911
1910,1830,1863
1965,1773,1742
1985,1908,1821
1937,1903,1931
1921,1827,1840
1973,1838,1776
1977,1866,1821
1925,1854,1922
1923,1814,1879
1955,1808,1770
1968,1853,1813
1898,1919,1927
1901,1840,1860
1959,1721,1778
1979,1809,1837
1926,1986,1920
1901,2003,1863
1925,1729,1730
1939,1726,1801
1907,1871,1935
1914,1902,1890
1979,1826,1777
1979,1827,1805
1917,1931,1918
1886,1806,1872
1922,1713,1770
1941,1831,1840
1904,1937,1935
1899,1920,1876
1941,1776,1779
1985,1881,1828
1911,1886,1909
1887,1825,1843
1903,1825,1776
1916,1814,1837
1871,1821,1922
1878,1770,1871
1933,1825,1775
1963,1921,1826
1918,1899,1903
1911,1857,1889
1938,1847,1773
1872,1808,1820
1842,1833,1910
1872,1840,1887
1946,1808,1797
1939,1807,1827
1882,1856,1904
1872,1862,1865
1936,1749,1759
1937,1840,1838
1874,1962,1941
1854,1808,1863
1925,1735,1765
1940,1862,1835
1903,1936,1952
1871,1871,1844
1936,1779,1724
1942,1845,1841
1840,1871,1967
1831,1790,1893
1894,1722,1774
1935,1853,1836
1902,1967,1959
1867,1872,1846
1904,1766,1716
1936,1904,1823
1886,1885,1925
1840,1833,1862
1910,1767,1779
1949,1859,1853
1876,1842,1907
1858,1798,1841
1904,1708,1756
1914,1872,1858
1869,1911,1947
1861,1815,1863
1904,1759,1750
1938,1855,1823
1899,1951,1935
1872,1873,1904
1885,1840,1750
1883,1811,1807
1906,1863,1908
1882,1840,1870
1872,1773,1741
1901,1858,1830
1882,1965,1951
1840,1798,1887
1882,1711,1776
1907,1806,1803
1887,2067,1937
1867,1840,1857
1919,1714,1728
1914,1822,1776
1870,1890,1917
1831,1863,1866
1882,1787,1761
1917,1799,1825
1882,1886,1922
1872,1865,1855
1942,1797,1757
1930,1872,1840
1847,1933,1937
1837,1887,1901
1913,1809,1786
1918,1715,1815
1853,1949,1900
1827,1941,1867
1878,1798,1773
1913,1790,1805
1868,1827,1911
1847,1806,1887
1923,1886,1789
1911,1927,1840
1839,1872,1882
1857,1749,1856
1886,1818,1787
1898,1808,1811
1840,1883,1910
1822,1872,1873
1883,1867,1802
1926,1867,1860
1861,1802,1872
1803,1770,1817
1875,1805,1728
1874,1883,1821
1841,1859,1942
1831,1904,1886
1890,1779,1763
1901,1868,1798
1837,1887,1898
1826,1827,1851
1888,1767,1793
1902,1919,1830
1831,1859,1915
1817,1742,1833
1878,1872,1742
1925,1853,1829
1829,1923,1842
1785,1814,1903
1850,1762,1734
1883,1853,1775
1853,1887,1903
1855,1799,1847
1873,1762,1766
1882,1846,1833
1840,1890,1914
1826,1867,1868
1875,1882,1735
1872,1829,1792
1834,1809,1936
1827,1902,1904
1888,1807,1783
1879,1910,1825
1812,1851,1871
1791,1824,1851
1849,1801,1743
1895,1872,1806
1827,1915,1879
1803,1859,1872
1882,1825,1771
1938,1950,1859
1851,1828,1929
1792,1746,1851
1858,1760,1795
1890,1851,1814
1843,1935,1904
1794,1899,1858
1830,1775,1744
1870,1852,1828
1843,1911,1942
1831,1834,1890
1872,1847,1754
1873,1857,1828
1824,1867,1893
1807,1841,1859
1850,1749,1731
1890,1797,1802
1862,1943,1905
1821,1874,1861
1862,1851,1775
1897,1854,1809
1863,1847,1934
1831,1866,1877
1867,1823,1743
1979,1858,1814
1867,1981,1963
1747,1774,1883
1815,1746,1735
1884,1840,1829
1854,1935,1952
1812,1867,1859
1862,1846,1741
1902,1840,1846
1841,1808,1983
1817,1861,1897
1869,1829,1793
1902,1888,1731
1834,1881,1910
1821,1915,1875
1871,1779,1731
1883,1839,1783
1846,2001,1911
1821,1855,1840
1865,1682,1734
1903,1771,1776
1872,1893,1903
1840,1901,1820
1857,1905,1771
1826,1840,1792
1825,1843,1910
1825,1862,1872
1856,1836,1728
1891,1875,1808
1829,1936,1963
1804,1813,1872
1861,1769,1774
1873,1829,1798
1831,1909,1886
1820,1865,1874
1854,1818,1766
1897,1869,1799
1858,2037,1919
1825,1877,1818
1851,1703,1742
1887,1767,1780
1832,1847,1823
1799,1877,1809
1856,1794,1811
1879,1801,1785
1853,1878,1936
1838,1966,1931
1851,1957,1797
1843,1806,1708
1782,1754,1770
1808,1778,1838
1899,1841,1758
1870,1856,1800
1809,1904,1925
1809,1807,1872
1845,1789,1745
1900,1837,1789
1861,1952,1894
1808,1896,1921
1814,1833,1750
1850,1823,1749
1823,1824,1872
1812,1827,1878
1858,1801,1738
1909,1929,1787
1814,1853,1869
1765,1793,1777
1838,1792,1751
1890,1791,1822
1830,1888,1949
1793,1808,1875
1842,1780,1708
1866,1806,1776
1809,1890,1904
1797,1844,1883
1840,1701,1694
1874,1834,1773
1813,1910,1861
1776,1874,1839
1823,1779,1727
1901,1845,1776
1817,1811,1901
1776,1856,1860
1805,1745,1742
1833,1777,1714
1787,1792,1837
1785,1798,1838
1843,1779,1742
1864,1818,1760
1807,1885,1868
1792,1823,1873
1834,1779,1691
1830,1821,1728
1781,1777,1898
1772,1715,1840
1847,1893,1716
1842,1807,1741
1745,1740,1770
1729,1707,1783
1805,1729,1681
1839,1778,1739
1859,1827,1881
1803,1933,1795
1749,1710,1635
1774,1647,1712
1767,1792,1860
1760,1763,1840
1807,1753,1690
1852,1770,1714
1772,1873,1825
1756,1869,1840
1759,1642,1697
1772,1648,1683
1732,1737,1797
1734,1755,1685
1793,1769,1695
1819,1759,1717
1787,1804,1809
1750,1770,1744
1798,1730,1630
1808,1727,1719
1714,1734,1807
1683,1689,1753
1744,1627,1639
1818,1686,1707
1746,1856,1810
1717,1696,1734
1730,1631,1618
1796,1704,1665
1719,1733,1783
1705,1712,1726
1748,1616,1586
1777,1703,1616
1727,1712,1722
1719,1691,1729
1766,1600,1612
1802,1655,1634
1715,1682,1719
1665,1751,1715
1712,1581,1579
1762,1618,1618
1719,1765,1758
1671,1627,1661
1726,1535,1514
1760,1642,1616
1721,1668,1751
1758,1616,1675
1765,1535,1520
1723,1600,1558
1675,1709,1723
1657,1635,1681
1703,1584,1535
1727,1584,1569
1690,1648,1718
1645,1662,1669
1727,1553,1523
1770,1607,1575
1661,1696,1700
1726,1568,1615
1691,1466,1517
1761,1582,1561
1714,1664,1696
1712,1621,1662
1728,1535,1521
1760,1515,1519
1680,1663,1671
1666,1584,1631
1709,1461,1486
1734,1507,1535
1708,1603,1648
1682,1511,1623
1735,1554,1535
1690,1594,1530
1701,1587,1671
1724,1668,1648
1759,1503,1502
1766,1557,1535
1695,1463,1633
1685,1393,1610
1713,1422,1477
1715,1566,1516
1728,1584,1658
1714,1535,1630
1795,1466,1484
1759,1503,1519
1728,1643,1680
1703,1520,1611
1738,1425,1478
1771,1463,1535
1810,1668,1691
1759,1519,1557
1742,1425,1450
1754,1488,1535
1728,1495,1648
1731,1514,1606
1759,1471,1482
1826,1497,1520
1797,1619,1669
1782,1501,1598
1819,1393,1457
1845,1472,1517
1728,1557,1645
1754,1457,1605
1842,1392,1487
1876,1523,1525
1788,1573,1647
1792,1497,1616
1810,1402,1488
1785,1498,1517
1813,1508,1632
1776,1421,1622
1853,1409,1472
1841,1446,1511
1821,1524,1616
1799,1491,1609
1842,1417,1511
1844,1439,1518
1841,1509,1625
1807,1562,1617
1815,1522,1451
1840,1349,1494
1829,1408,1642
1826,1424,1619
1903,1411,1506
1877,1519,1507
1803,1462,1620
1809,1442,1597
1865,1394,1509
1884,1367,1535
1870,1527,1649
1857,1522,1578
1871,1450,1495
1872,1401,1531
1769,1458,1601
1863,1456,1567
1937,1391,1533
1931,1456,1498
1946,1438,1586
1840,1415,1610
1889,1422,1499
1917,1555,1554
1782,1488,1626
1779,1359,1535
1889,1346,1458
1953,1443,1523
1901,1535,1691
1867,1453,1627
1912,1317,1449
1947,1367,1502
1873,1489,1669
1845,1523,1634
1889,1505,1488
1945,1337,1520
1910,1460,1655
1869,1453,1609
1936,1322,1454
1966,1351,1487
1932,1439,1616
1872,1458,1603
1889,1422,1489
1919,1450,1555
1938,1475,1667
1874,1408,1603
1869,1348,1465
1984,1344,1527
1932,1455,1667
1927,1520,1641
1911,1379,1494
1939,1379,1513
1855,1430,1638
1887,1430,1616
1931,1415,1505
1939,1372,1553
1946,1447,1630
1911,1481,1618
1933,1392,1521
1936,1353,1527
1966,1430,1650
1913,1456,1630
1927,1339,1492
1966,1426,1495
1929,1396,1614
1904,1451,1633
1952,1472,1563
1943,1338,1557
1937,1419,1653
1911,1463,1586
1967,1402,1441
1953,1434,1554
1893,1392,1703
1897,1401,1622
1894,1364,1482
1965,1388,1522
1886,1406,1621
1909,1424,1631
1923,1435,1495
2000,1473,1587
2018,1456,1665
1874,1403,1616
1930,1335,1479
1962,1409,1527
1942,1462,1675
1910,1423,1635
1849,1349,1533
1951,1377,1535
1921,1481,1637
1907,1415,1655
1965,1341,1527
1995,1329,1563
1954,1535,1680
1895,1474,1635
1939,1360,1520
1990,1358,1559
1927,1493,1676
1894,1483,1652
1951,1364,1522
2000,1482,1555
1975,1486,1687
1930,1392,1664
1963,1275,1527
1954,1430,1535
1923,1584,1701
1903,1562,1698
1963,1387,1535
1999,1360,1535
1973,1456,1685
1910,1451,1648
1942,1386,1569
2027,1426,1615
1997,1523,1717
1922,1535,1648
1922,1467,1522
1975,1377,1599
1951,1457,1726
1968,1531,1738
1968,1495,1571
1939,1364,1535
1930,1448,1712
1937,1513,1718
1980,1502,1611
1986,1510,1617
1936,1474,1699
1926,1461,1666
2001,1465,1567
1983,1472,1638
1950,1557,1778
1911,1521,1689
1967,1478,1567
2001,1457,1634
1949,1599,1749
1925,1529,1712
2000,1413,1599
1993,1563,1648
1921,1525,1744
1909,1462,1751
1978,1475,1607
1983,1467,1623
1934,1525,1753
1941,1535,1758
1987,1535,1649
2017,1467,1641
1943,1606,1765
1913,1580,1776
1929,1435,1627
1952,1444,1632
1931,1535,1775
1937,1584,1791
1994,1520,1680
1984,1535,1709
1942,1614,1818
1911,1523,1806
1959,1520,1706
1984,1519,1744
1940,1593,1846
1902,1578,1831
1958,1479,1723
2004,1573,1745
1969,1619,1859
1901,1571,1856
1947,1485,1746
1986,1535,1791
1929,1660,1916
1907,1679,1935
1963,1471,1819
2000,1561,1808
1931,1584,1917
1918,1577,1934
1959,1511,1846
1986,1577,1851
1938,1773,2016
1920,1653,2016
1921,1456,1905
1968,1535,1939
1927,1623,2064
1904,1603,2080
1942,1513,1989
1984,1608,2046
1961,1741,2176
1918,1643,2160
1941,1535,2046
1996,1595,2098
1957,1626,2238
1935,1680,2283
1966,1567,2176
1995,1555,2191
1988,1660,2327
1911,1622,2354
1978,1486,2268
2032,1732,2302
1958,1744,2481
1911,1610,2449
1981,1596,2363
2023,1650,2418
1968,1614,2544
1956,1583,2559
1983,1597,2471
2038,1638,2516
1991,1712,2711
1966,1693,2704
2000,1587,2594
2013,1620,2633
1980,1723,2761
1959,1727,2768
1989,1610,2647
2000,1626,2720
1970,1697,2907
1984,1618,2901
2011,1639,2745
1989,1680,2757
1962,1706,2890
1978,1775,2932
2001,1672,2818
1979,1565,2849
1949,1617,2948
1921,1633,2951
2000,1616,2832
1996,1763,2863
1968,1713,2994
1938,1648,2946
1979,1616,2851
2016,1695,2874
1946,1809,3025
1921,1713,3007
1957,1612,2868
1973,1689,2894
1947,1712,2993
1937,1689,2963
1980,1678,2845
1966,1714,2919
1896,1721,3008
1893,1665,2981
1945,1607,2851
1986,1741,2886
1952,1875,3025
1959,1811,3024
1945,1622,2827
1934,1579,2802
1904,1700,2991
1897,1759,3013
1935,1679,2817
1943,1697,2799
1923,1712,2974
1914,1755,2969
1948,1683,2812
1925,1749,2838
1891,1837,3008
1867,1724,2974
1904,1648,2797
1933,1667,2789
1897,1746,2957
1877,1765,2955
1920,1765,2843
1935,1674,2828
1865,1735,2976
1842,1777,2979
1894,1715,2805
1927,1729,2814
1902,1873,2981
1871,1730,2974
1917,1652,2836
1893,1661,2777
1829,1781,2930
1811,1728,2929
1866,1733,2765
1899,1708,2749
1858,1792,2880
1861,1873,2880
1887,1619,2717
1895,1648,2695
1839,1831,2863
1802,1738,2831
1838,1671,2647
1874,1775,2655
1858,1765,2789
1875,1774,2775
1878,1774,2623
1854,1729,2583
1823,1806,2672
1803,1787,2655
1851,1757,2559
1892,1752,2557
1883,1843,2688
1852,1810,2607
1842,1669,2465
1887,1682,2496
1856,1845,2603
1843,1858,2559
1860,1683,2411
1902,1744,2416
1881,1817,2512
1842,1776,2460
1869,1772,2370
1912,1751,2388
1853,1837,2467
1838,1741,2414
1904,1786,2288
1885,1776,2288
1820,1713,2377
1815,1740,2365
1874,1747,2229
1920,1829,2235
1884,1823,2359
1851,1853,2312
1898,1828,2162
1965,1840,2180
1901,1743,2253
1824,1705,2225
1873,1711,2103
1875,1844,2125
1906,1920,2230
1828,1710,2205
1855,1795,2089
1899,1823,2047
1872,1776,2163
1843,1817,2133
1888,1859,2002
1901,1786,1983
1858,1774,2096
1845,1856,2087
1926,1758,1968
1926,1736,1929
1851,1904,2071
1822,1911,2028
1853,1810,1888
1917,1807,1915
1901,1946,2043
1813,1808,1973
1809,1749,1821
1862,1790,1826
1850,1807,1951
1831,1760,1951
1854,1761,1786
1872,1828,1783
1842,2033,1915
1827,1903,1919
1835,1854,1778
1862,1724,1776
1872,1829,1867
1840,1859,1872
1823,1872,1778
1828,1783,1712
1814,1751,1795
1805,1792,1785
1853,1850,1722
1872,1803,1699
1805,1862,1771
1776,1808,1763
1829,1774,1663
1851,1830,1679
1805,1915,1763
1793,1843,1775
1814,1877,1634
1859,1792,1623
1808,1833,1743
1773,1856,1699
1803,1818,1600
1843,1851,1620
1808,1831,1708
1751,1794,1703
1775,1746,1558
1829,1855,1535
1819,1948,1677
1755,1803,1664
1779,1793,1525
1815,1758,1595
1789,1924,1705
1789,1831,1642
1776,1839,1498
1791,1840,1506
1770,1822,1648
1760,1817,1721
1771,1782,1649
1803,1869,1683
1779,1886,1799
1786,1867,1799
1759,1882,1697
1723,1790,1744
1715,1762,1915
1727,1811,1909
1774,1809,1755
1791,1821,1796
1736,1792,1919
1728,1838,1913
1771,1810,1776
1777,1839,1771
1737,1730,1915
1750,1900,1939
1762,1823,1711
1735,1736,1713
1685,1832,1869
1674,1777,1909
1755,1729,1767
1763,1773,1738
1723,1856,1849
1692,1917,1879
1712,1734,1705
1776,1830,1707
1744,1824,1863
1649,1839,1798
1686,1646,1650
1725,1686,1673
1698,1754,1813
1673,1757,1794
1719,1781,1678
1758,1751,1665
1673,1792,1775
1651,1795,1770
1695,1761,1632
1737,1806,1646
1717,1931,1792
1663,1758,1719
1690,1623,1533
1696,1695,1555
1660,1776,1718
1659,1765,1701
1680,1667,1562
1726,1754,1648
1680,1891,1714
1663,1786,1644
1725,1707,1492
1728,1856,1522
1645,1850,1703
1603,1671,1678
1656,1600,1533
1727,1674,1566
1678,1781,1648
1633,1761,1614
1647,1695,1467
1701,1745,1508
1674,1803,1648
1637,1826,1618
1685,1741,1481
1725,1783,1506
1664,1712,1592
1659,1624,1557
1662,1613,1456
1669,1682,1457
1621,1734,1587
1619,1709,1589
1685,1669,1454
1749,1744,1463
1680,1775,1589
1621,1827,1556
1681,1761,1463
1698,1535,1435
1648,1677,1523
1616,1691,1568
1664,1664,1430
1695,1616,1401
1641,1690,1529
1628,1717,1554
1678,1661,1441
1683,1683,1409
1646,1769,1505
1626,1743,1511
1653,1535,1401
1698,1631,1405
1681,1757,1520
1632,1681,1477
1662,1535,1355
1713,1591,1416
1677,1731,1534
1622,1700,1493
1666,1638,1348
1740,1712,1367
1710,1700,1507
1630,1682,1503
1616,1626,1365
1680,1658,1373
1659,1678,1456
1634,1689,1465
1664,1623,1351
1711,1585,1344
1678,1639,1482
1621,1677,1467
1675,1680,1363
1718,1676,1360
1678,1696,1461
1641,1701,1456
1695,1616,1341
1741,1696,1393
1727,1727,1524
1674,1621,1451
1621,1520,1298
1662,1589,1347
1679,1680,1507
1686,1663,1517
1697,1611,1327
1717,1734,1365
1671,1757,1502
1645,1565,1472
1669,1484,1306
1715,1637,1371
1678,1716,1487
1650,1602,1472
1706,1558,1370
1733,1581,1356
1702,1733,1483
1662,1695,1444
1743,1680,1375
1744,1638,1390
1662,1647,1488
1627,1667,1479
1699,1535,1330
1719,1606,1343
1680,1635,1489
1654,1636,1472
1680,1600,1366
1731,1629,1393
1695,1675,1495
1681,1687,1489
1722,1686,1390
1747,1573,1379
1705,1669,1510
1679,1621,1498
1683,1532,1354
1712,1612,1402
1729,1798,1529
1666,1642,1470
1681,1525,1367
1748,1641,1419
1725,1731,1554
1693,1638,1527
1727,1535,1366
1757,1621,1378
1701,1664,1535
1689,1678,1527
1717,1572,1365
1774,1591,1415
1759,1775,1602
1694,1715,1535
1691,1574,1389
1713,1509,1377
1725,1585,1535
1710,1650,1569
1767,1679,1424
1797,1652,1425
1699,1627,1570
1673,1683,1568
1744,1634,1431
1785,1680,1422
1728,1693,1582
1696,1638,1601
1765,1534,1471
1789,1579,1458
1744,1650,1535
1706,1653,1578
1739,1685,1449
1777,1654,1446
1758,1660,1580
1731,1617,1571
1756,1565,1457
1793,1617,1472
1757,1677,1600
1765,1837,1618
1789,1622,1444
1796,1502,1438
1745,1584,1619
1711,1729,1611
1744,1646,1472
1779,1598,1471
1774,1668,1616
1735,1680,1638
1777,1581,1475
1808,1634,1505
1783,1746,1683
1757,1709,1648
1776,1613,1535
1811,1615,1463
1751,1697,1566
1712,1613,1607
1755,1524,1530
1813,1567,1535
1795,1699,1706
1762,1763,1695
1787,1703,1510
1779,1522,1491
1757,1659,1650
1757,1681,1626
1771,1608,1520
1795,1658,1568
1781,1674,1744
1777,1722,1646
1798,1625,1473
1822,1623,1569
1774,1679,1706
1745,1680,1755
1775,1637,1587
1802,1665,1570
1776,1739,1683
1729,1642,1679
1766,1616,1585
1801,1584,1585
1771,1648,1670
1757,1712,1702
1808,1701,1610
1831,1618,1582
1806,1641,1703
1777,1666,1704
1762,1639,1489
1817,1683,1605
1777,1697,1769
1749,1637,1733
1799,1642,1591
1834,1680,1570
1791,1709,1701
1745,1691,1718
1778,1615,1594
1817,1647,1611
1776,1729,1745
1774,1781,1795
1801,1614,1647
1840,1655,1633
1809,1680,1691
1832,1702,1713
1796,1649,1648
1791,1646,1597
1787,1788,1801
1793,1758,1792
1829,1599,1694
1830,1570,1569
1808,1862,1793
1745,1648,1758
1791,1557,1615
1853,1605,1638
1819,1706,1761
1767,1744,1777
1808,1710,1626
1861,1723,1658
1815,1731,1807
1758,1678,1754
1792,1657,1664
1840,1641,1664
1779,1661,1764
1744,1651,1790
1805,1679,1712
1856,1616,1680
1841,1835,1799
1777,1721,1771
1815,1622,1616
1831,1653,1662
1764,1687,1825
1759,1681,1775
1808,1702,1671
1854,1691,1653
1840,1675,1821
1803,1708,1815
1834,1659,1808
1855,1712,1696
1778,1712,1821
1774,1794,1849
1825,1764,1697
1854,1680,1677
1834,1707,1795
1794,1783,1829
1814,1615,1718
1850,1645,1695
1813,1731,1787
1803,1685,1807
1808,1707,1723
1850,1730,1782
1814,1718,1830
1808,1745,1833
1837,1665,1719
1861,1674,1712
1803,1753,1852
1780,1750,1854
1859,1678,1733
1859,1692,1658
1807,1754,1807
1792,1808,1867
1840,1693,1710
1882,1616,1786
1829,1885,1838
1778,1778,1798
1818,1648,1720
1885,1709,1726
1871,1759,1853
1782,1650,1865
1819,1676,1759
1870,1743,1663
1797,1753,1840
1764,1767,1847
1834,1728,1776
1875,1747,1826
1836,1731,1867
1813,1750,1869
1833,1744,1807
1869,1666,1826
1835,1823,1886
1823,1825,1893
1842,1652,1739
1868,1670,1761
1817,1840,1904
1814,1823,1909
1870,1664,1815
1861,1712,1771
1819,1825,1870
1797,1859,1877
1826,1680,1758
1882,1695,1677
1841,1729,1899
1831,1793,1935
1840,1807,1781
1863,1750,1862
1850,1762,1929
1819,1753,1874
