2274,2017,2112
2256,2032,2157
2283,1963,2035
2325,1972,2000
2319,2032,2120
2291,2000,2156
2320,1946,2022
2380,1949,1979
2386,2001,2108
2367,2013,2139
2397,1957,2014
2459,1952,1979
2453,2022,2097
2418,2028,2113
2434,1951,1985
2495,1954,1939
2490,2018,2065
2447,2015,2103
2471,1952,1980
2521,1938,1937
2512,2032,2047
2480,2032,2096
2479,1942,1959
2531,1925,1913
2526,2015,2029
2491,2025,2087
2506,1963,1968
2554,1955,1919
2531,2029,2022
2491,2031,2054
2512,1951,1936
2559,1940,1901
2541,2020,2007
2491,2025,2038
2510,1947,1920
2554,1947,1872
2525,2059,1987
2497,2057,2047
2507,1952,1905
2540,1915,1869
2515,1979,1972
2475,2022,2000
2534,1945,1879
2631,1922,1836
2645,2016,1953
2626,2032,1989
2647,1950,1858
2711,1921,1822
2697,2011,1937
2659,2059,1975
2679,1965,1858
2725,1923,1818
2717,2007,1953
2673,2043,1990
2672,1934,1855
2718,1907,1795
2699,2002,1904
2667,2021,1962
2681,1951,1847
2716,1919,1805
2690,1979,1907
2643,2019,1941
2659,1935,1808
2690,1930,1771
2667,2003,1894
2613,2024,1936
2624,1954,1807
2663,1917,1782
2630,1977,1886
2585,1987,1921
2599,1927,1791
2639,1927,1761
2617,1999,1891
2553,2013,1918
2550,1937,1789
2601,1927,1761
2559,1984,1869
2528,2000,1950
2530,1938,1776
2559,1916,1759
2540,1978,1856
2479,1999,1939
2474,1924,1794
2506,1916,1733
2481,2006,1837
2448,1995,1899
2453,1919,1810
2478,1914,1719
2443,1979,1841
2401,1993,1886
2410,1940,1714
2448,1906,1726
2415,1957,1822
2368,1978,1879
2381,1909,1751
2406,1872,1712
2390,1960,1825
2336,1997,1870
2336,1935,1750
2378,1904,1725
2355,1966,1808
2303,1968,1855
2305,1899,1726
2344,1882,1673
2320,1953,1805
2274,1973,1840
2275,1903,1678
2306,1876,1682
2277,1952,1807
2235,1967,1845
2242,1899,1722
2285,1874,1681
2255,1949,1803
2208,1971,1850
2214,1893,1715
2256,1878,1670
2233,1955,1798
2186,1968,1831
2189,1897,1696
2219,1872,1653
2208,1957,1784
2159,1965,1820
2154,1873,1666
2183,1869,1631
2159,1930,1742
2130,1971,1841
2135,1876,1677
2160,1830,1627
2146,1931,1767
2098,1965,1778
2098,1866,1685
2139,1845,1631
2112,1943,1741
2081,1967,1821
2070,1842,1670
2108,1849,1630
2086,1923,1744
2041,1925,1793
2053,1852,1709
2086,1835,1635
2063,1904,1755
2013,1925,1776
2025,1863,1702
2065,1856,1648
2034,1903,1761
1979,1904,1796
1984,1835,1668
2019,1816,1627
2000,1884,1739
1952,1936,1780
1968,1847,1671
2009,1808,1632
1979,1871,1739
1936,1903,1779
1954,1828,1661
1999,1815,1627
1968,1889,1773
1919,1904,1799
1926,1838,1777
1961,1808,1624
1940,1850,1744
1904,1872,1788
1909,1812,1751
1942,1805,1559
1930,1872,1699
1878,1898,1771
1889,1830,1678
1930,1791,1630
1913,1856,1746
1863,1875,1782
1866,1802,1664
1905,1805,1616
1883,1877,1740
1843,1856,1791
1862,1808,1670
1901,1809,1620
1874,1872,1747
1827,1882,1805
1836,1808,1648
1879,1798,1625
1869,1872,1725
1808,1892,1742
1824,1831,1633
1856,1802,1602
1841,1867,1760
1795,1869,1797
1805,1793,1664
1847,1808,1623
1823,1871,1746
1773,1879,1709
1778,1808,1655
1818,1795,1683
1808,1889,1744
1753,1879,1803
1762,1798,1667
1808,1791,1602
1791,1857,1759
1738,1869,1755
1760,1792,1712
1809,1773,1711
1784,1872,1772
1727,1886,1749
1734,1799,1654
1774,1794,1623
1759,1856,1755
1716,1874,1792
1727,1810,1591
1764,1794,1631
1747,1859,1735
1705,1879,1796
1712,1803,1677
1755,1773,1639
1738,1838,1744
1695,1872,1791
1705,1808,1675
1744,1786,1647
1730,1840,1749
1693,1879,1850
1699,1817,1664
1735,1783,1645
1714,1852,1758
1671,1875,1810
1678,1774,1694
1730,1799,1616
1723,1889,1810
1670,1879,1815
1666,1804,1642
1713,1793,1632
1707,1873,1747
1657,1887,1799
1666,1821,1696
1700,1773,1634
1690,1847,1788
1659,1874,1808
1671,1807,1697
1706,1776,1672
1696,1872,1759
1659,1891,1815
1657,1808,1695
1700,1762,1657
1687,1857,1762
1642,1890,1808
1654,1825,1706
1691,1789,1653
1678,1856,1763
1632,1872,1798
1648,1811,1699
1695,1806,1683
1680,1879,1786
1641,1898,1829
1646,1830,1704
1682,1795,1663
1677,1853,1781
1641,1881,1826
1651,1831,1711
1692,1807,1655
1675,1855,1783
1631,1867,1831
1646,1803,1713
1696,1802,1669
1678,1872,1783
1626,1895,1830
1633,1823,1725
1681,1807,1678
1655,1875,1797
1657,1904,1840
1691,1840,1732
1684,1829,1681
1679,1861,1783
1607,1870,1837
1662,1801,1731
1684,1796,1687
1700,1872,1802
1613,1873,1853
1638,1810,1741
1680,1819,1685
1642,1894,1811
1617,1906,1867
1600,1818,1749
1713,1807,1698
1674,1869,1813
1626,1895,1859
1619,1831,1744
1693,1815,1695
1690,1884,1831
1647,1895,1881
1652,1829,1763
1703,1799,1713
1687,1863,1829
1653,1904,1879
1653,1847,1753
1695,1824,1707
1690,1876,1823
1705,1895,1878
1657,1821,1776
1719,1825,1726
1696,1907,1830
1685,1926,1886
1659,1847,1776
1715,1808,1731
1715,1875,1843
1655,1907,1894
1678,1853,1779
1710,1843,1741
1709,1904,1856
1671,1933,1908
1629,1841,1786
1710,1818,1741
1710,1872,1853
1680,1915,1910
1693,1849,1789
1715,1827,1738
1706,1909,1857
1628,1951,1926
1645,1865,1808
1712,1835,1745
1722,1891,1859
1702,1918,1918
1680,1856,1803
1741,1840,1765
1749,1912,1872
1707,1927,1931
1682,1849,1808
1759,1826,1755
1755,1921,1873
1655,1941,1920
1730,1856,1801
1730,1830,1762
1751,1913,1882
1693,1936,1934
1703,1874,1812
1746,1835,1773
1744,1920,1891
1726,1959,1935
1744,1855,1819
1790,1823,1776
1755,1920,1893
1677,1950,1936
1728,1855,1826
1759,1837,1776
1753,1908,1877
1714,1945,1936
1723,1886,1840
1758,1855,1787
1749,1903,1904
1717,1937,1954
1728,1873,1837
1766,1846,1786
1763,1920,1907
1731,1950,1963
1728,1872,1840
1799,1836,1780
1712,1925,1894
1719,1954,1970
1759,1868,1840
1779,1859,1801
1777,1920,1898
1732,1937,1943
1745,1873,1846
1758,1840,1801
1790,1911,1903
1744,1948,1937
1749,1870,1840
1787,1856,1795
1774,1919,1899
1744,1959,1953
1744,1891,1841
1796,1855,1791
1785,1937,1904
1738,1939,1959
1747,1847,1839
1786,1840,1789
1758,1898,1898
1712,1920,1950
1718,1872,1833
1822,1856,1790
1751,1925,1891
1684,1949,1945
1765,1878,1838
1769,1838,1783
1776,1905,1901
1760,1938,1963
1767,1875,1851
1851,1858,1786
1827,1903,1887
1795,1918,1941
1762,1860,1843
1796,1845,1799
1817,1914,1915
1776,1949,1967
1822,1857,1831
1840,1847,1776
1836,1923,1901
1825,1929,1972
1872,1873,1856
1873,1855,1793
1905,1909,1894
1874,1958,1947
1887,1895,1842
1908,1872,1792
1905,1927,1907
1899,1936,1959
1909,1867,1853
1961,1861,1791
1969,1939,1902
1935,1967,1945
1947,1888,1850
2007,1865,1805
2003,1938,1907
1984,1951,1959
1978,1885,1847
2037,1872,1801
2035,1936,1906
1997,1947,1966
1995,1882,1857
2085,1863,1808
2030,1946,1909
2047,1955,1961
1978,1875,1854
2098,1842,1798
2077,1917,1906
2039,1951,1963
2039,1883,1857
2100,1847,1792
2122,1908,1901
2054,1961,1967
2066,1886,1873
2114,1870,1806
2098,1942,1904
2047,1967,1961
2067,1889,1852
2119,1876,1802
2112,1949,1905
2067,1939,1955
2072,1873,1842
2105,1846,1783
2099,1934,1904
2064,1961,1961
2075,1885,1846
2123,1856,1784
2107,1930,1901
2069,1971,1963
2067,1900,1841
2107,1872,1774
2107,1935,1901
2065,1954,1963
2071,1872,1847
2113,1855,1777
2085,1938,1891
2071,1951,1955
2070,1872,1837
2111,1849,1777
2099,1905,1874
2047,1938,1936
2062,1867,1834
2105,1843,1767
2085,1915,1872
2038,1939,1940
2047,1872,1819
2095,1840,1769
2080,1909,1877
2026,1936,1933
2021,1851,1805
2075,1827,1754
2067,1903,1867
2003,1930,1920
2015,1856,1807
2058,1824,1749
2055,1881,1856
2001,1918,1911
2000,1831,1793
2042,1789,1734
2026,1854,1838
1990,1894,1899
1994,1822,1791
2032,1805,1733
2023,1868,1836
1977,1888,1890
1983,1820,1776
2019,1777,1715
2013,1854,1822
1969,1877,1877
1970,1792,1755
2023,1764,1686
1996,1830,1809
1952,1866,1866
1953,1794,1752
1993,1756,1696
1989,1808,1791
1942,1843,1843
1950,1758,1746
1982,1735,1683
1969,1798,1787
1920,1830,1834
1920,1754,1715
1959,1718,1655
1933,1767,1751
1904,1803,1807
1917,1713,1712
1947,1680,1648
1920,1737,1734
1874,1758,1789
1903,1685,1666
1929,1657,1598
1910,1727,1728
1869,1739,1786
1865,1661,1677
1920,1634,1614
1899,1698,1712
1851,1712,1750
1851,1645,1635
1902,1603,1588
1893,1657,1699
1840,1680,1744
1840,1600,1614
1882,1574,1557
1883,1648,1680
1840,1661,1735
1828,1584,1616
1858,1535,1535
1852,1600,1649
1810,1621,1718
1817,1563,1602
1857,1511,1520
1843,1571,1629
1795,1581,1690
1805,1488,1567
1844,1458,1493
1837,1526,1615
1803,1574,1677
1811,1488,1566
1846,1430,1476
1823,1506,1593
1781,1531,1658
1793,1451,1553
1840,1407,1486
1826,1470,1582
1776,1491,1645
1779,1415,1525
1834,1375,1463
1831,1443,1581
1779,1447,1629
1791,1369,1504
1838,1345,1445
1832,1406,1563
1782,1425,1627
1783,1359,1509
1821,1322,1449
1823,1381,1535
1773,1379,1600
1781,1313,1487
1831,1283,1429
1829,1343,1535
1774,1359,1587
1788,1287,1477
1836,1262,1419
1837,1305,1519
1801,1335,1600
1791,1282,1483
1827,1200,1406
1833,1265,1501
1804,1354,1584
1808,1200,1462
1849,1166,1386
1851,1280,1509
1808,1270,1580
1823,1193,1470
1871,1111,1405
1867,1216,1506
1825,1251,1584
1826,1175,1485
1874,1167,1424
1872,1245,1511
1840,1199,1579
1840,1081,1453
1884,1076,1392
1885,1175,1490
1853,1236,1567
1856,1099,1453
1899,1114,1389
1919,1198,1494
1889,1167,1517
1825,948,1414
1870,880,1345
1966,1122,1492
1929,1072,1535
1893,995,1402
1862,924,1355
1854,978,1487
1833,1088,1520
1865,914,1405
1922,912,1371
1936,1065,1461
1903,1005,1535
1909,995,1486
1945,930,1385
1938,919,1478
1889,927,1535
1881,811,1785
1936,866,2158
1834,834,2770
1694,720,1182
1712,759,1275
1833,679,1881
1815,533,2667
1757,683,1709
1682,418,1647
1744,389,2503
1478,384,2514
890,42,1797
646,0,368
635,0,4095
0,0,1753
0,0,907
0,0,63
330,0,1276
787,0,2079
1087,0,2329
1197,0,1776
1232,0,1814
1263,0,1487
1319,0,1686
1427,0,1840
1503,117,1864
1535,387,1841
1594,464,1827
1617,194,1823
1631,208,1827
1614,375,1829
1591,436,1829
1616,457,1827
1671,398,1830
1687,498,1830
1682,590,1827
1711,563,1830
1761,614,1829
1758,540,1831
1735,688,1829
1697,464,1829
1757,537,1824
1743,713,1830
1690,645,1829
1741,611,1837
1802,606,1822
1818,709,1827
1791,720,1825
1819,714,1791
1826,608,1701
1811,646,1761
1858,859,1839
1822,771,1671
1847,634,1582
1870,689,1646
1856,728,1703
1890,745,1562
1921,551,1441
1878,708,1520
1876,860,1646
1879,779,1712
1973,876,2336
1963,855,2423
1934,787,2027
1840,558,1863
1851,574,1646
1888,752,1744
1909,870,1829
1900,691,1846
1937,672,2113
1913,934,1801
1920,887,1748
1915,647,1760
1936,656,1822
1932,678,1838
1911,1003,1835
1936,750,1825
2000,763,1826
2017,944,1827
1945,992,1830
1942,688,1826
1984,653,1828
1939,803,1833
1909,773,1837
1957,749,1828
2013,859,1830
2001,1011,1834
1965,1052,1825
1962,754,1827
1958,599,1837
1968,839,1827
1874,838,1831
1825,638,1829
1867,826,1830
1804,835,1831
1723,833,1829
1680,754,1831
1727,862,1875
1758,793,1955
1727,853,1959
1679,767,1804
1667,864,1714
1668,1075,1803
1603,764,1833
1616,637,1696
1665,714,1598
1675,909,1657
1639,999,1763
1645,934,1615
1695,791,1533
1671,830,1587
1637,855,1655
1654,837,1521
1683,714,1424
1672,745,1485
1662,1010,1593
1686,933,1487
1746,755,1374
1723,831,1431
1679,912,1507
1673,839,1375
1712,768,1278
1745,816,1328
1695,945,1438
1693,923,1368
1749,916,1282
1754,821,1329
1712,912,1367
1743,932,1264
1791,969,1180
1777,944,1253
1755,825,1291
1783,960,1213
1790,845,1173
1760,881,1238
1730,866,1276
1760,929,1182
1830,934,1119
1877,998,1200
1832,934,1229
1725,937,1094
1759,811,1051
1804,894,1218
1788,899,1270
1808,851,1168
1862,838,1263
1841,1003,1728
1799,996,1908
1817,851,1881
1871,880,1834
1868,1138,1819
1827,982,1821
1831,831,1829
1821,839,1827
1718,905,1834
1599,946,1828
1582,1018,1826
1574,1023,2027
1437,834,2545
1277,757,2524
1146,650,1114
1200,672,1008
1289,880,1622
1333,928,2061
1334,763,2035
1319,720,1657
1306,747,1711
1281,836,1813
1313,810,1847
1369,878,1840
1375,1145,1831
1373,1008,1824
1267,737,1827
1261,766,1823
1299,907,1830
1377,1075,1827
1399,1074,1825
1319,1018,1827
1244,891,1831
1209,826,1827
1273,899,1687
1360,1092,1677
1328,996,1693
1265,973,1739
1286,944,1899
1351,1008,2265
1345,1091,1996
1305,1164,1801
1266,944,1781
1324,879,1810
1328,993,1834
1301,1093,1836
1323,1131,1830
1370,1055,1833
1397,1156,1828
1352,1225,1831
1261,982,1828
1274,978,1827
1299,1182,1840
1311,1145,1840
1330,1145,1818
1335,1161,1821
1291,1104,1829
1221,1104,1837
1185,1152,1827
1195,1193,1829
1154,1223,1826
1083,1227,1830
1072,1194,1835
1083,1286,1830
1021,1235,1822
969,1157,1827
982,1228,1826
1089,1167,1819
1072,1311,1825
912,1349,1827
912,1322,1839
993,1305,1856
1008,1254,1782
955,1273,1710
967,1296,1514
999,1291,1461
960,1319,1515
926,1339,1631
967,1327,1535
1033,1473,1463
988,1509,1503
934,1362,1535
958,1361,1453
1008,1375,1377
976,1392,1427
945,1438,1519
975,1535,1429
1023,1597,1360
973,1367,1430
945,1405,1463
976,1468,1328
1008,1489,1324
987,1555,1432
943,1569,1462
1055,1454,1334
1082,1595,1275
901,1522,1376
866,1535,1487
939,1579,1364
1007,1557,1281
982,1603,1367
921,1631,1392
917,1618,1335
980,1639,1295
959,1749,1341
880,1629,1358
873,1513,1301
898,1449,1200
907,1640,1279
829,1622,1306
816,1562,1207
851,1527,1136
827,1665,1194
734,1562,1186
742,1609,1054
779,1500,970
722,1529,1088
643,1557,1174
671,1517,1007
765,1494,887
698,1459,963
570,1616,1083
566,1566,932
638,1462,860
634,1535,935
559,1535,976
545,1475,848
606,1474,763
595,1472,893
547,1579,963
537,1527,824
592,1617,730
561,1535,767
454,1409,816
460,1431,755
525,1471,688
560,1504,731
538,1597,811
417,1482,769
427,1387,714
455,1467,769
455,1569,836
493,1535,786
553,1515,689
606,1520,772
602,1557,824
650,1535,771
753,1503,751
796,1535,865
778,1598,951
791,1661,816
889,1589,765
913,1647,915
877,1722,989
905,1629,859
979,1655,793
994,1667,902
983,1709,998
1005,1669,961
1045,1760,875
1072,1921,891
1057,1875,1104
1040,1764,1067
1082,1678,984
1113,1893,1042
1088,2026,1088
1115,1855,1008
1190,1806,977
1207,2005,1071
1162,1965,1170
1179,1930,1079
1246,1950,993
1247,1985,1088
1209,2083,1170
1231,2035,1150
1297,2032,1117
1294,2004,1121
1260,2037,1168
1293,2093,1143
1347,2078,1081
1319,2103,1177
1313,2119,1312
1360,2139,1245
1365,2147,1105
1364,2176,1214
1355,2164,1328
1354,2085,1171
1407,2037,1145
1425,2178,1281
1395,2256,1346
1405,2147,1237
1456,2099,1186
1459,2213,1230
1408,2274,1325
1437,2237,1239
1468,2175,1157
1457,2166,1275
1426,2186,1363
1402,2239,1232
1434,2091,1118
1435,2001,1212
1373,2130,1269
1344,2214,1138
1236,1993,877
1075,1805,937
976,1744,981
953,1662,817
983,1698,748
962,1808,723
871,1681,785
853,1589,670
896,1591,652
869,1659,632
810,1616,677
811,1568,646
878,1589,556
848,1517,624
814,1597,764
816,1535,667
858,1554,613
862,1630,702
807,1621,790
821,1534,688
889,1587,592
891,1641,714
875,1668,832
858,1616,750
882,1510,624
906,1535,746
878,1599,873
884,1632,805
938,1609,697
949,1582,779
962,1634,947
930,1648,844
976,1648,762
997,1678,894
945,1600,1099
976,1612,931
1040,1569,843
1053,1664,941
1008,1674,967
1023,1662,1036
1082,1600,867
1109,1722,1039
1071,1709,1136
1077,1690,1071
1147,1712,950
1174,1763,1104
1099,1651,1171
1109,1590,1088
1214,1741,1038
1201,1648,1126
1152,1754,1271
1173,1826,1201
1248,1744,1098
1277,1727,1193
1232,1737,1200
1253,1745,1243
1275,1712,1211
1297,1728,1312
1273,1777,1431
1288,1825,1344
1354,1791,1198
1360,1840,1300
1328,1799,1414
1328,1776,1398
1376,1743,1255
1392,1820,1415
1363,1850,1530
1372,1778,1397
1434,1669,1371
1452,1856,1488
1395,1911,1535
1397,1809,1474
1476,1796,1373
1469,1856,1495
1459,1959,1601
1523,1837,1555
1553,1849,1503
1456,1835,1473
1434,1877,1645
1503,1845,1600
1577,1893,1469
1566,1889,1601
1505,1942,1680
1532,1914,1624
1595,1807,1535
1585,1920,1630
1567,2001,1754
1586,1930,1677
1652,1895,1605
1653,1934,1682
1611,1913,1780
1598,1884,1739
1671,1910,1661
1680,1968,1769
1648,2036,1826
1654,2057,1809
1689,1915,1637
1701,1895,1793
1689,2012,1840
1698,1879,1799
1747,1857,1732
1769,2096,1781
1722,2094,1921
1739,1949,1855
1787,1987,1810
1815,2102,1842
1754,2038,1938
1746,1950,1901
1799,1887,1811
1823,1958,1918
1799,2032,1983
1853,1954,1968
1872,2128,1852
1846,2065,1941
1783,2036,2032
1806,2029,1947
1885,2061,1878
1933,2206,2010
1862,2150,2063
1839,1931,1939
1895,1904,1904
1921,2045,2034
1885,2128,2117
1914,2061,2035
1997,2223,1984
1958,2103,1971
1904,2090,2114
1904,2067,2086
1966,2002,1991
1989,2078,2078
1952,2160,2162
1982,2022,2084
2031,2103,2029
2025,2177,2095
1923,2125,2160
1936,2099,2113
2032,2111,2071
2077,2377,2143
1986,2091,2186
1983,1973,2096
2000,2015,2029
2032,2099,2176
2017,2161,2285
2003,2219,2155
2086,2129,2077
2057,2288,2186
2043,2203,2242
2060,2013,2162
2112,2069,2099
2118,2211,2210
2094,2212,2266
2038,2149,2211
2097,2071,2096
2126,2153,2194
2112,2163,2326
2103,2142,2247
2185,2181,2151
2166,2205,2202
2130,2247,2320
2160,2207,2257
2190,2153,2125
2163,2193,2182
2111,2122,2306
2107,2064,2245
2176,2109,2192
2240,2287,2322
2112,2352,2357
2069,2148,2171
2109,2069,2118
2191,2170,2288
2191,2271,2383
2188,2179,2249
2224,2115,2201
2249,2176,2261
2162,2171,2324
2138,2211,2256
2195,2187,2209
2224,2253,2289
2175,2224,2367
2192,2160,2295
2231,2113,2177
2237,2179,2259
2197,2316,2374
2229,2188,2295
2239,2090,2179
2263,2197,2294
2201,2205,2351
2193,2230,2285
2253,2166,2181
2258,2193,2317
2230,2320,2416
2176,2127,2302
2235,2082,2154
2283,2185,2288
2159,2176,2364
2205,2128,2319
2310,2255,2261
2273,2201,2271
2240,2196,2356
2211,2175,2295
2253,2139,2203
2221,2162,2272
2192,2290,2390
2210,2218,2271
2256,2073,2199
2279,2219,2320
2210,2339,2393
2243,2223,2288
2283,2163,2227
2319,2288,2323
2253,2329,2365
2265,2222,2236
2225,2106,2187
2261,2223,2289
2221,2342,2357
2240,2349,2294
2299,2245,2193
2290,2325,2285
2240,2304,2379
2235,2209,2273
2287,2177,2174
2288,2247,2289
2261,2402,2419
2251,2359,2283
2293,2267,2172
2301,2410,2231
2254,2350,2349
2193,2287,2287
2289,2226,2199
2292,2301,2277
2348,2322,2371
2365,2123,2291
2262,2318,2189
2272,2373,2267
2287,2423,2343
2229,2287,2255
2274,2240,2142
2267,2228,2237
2239,2269,2375
2237,2289,2253
2273,2256,2142
2279,2293,2256
2240,2315,2367
2227,2326,2275
2267,2294,2147
2266,2215,2197
2224,2301,2304
2223,2238,2250
2275,2131,2177
2263,2261,2239
2174,2310,2297
2160,2268,2222
2239,2210,2131
2236,2191,2207
2249,2335,2362
2261,2409,2259
2259,2117,2115
2208,2143,2176
2215,2154,2267
2215,2207,2210
2263,2278,2110
2203,2234,2171
2176,2208,2285
2149,2247,2206
2230,2133,2084
2311,2146,2162
2201,2247,2235
2160,2186,2149
2186,2158,2107
2197,2247,2176
2078,2239,2255
2186,2128,2174
2269,2134,2078
2234,2161,2147
2143,2215,2223
2158,2070,2120
2213,2191,2065
2256,2213,2162
2139,2156,2197
2133,2103,2097
2203,1943,2045
2201,2182,2121
2128,2227,2157
2173,2171,2105
2162,2066,2057
2166,2169,2096
2183,2101,2181
2081,2179,2111
2139,2131,2025
2194,2262,2134
2181,2176,2177
2098,2108,2062
2158,2064,1991
2161,2162,2065
2153,2128,2147
2084,2240,2091
2156,2207,1983
2162,2187,2066
2135,2219,2179
2067,2265,2064
2176,2192,1980
2139,2069,2015
2077,2160,2099
2047,2158,2015
2146,2219,1975
2149,2191,2065
2114,2207,2141
2101,2235,2046
2096,2064,1911
2142,2143,2032
2064,2192,2107
2014,2109,2000
2077,2190,1942
2126,2366,2035
2032,2242,2046
2011,2092,1946
2090,2107,1913
2118,2295,2031
2039,2176,2073
2000,2079,1955
2038,2095,1891
2078,2159,2014
2054,2278,2096
2027,2273,1973
2032,2025,1847
2066,2117,1958
2019,2160,2031
1979,2061,1919
2003,2001,1840
2014,2189,1978
1968,2205,2053
1959,1985,1929
2007,1978,1839
2032,2116,1937
1981,2169,2000
1974,2044,1936
1998,1998,1856
1994,2133,1936
1934,2071,1995
1933,1968,1908
1993,2017,1836
1988,1966,1884
1936,2079,1989
1936,2032,1923
1968,1967,1802
1984,2036,1890
1911,2083,1969
1917,1933,1883
1954,1885,1799
1933,1917,1853
1904,1949,1953
1858,1930,1858
1903,1931,1759
1920,2055,1870
1881,2113,1963
1868,1990,1870
1883,1778,1718
1882,1808,1815
1861,1890,1938
1884,1779,1901
1869,1877,1701
1852,1936,1747
1858,2095,1908
1872,1839,1835
1840,1791,1716
1849,1895,1831
1824,1834,1903
1789,1805,1783
1811,1763,1678
1845,1855,1794
1829,1894,1930
1838,1913,1809
1807,1783,1646
1793,1819,1742
1782,1728,1891
1822,1930,1851
1818,1826,1671
1802,1748,1725
1774,1782,1843
1776,1794,1782
1805,1777,1696
1811,1811,1781
1775,1898,1847
1797,1861,1799
1815,1743,1679
1798,1783,1762
1760,1882,1833
1712,1793,1723
1777,1782,1677
1799,1733,1782
1741,1788,1850
1735,1826,1791
1795,1776,1691
1794,1790,1710
1737,1875,1829
1722,1680,1766
1776,1732,1702
1785,1819,1769
1766,1815,1838
1751,1803,1786
1785,1722,1648
1754,1761,1739
1712,1807,1872
1778,1767,1779
1777,1727,1678
1753,1725,1762
1712,1819,1846
1712,1759,1737
1770,1709,1676
1789,1776,1774
1756,1868,1910
1735,1809,1801
1785,1767,1714
1789,1813,1765
1728,1710,1828
1724,1640,1776
1779,1680,1680
1815,1882,1786
1758,1890,1847
1715,1671,1761
1747,1661,1664
1776,1825,1783
1741,1909,1904
1730,1753,1767
1763,1655,1652
1766,1711,1744
1728,1767,1874
1723,1749,1850
1775,1743,1762
1773,1821,1761
1723,1811,1831
1712,1685,1778
1773,1664,1680
1782,1839,1785
1730,1808,1893
1731,1739,1814
1783,1681,1729
1806,1795,1777
1767,1910,1866
1728,1808,1815
1771,1661,1739
1766,1745,1785
1715,1735,1835
1733,1710,1824
1776,1716,1726
1794,1787,1801
1744,1855,1894
1750,1819,1840
1765,1627,1698
1783,1842,1822
1746,1923,1911
1756,1702,1844
1765,1665,1701
1779,1758,1791
1789,1882,1933
1776,1857,1865
1770,1729,1722
1813,1920,1853
1744,1743,1895
1727,1667,1813
1786,1729,1726
1807,1877,1826
1775,1887,1922
1751,1728,1806
1798,1816,1727
1808,1744,1835
1761,1711,1935
1805,1839,1901
1841,1862,1761
1808,1744,1825
1785,1793,1913
1759,1690,1844
1803,1741,1743
1827,1798,1798
1769,1833,1931
1759,1808,1898
1844,1751,1781
1847,1895,1840
1788,1836,1920
1767,1851,1886
1826,1724,1826
1851,1844,1872
1786,1898,1915
1796,1875,1877
1843,1771,1781
1831,1882,1834
1792,1807,1938
1808,1879,1885
1847,1727,1770
1840,1817,1850
1803,2019,1968
1787,1781,1904
1840,1717,1791
1889,1858,1870
1825,1936,1974
1810,1915,1898
1866,1779,1783
1853,1753,1801
1791,1839,1952
1829,1874,1941
1867,1885,1820
1865,1883,1893
1822,1973,1973
1810,1814,1899
1883,1831,1817
1898,1938,1897
1831,1847,1978
1855,1835,1920
1876,1759,1793
1884,1922,1893
1827,1892,2014
1829,1916,1930
1860,1922,1794
1872,1792,1869
1845,1809,2000
1841,1841,1921
1897,1824,1798
1872,1829,1873
1841,1923,1986
1872,1867,1949
1913,1912,1840
1900,1959,1888
1810,1856,1965
1821,1823,1942
1892,1828,1856
1892,1839,1902
1861,2029,1998
1854,1906,1938
1900,1898,1854
1904,1849,1895
1847,1839,1986
1855,1851,1947
1911,1889,1884
1911,1872,1881
1855,1937,1984
1840,1843,1909
1893,1827,1824
1913,1874,1918
1883,1984,2023
1870,1874,1936
1915,1827,1840
1927,1819,1904
1903,1927,2016
1860,1836,1921
1907,1899,1866
1904,1849,1904
1878,1885,1999
1875,1882,1937
1910,1904,1854
1917,1830,1904
1887,1931,2021
1910,1877,1972
1926,1712,1858
1905,1805,1892
1881,1949,2006
1891,1839,1947
1965,1839,1842
1954,1982,1939
1859,1931,2022
1856,1766,1939
1911,1793,1826
1937,1883,1919
1904,1952,2018
1901,1851,1959
1963,1831,1871
1942,1794,1887
1886,1879,2001
1904,1875,1965
1927,1878,1840
1935,1919,1901
1894,1856,2016
1886,1939,1965
1957,1872,1872
1968,1791,1918
1926,1967,2017
1904,1938,1965
1963,2009,1886
1909,1840,1884
1872,1791,1959
1871,1633,1934
1933,1741,1855
1962,1844,1915
1937,1939,2034
1914,1915,1993
1951,1895,1843
1951,1857,1898
1894,1861,2001
1902,1846,1979
1947,1840,1883
1971,1981,1931
1911,1957,2023
1921,1862,1973
1953,1799,1849
1958,1968,1919
1915,1917,2065
1903,1854,1969
1948,1949,1840
1966,1904,1918
1904,1776,1995
1919,1843,1968
1957,1868,1901
1966,1850,1935
1929,1997,2022
1893,1803,1921
1948,1795,1860
1997,1951,1939
1927,1867,2011
1887,1923,1970
1927,1839,1876
1949,1865,1898
1923,1931,2006
1958,1981,2000
1968,1851,1881
1951,1749,1888
1913,1888,1985
1897,1851,1973
1942,1866,1851
1985,1943,1942
1932,1944,2023
1921,1819,1968
1985,1861,1826
1967,1895,1888
1887,1919,2030
1920,1840,2010
1945,1901,1865
1967,1905,1877
1926,1807,1977
1903,1809,1972
1932,1843,1861
1974,1946,1912
1922,1910,2013
1918,1844,1952
1975,1891,1879
1977,1894,1915
1923,1883,2006
1904,1833,1968
1943,1811,1846
1967,1910,1875
1935,2005,2014
1950,1983,1995
1947,1776,1840
1953,1735,1875
1935,1839,2001
1949,1927,1954
1955,1825,1853
1947,1874,1874
1918,1931,1995
1905,1866,1998
1959,1887,1863
1982,1906,1882
1936,1953,1986
1905,1842,1947
1946,1840,1847
1959,1861,1897
