2015,1744,1982
2064,1764,1996
2075,1714,1910
2102,1744,1913
2091,1840,1968
2077,1818,1919
2096,1721,1925
2109,1726,1879
2069,1761,1985
2054,1798,2008
2082,1795,1895
2101,1712,1872
2084,1769,1946
2047,1754,2016
2067,1696,1923
2106,1664,1902
2065,1755,1970
2032,1761,2003
2054,1701,1875
2064,1689,1872
2032,1759,1958
2010,1750,1975
2027,1680,1865
2059,1664,1826
2025,1691,1953
1997,1741,1973
2023,1712,1857
2032,1702,1817
2000,1693,1920
1980,1680,1959
2000,1616,1791
2035,1595,1833
1998,1712,1917
1962,1712,1894
1967,1639,1813
2003,1642,1851
1987,1679,1894
1947,1701,1921
1969,1639,1867
1993,1634,1771
1968,1730,1938
1939,1680,1911
1950,1581,1813
1980,1597,1840
1952,1675,1885
1922,1693,1970
1940,1624,1791
1978,1652,1813
1951,1755,1919
1926,1677,1936
1939,1562,1817
1951,1594,1802
1918,1726,1871
1907,1717,1886
1946,1582,1857
1962,1626,1822
1936,1704,1934
1914,1745,1943
1937,1653,1817
1970,1646,1809
1933,1725,1934
1902,1713,1896
1936,1662,1809
1957,1677,1855
1930,1761,1959
1904,1694,1925
1929,1616,1824
1965,1667,1827
1941,1777,1936
1911,1765,1984
1927,1648,1814
1955,1697,1814
1926,1726,1932
1903,1750,1947
1923,1685,1826
1948,1680,1794
1921,1745,1911
1885,1771,1933
1927,1735,1840
1954,1681,1813
1927,1745,1913
1893,1766,1957
1917,1699,1851
1939,1712,1827
1915,1786,1923
1887,1776,1916
1915,1711,1843
1939,1712,1789
1906,1777,1934
1878,1779,1919
1917,1716,1831
1945,1741,1792
1920,1765,1872
1885,1750,1951
1907,1680,1820
1931,1712,1751
1904,1829,1904
1882,1810,1936
1898,1696,1851
1917,1680,1780
1894,1732,1916
1882,1763,1936
1904,1701,1799
1947,1712,1834
1915,1783,1917
1874,1776,1919
1898,1690,1807
1936,1689,1789
1890,1758,1899
1871,1776,1918
1914,1696,1808
1930,1689,1802
1903,1807,1911
1872,1776,1921
1902,1693,1808
1934,1728,1790
1897,1807,1911
1865,1783,1936
1904,1723,1838
1936,1733,1771
1907,1821,1890
1888,1790,1934
1929,1749,1847
1952,1743,1806
1906,1807,1917
1879,1808,1936
1906,1744,1837
1948,1749,1823
1919,1815,1936
1885,1817,2018
1904,1753,1825
1949,1700,1827
1917,1867,1897
1873,1858,1940
1911,1773,1831
1937,1750,1819
1906,1831,1897
1882,1829,1942
1910,1772,1841
1940,1805,1802
1900,1865,1973
1870,1809,1929
1899,1747,1831
1921,1715,1775
1894,1840,1936
1873,1846,1897
1904,1751,1751
1926,1739,1853
1893,1839,1953
1869,1854,1936
1892,1786,1840
1927,1776,1799
1891,1842,1904
1859,1856,1942
1879,1780,1861
1909,1754,1771
1873,1849,1875
1855,1878,1913
1875,1765,1766
1905,1745,1755
1872,1841,1904
1843,1872,1943
1871,1729,1797
1893,1712,1802
1871,1902,1875
1834,1918,1905
1872,1803,1806
1909,1784,1786
1877,1858,1878
1850,1872,1905
1872,1791,1722
1901,1822,1773
1872,1854,1893
1841,1873,1909
1869,1819,1791
1894,1811,1703
1866,1872,1919
1840,1897,1905
1862,1868,1785
1889,1815,1770
1855,1845,1885
1834,1840,1898
1857,1840,1849
1879,1831,1797
1853,1904,1872
1831,1875,1880
1868,1840,1811
1889,1910,1777
1849,1938,1933
1826,1903,1900
1862,1854,1808
1894,1883,1775
1861,1936,1886
1838,1939,1910
1862,1872,1793
1885,1865,1782
1865,1935,1898
1837,1973,1907
1858,1911,1803
1887,1904,1808
1847,1950,1904
1836,1959,1917
1866,1904,1809
1889,1880,1791
1856,1954,1893
1840,1970,1915
1872,1905,1806
1895,1910,1791
1863,1963,1902
1829,1984,1913
1855,1907,1807
1877,1910,1776
1858,2000,1899
1845,2013,1927
1867,1881,1808
1885,1921,1789
1857,2037,1905
1835,1999,1920
1862,1927,1797
1878,1892,1776
1845,2003,1886
1817,2001,1910
1855,1922,1787
1885,1928,1781
1847,2009,1891
1818,2005,1904
1850,1941,1789
1865,1935,1770
1846,2021,1890
1819,2000,1894
1826,1919,1771
1862,1929,1781
1851,2007,1904
1822,1981,1927
1841,1926,1803
1872,1966,1789
1853,2064,1899
1811,2006,1905
1838,1925,1788
1863,1904,1780
1845,1969,1907
1774,2033,1920
1839,1984,1786
1866,1950,1761
1887,1997,1886
1791,2000,1904
1807,1953,1792
1873,1972,1776
1835,1999,1899
1839,1968,1902
1807,1921,1771
1840,1968,1776
1794,2014,1894
1798,2000,1904
1834,1929,1786
1838,1918,1776
1840,2015,1878
1808,2032,1892
1797,1927,1779
1856,1910,1773
1826,1993,1885
1776,2000,1899
1829,1918,1780
1846,1931,1769
1815,1986,1872
1805,1968,1899
1818,1918,1794
1859,1918,1779
1807,2028,1889
1769,2007,1899
1799,1904,1783
1840,1895,1767
1823,1979,1879
1823,1988,1914
1830,1921,1799
1868,1895,1776
1832,1979,1878
1828,1993,1899
1815,1905,1802
1885,1920,1778
1809,1991,1887
1803,1957,1904
1813,1902,1777
1840,1934,1769
1817,1986,1887
1764,1970,1903
1842,1897,1792
1857,1892,1766
1829,1994,1877
1795,1972,1904
1811,1904,1790
1850,1888,1772
1833,1952,1870
1744,1953,1884
1768,1887,1769
1778,1891,1761
1808,1968,1869
1835,1939,1877
1793,1855,1761
1810,1891,1754
1785,1942,1872
1831,1983,1885
1783,1904,1764
1822,1871,1737
1739,1919,1853
1797,1982,1862
1808,1888,1759
1792,1889,1751
1776,1970,1858
1763,1936,1873
1775,1872,1751
1786,1904,1734
1737,1975,1846
1689,1939,1857
1771,1857,1743
1798,1843,1735
1776,1911,1829
1732,1916,1845
1756,1841,1737
1783,1842,1721
1755,1909,1840
1724,1934,1851
1745,1853,1723
1777,1855,1693
1745,1910,1833
1714,1915,1850
1734,1827,1729
1757,1840,1702
1735,1969,1811
1745,1979,1835
1703,1869,1717
1839,1861,1705
1721,1936,1803
1654,1984,1839
1740,1894,1726
1740,1873,1695
1728,1945,1805
1704,1909,1828
1712,1884,1710
1744,1877,1702
1730,1963,1823
1695,2003,1814
1717,1934,1703
1743,1919,1701
1722,1981,1819
1695,1984,1834
1712,1932,1699
1751,1941,1696
1725,1962,1808
1697,2011,1822
1684,1926,1707
1712,1971,1684
1681,2007,1808
1714,2005,1834
1766,1936,1706
1712,1968,1681
1695,2054,1799
1659,2031,1819
1648,1952,1705
1759,1979,1685
1711,2035,1808
1699,2046,1826
1727,1967,1685
1783,1966,1675
1701,2041,1789
1665,2058,1802
1726,1979,1710
1729,1978,1694
1723,2032,1790
1657,2093,1811
1703,2021,1701
1728,2000,1681
1724,2071,1797
1699,2071,1815
1648,2047,1706
1718,2035,1687
1694,2087,1796
1681,2071,1814
1680,1991,1693
1686,1989,1679
1687,2075,1794
1676,2092,1822
1685,2029,1702
1713,2044,1681
1686,2086,1792
1661,2038,1809
1680,1970,1700
1707,2000,1685
1680,2083,1785
1712,2089,1815
1686,2011,1705
1699,2017,1690
1718,2063,1803
1642,2053,1813
1655,2010,1691
1664,2003,1670
1712,2078,1793
1655,2064,1821
1697,1986,1694
1713,1962,1681
1699,2064,1796
1627,2031,1805
1677,1948,1701
1730,1941,1681
1696,1993,1793
1659,1969,1811
1701,1923,1695
1715,1925,1679
1680,2007,1790
1653,2013,1810
1671,1878,1680
1706,1869,1658
1681,1923,1786
1651,1908,1817
1664,1843,1689
1699,1837,1660
1682,1904,1801
1660,1871,1837
1660,1857,1697
1682,1850,1664
1665,1883,1794
1648,1874,1821
1675,1811,1705
1691,1791,1687
1674,1839,1799
1651,1821,1823
1667,1712,1697
1698,1701,1680
1675,1798,1799
1648,1747,1821
1665,1632,1707
1701,1603,1671
1680,1685,1802
1664,1648,1839
1689,1580,1717
1701,1520,1685
1671,1618,1807
1654,1615,1836
1678,1502,1712
1706,1495,1690
1681,1570,1810
1660,1568,1833
1685,1443,1710
1693,1415,1691
1673,1492,1808
1655,1472,1840
1677,1385,1726
1709,1390,1713
1684,1466,1823
1667,1451,1836
1682,1354,1722
1711,1335,1712
1685,1386,1841
1667,1419,1856
1685,1341,1731
1713,1379,1707
1694,1413,1840
1683,1404,1860
1709,1329,1745
1722,1307,1717
1694,1409,1826
1675,1405,1859
1702,1296,1730
1734,1291,1728
1709,1375,1849
1680,1377,1872
1703,1290,1745
1735,1309,1717
1710,1421,1840
1691,1392,1882
1717,1328,1755
1744,1338,1729
1712,1435,1853
1689,1398,1874
1719,1307,1759
1756,1333,1742
1723,1423,1843
1691,1438,1862
1715,1381,1752
1744,1367,1743
1723,1434,1847
1703,1446,1872
1719,1333,1754
1755,1328,1744
1728,1454,1860
1695,1472,1874
1725,1416,1749
1760,1435,1741
1737,1479,1861
1711,1467,1872
1734,1428,1763
1747,1431,1763
1727,1552,1872
1712,1520,1899
1737,1434,1766
1762,1440,1751
1739,1570,1865
1712,1599,1893
1733,1472,1765
1761,1458,1738
1737,1554,1859
1714,1588,1890
1744,1526,1751
1767,1503,1744
1733,1618,1862
1716,1659,1893
1750,1570,1777
1765,1568,1763
1743,1629,1866
1717,1638,1878
1747,1566,1776
1776,1565,1772
1747,1660,1883
1729,1717,1902
1744,1649,1783
1766,1639,1766
1735,1706,1887
1719,1724,1903
1746,1664,1787
1779,1697,1766
1753,1755,1877
1727,1727,1899
1748,1679,1785
1787,1711,1759
1762,1776,1877
1737,1787,1908
1759,1724,1785
1786,1726,1764
1773,1806,1885
1743,1808,1888
1761,1747,1792
1792,1746,1776
1766,1837,1891
1747,1859,1922
1776,1791,1798
1796,1801,1775
1765,1878,1882
1741,1906,1901
1772,1870,1790
1795,1855,1776
1786,1959,1885
1762,2019,1911
1778,1963,1794
1802,1955,1776
1777,2021,1888
1751,2064,1904
1784,1994,1788
1807,1968,1787
1781,2037,1903
1754,2032,1925
1782,1957,1785
1796,1936,1747
1777,1969,1886
1749,1969,1918
1776,1905,1804
1802,1906,1785
1778,1925,1895
1758,1919,1906
1786,1831,1796
1801,1818,1777
1775,1890,1887
1759,1878,1908
1790,1787,1790
1817,1808,1776
1789,1867,1894
1761,1862,1919
1778,1764,1805
1808,1755,1783
1791,1837,1890
1765,1811,1898
1796,1742,1795
1825,1734,1782
1805,1808,1900
1779,1829,1920
1785,1763,1797
1807,1711,1773
1793,1775,1888
1787,1782,1909
1807,1725,1790
1826,1722,1779
1805,1795,1899
1757,1793,1905
1792,1718,1809
1826,1723,1786
1806,1805,1892
1776,1810,1915
1790,1731,1797
1817,1711,1778
1803,1791,1907
1778,1810,1923
1804,1733,1793
1815,1718,1770
1793,1799,1895
1781,1812,1925
1801,1684,1810
1839,1635,1790
1798,1840,1899
1767,1879,1904
1794,1755,1786
1815,1730,1761
1793,1808,1863
1767,1829,1910
1798,1754,1814
1831,1744,1792
1807,1808,1890
1774,1819,1916
1798,1766,1777
1836,1744,1781
1791,1808,1904
1766,1786,1920
1784,1711,1793
1811,1721,1760
1794,1791,1893
1776,1789,1921
1790,1725,1778
1802,1740,1750
1793,1813,1883
1777,1766,1919
1786,1733,1778
1811,1747,1757
1791,1803,1901
1771,1778,1918
1793,1649,1791
1810,1683,1754
1788,1776,1885
1789,1815,1903
1821,1728,1767
1825,1703,1744
1772,1805,1866
1739,1872,1931
1776,1705,1824
1828,1727,1789
1805,1659,1870
1744,1690,1857
1775,1695,1796
1803,1617,1808
1782,1677,1872
1743,1718,1805
1744,1654,1666
1834,1607,1757
1801,1714,1861
1712,1653,1785
1711,1517,1642
1756,1563,1660
1694,1648,1840
1659,1553,1799
1671,1450,1659
1698,1600,1617
1675,1535,1743
1639,1449,1725
1653,1401,1568
1679,1391,1514
1633,1437,1627
1566,1486,1677
1579,1413,1529
1590,1300,1472
1570,1377,1561
1520,1419,1582
1535,1440,1453
1558,1360,1392
1497,1354,1477
1433,1379,1526
1488,1342,1386
1483,1381,1345
1474,1475,1458
1412,1473,1490
1414,1355,1291
1399,1345,1225
1399,1535,1377
1328,1648,1395
1313,1427,1197
1307,1376,1118
1234,1472,1215
1134,1505,1165
1088,1429,958
1104,1488,975
1079,1572,1082
1038,1584,1072
1051,1506,949
1088,1495,951
1073,1719,1081
1038,1601,1047
1071,1426,965
1175,1495,986
1134,1759,1145
1082,1897,1152
1136,1675,1072
1196,1583,1082
1169,1776,1166
1200,1822,1232
1227,1722,1140
1269,1776,1168
1223,1827,1307
1231,1850,1353
1283,1943,1246
1294,1776,1171
1310,1808,1358
1319,1823,1435
1354,1905,1323
1373,1886,1291
1337,1942,1403
1331,2031,1481
1378,1996,1366
1397,1897,1284
1360,1856,1447
1342,1904,1506
1377,1890,1414
1434,1904,1427
1466,1999,1535
1449,2187,1581
1421,1904,1407
1425,1886,1411
1376,1994,1584
1392,1999,1613
1506,1850,1455
1461,1898,1494
1394,1973,1649
1344,2013,1616
1395,1894,1655
1451,1853,1698
1423,1936,1751
1406,1962,1713
1415,1873,1888
1424,1852,1835
1457,1939,1733
1435,1918,1644
1417,2004,1572
1401,1891,1535
1395,1855,1659
1401,1883,2288
1414,1871,1890
1426,1811,1753
1391,1769,2429
1310,1716,2265
1302,1718,1969
1286,1698,1815
1174,1535,2246
1095,1477,1982
1061,1386,1253
1182,1383,1051
1317,1502,1639
1451,1616,1920
1488,1589,1906
1503,1671,1843
1472,1749,1818
1384,1618,3090
1229,1377,2523
1134,1313,1179
1127,1429,1340
1157,1339,1335
1310,1411,1360
1445,1449,1744
1518,1565,1894
1475,1584,1872
1469,1535,2060
1456,1533,1945
1450,1584,1438
1487,1678,1641
1519,1609,1824
1585,1579,1869
1535,1643,1846
1472,1724,1827
1525,1808,1804
1558,1725,1757
1520,1589,1861
1503,1696,1859
1555,1757,1730
1594,1776,1713
1573,1863,2534
1520,1872,2102
1535,1683,1535
1639,1693,1431
1563,1879,1632
1604,1907,1618
1535,1739,1513
1535,1742,1497
1535,1826,1569
1533,1808,1585
1601,1930,1478
1648,1831,1445
1583,1804,1520
1519,1849,1533
1571,1825,1412
1629,1917,3959
1600,1856,3168
1535,1837,1983
1588,1919,1561
1646,1879,1679
1506,1831,2672
1403,1664,2422
1402,1600,968
1530,1656,1309
1562,1840,1811
1564,1907,1936
1635,1763,1879
1631,1885,1827
1577,1790,1813
1553,1728,1826
1613,1764,1833
1695,1856,1833
1658,1901,1830
1616,1840,1831
1627,1913,1831
1759,1994,1833
1660,1943,1833
1574,1819,1830
1648,1815,1829
1690,1779,1831
1680,1885,1827
1658,1959,1827
1662,1878,1830
1707,1903,1834
1678,1947,1829
1661,1994,1835
1678,1950,1834
1722,1876,1833
1683,1861,1829
1648,1933,1772
1671,1881,1619
1723,1872,1655
1715,1977,1759
1674,1958,1749
1690,1907,1629
1724,1860,1648
1739,2134,1786
1719,1791,1759
1797,1855,1530
1718,1890,1535
1729,1939,1767
1706,1974,1776
1746,1905,1643
1730,1941,1605
1717,1979,1699
1698,1915,1717
1756,1847,1597
1808,1930,1622
1757,1923,1710
1702,1841,1699
1749,1859,1586
1804,2014,1535
1776,2006,1648
1737,1870,1657
1798,1880,1606
1856,1940,1583
1777,1856,1664
1742,1874,1715
1808,1851,1586
1872,1936,1575
1884,2025,1695
1762,1911,1659
1744,1761,1535
1823,1776,1553
1803,1911,1655
1782,1984,1718
1841,1801,1616
1923,2035,1605
1903,2138,1665
1791,1890,1648
1781,1658,1535
1855,1683,1557
1845,1842,1678
1827,1917,1717
1846,1869,1573
1899,1988,1563
1846,1971,1633
1857,1862,1675
1859,1790,1535
1857,1806,1558
1809,1817,1719
1803,1935,1753
1817,1865,1598
1904,1993,1598
1853,1833,1648
1738,1797,1626
1776,1745,1535
1816,1804,1587
1795,1959,1728
1773,2030,1711
1799,1777,1562
1808,1713,1600
1797,1744,1728
1839,1863,1770
1901,1990,1603
1779,1815,1502
1712,1842,1712
1734,2093,1771
1821,1750,1670
1829,1591,1590
1772,1766,1680
1743,1872,1695
1779,1867,1600
1771,1776,1599
1744,1872,1693
1755,2032,1722
1769,1847,1610
1763,1658,1584
1766,1826,1706
1757,1827,1737
1819,1842,1588
1776,1869,1553
1742,1827,1774
1736,1865,1777
1826,1905,1623
1874,1968,1593
1771,1867,1727
1719,1695,1753
1733,1686,1594
1775,1713,1563
1761,1908,1744
1786,1929,1794
1840,1940,1679
1845,1707,1587
1760,1804,1640
1735,1856,1737
1772,1721,1648
1831,1777,1616
1805,1851,1759
1802,1815,1763
1821,1827,1634
1824,1856,1585
1814,1876,1726
1775,1841,1763
1803,1701,1669
1865,1690,1636
1830,1923,1775
1765,1967,1795
1837,1815,1599
1863,1676,1580
1811,1744,1757
1815,1935,1776
1823,1749,1646
1855,1715,1630
1846,1821,1775
1817,1914,1831
1840,1856,1680
1850,1757,1602
1854,1817,1716
1850,1895,1801
1872,1815,1627
1853,1740,1625
1807,1808,1777
1795,1831,1833
1859,1863,1701
1921,1779,1701
1916,1813,1806
1792,1827,1854
1802,1741,1716
1872,1744,1600
1863,1936,1708
1800,1789,1728
1846,1680,1715
1905,1747,1712
1894,1872,1809
1828,1822,1812
1818,1725,1629
1899,1749,1661
1856,1839,1837
1847,1873,1797
1887,1850,1643
1899,1869,1651
1846,1783,1808
1819,1811,1830
1847,1702,1695
1904,1703,1667
1856,1792,1771
1841,1851,1830
1861,1825,1712
1906,1777,1715
1889,1867,1792
1856,1856,1791
1893,1668,1669
1889,1781,1686
1867,1742,1828
1858,1757,1838
1890,1785,1707
1902,1847,1679
1877,1808,1782
1815,1774,1819
1852,1769,1684
1914,1853,1696
1886,1903,1793
1838,1805,1845
1873,1637,1663
1909,1695,1630
1894,1813,1786
1861,1872,1890
1878,1806,1789
1919,1786,1691
1900,1855,1838
1851,1803,1790
1903,1670,1755
1936,1855,1703
1890,1840,1787
1848,1832,1796
1875,1773,1718
1957,1808,1745
1897,1753,1794
1853,1774,1841
1885,1846,1739
1904,1728,1683
1883,1835,1776
1866,1826,1839
1872,1776,1759
1914,1757,1729
1902,1781,1874
1873,1855,1862
1900,1790,1747
1926,1744,1719
1888,1872,1831
1840,1803,1817
1907,1719,1709
1936,1762,1642
1906,1934,1841
1860,1894,1893
1890,1703,1717
1994,1719,1747
1886,1822,1807
1814,1772,1822
1871,1808,1712
1921,1774,1747
1914,1861,1931
1903,1789,1872
1899,1794,1715
1930,1766,1706
1899,1827,1803
1874,1813,1857
1909,1904,1742
1937,1745,1723
1866,1683,1856
1844,1833,1872
1909,1835,1719
1943,1785,1708
1904,1728,1843
1863,1797,1862
1894,1831,1750
1914,1799,1703
1882,1802,1840
1853,1806,1860
1917,1781,1788
1968,1846,1746
1927,1889,1872
1874,1866,1909
1875,1665,1697
1920,1703,1680
1902,1808,1836
1895,1827,1953
1915,1890,1793
1920,1813,1747
1900,1714,1843
1851,1743,1862
1874,1825,1801
1922,1808,1766
1882,1877,1827
1881,1856,1868
1935,1773,1797
1919,1714,1778
1904,1792,1882
1839,1809,1865
1872,1839,1745
1966,1837,1731
1875,1717,1857
1834,1791,1882
1895,1888,1789
1921,1763,1739
1882,1741,1826
1872,1772,1920
1925,2009,1867
1940,1705,1788
1885,1689,1828
1855,1814,1842
1934,1795,1791
1986,1856,1745
1892,1904,1860
1808,1894,1927
1878,2032,1873
1883,1601,1743
1892,1598,1823
1838,1670,1865
1918,1723,1840
1955,1938,1776
1858,1840,1870
1841,1891,1893
1915,1990,1814
1930,1661,1744
1891,1728,1838
1886,1762,1904
1898,1747,1792
1887,1761,1754
1855,1790,1875
1842,1872,1936
1906,1765,1869
1957,1968,1776
1872,1936,1821
1824,1664,1859
1885,1621,1769
1942,1804,1753
1905,1826,1823
1827,1787,1863
1861,1833,1791
1920,1786,1788
1883,1818,1915
1854,1729,1908
1856,1808,1777
1904,1768,1725
1941,1833,1866
1829,1829,1923
1839,1689,1822
1913,1952,1811
1900,1874,1856
1859,1743,1856
1868,1712,1758
1872,1713,1723
1885,1817,1910
1901,1909,1926
1872,1818,1761
1868,1714,1765
1834,1757,1879
1830,1740,1886
1904,1831,1791
1895,1778,1730
1841,1747,1888
1827,1754,1907
1882,1739,1778
1931,1776,1769
1936,1911,1857
1898,1903,1885
1823,1758,1747
1855,1798,1749
1847,1795,1856
1858,1776,1862
1904,1805,1744
1875,1714,1758
1830,1759,1872
1818,1806,1923
1920,1915,1834
1910,1818,1731
1850,1739,1810
1823,1790,1875
1854,1788,1814
1916,1800,1813
1859,1825,1838
1834,1833,1870
1899,1758,1771
1936,1895,1725
1807,1691,1856
1767,1668,1894
1846,1739,1776
1936,1906,1808
1894,1922,1879
1808,1685,1840
1878,1794,1771
1847,1795,1744
1847,1644,1861
1810,1791,1902
1850,1711,1744
1938,1711,1775
1966,1959,1904
1791,1809,1856
1770,1744,1776
1885,1773,1769
1867,1908,1869
1805,1840,1855
1861,1669,1703
1878,1676,1739
1877,1808,1903
1843,1856,1920
1838,1853,1751
1879,1821,1747
1863,1910,1874
1832,1715,1897
1839,1602,1749
1885,1705,1738
1904,1794,1879
1895,2052,1921
1851,1837,1743
1840,1611,1699
1799,1758,1872
1814,1895,1923
1872,1728,1777
1934,1627,1668
1834,1748,1874
1761,1907,1936
1856,1904,1821
1854,1794,1746
1794,1721,1830
1802,1871,1887
1863,1785,1775
1898,1649,1746
1811,1795,1858
1776,1921,1918
1836,1903,1783
1874,1648,1733
1813,1802,1831
1793,1953,1884
1851,1714,1773
1872,1685,1738
1840,1959,1880
1808,1791,1871
1845,1663,1733
1872,1731,1761
1829,1806,1887
1751,1728,1907
1775,1712,1766
1876,1855,1744
1867,1955,1840
1780,1747,1879
1806,1590,1775
1823,1648,1726
1796,1911,1843
1798,1783,1904
1839,1825,1806
1851,1775,1729
1808,1698,1815
1856,1702,1901
1904,1744,1760
1797,1825,1741
1746,1855,1887
1774,1841,1936
1815,1712,1749
1904,1757,1737
1873,1911,1865
1744,1878,1858
1746,1731,1745
1818,1677,1751
1823,1733,1841
1794,1887,1865
1802,1774,1743
1845,1766,1728
1859,1831,1872
1792,1744,1898
1802,1824,1808
1882,1870,1779
1839,1748,1823
1807,1661,1866
1797,1719,1786
1789,1775,1713
1791,1847,1798
1799,1791,1901
1808,1776,1790
1840,1822,1733
1806,1796,1851
1808,1877,1936
1872,1833,1760
1814,1690,1758
1749,1825,1840
1774,1773,1903
1852,1853,1789
1840,1798,1703
1791,1873,1826
1794,1936,1887
1858,1690,1774
1841,1824,1773
1775,1917,1851
1723,1699,1863
1761,1680,1733
1840,1823,1744
1818,1885,1886
1797,1871,1907
1809,1901,1793
1841,1908,1740
1776,1846,1907
1767,1821,1846
1734,1743,1694
1774,1749,1737
1778,1919,1875
1797,1904,1947
1825,1738,1775
1786,1885,1731
1727,1853,1850
1739,1781,1886
1810,1649,1839
1830,1798,1743
1795,1953,1843
1725,1872,1873
1751,1815,1767
1821,1747,1747
1801,1758,1867
1776,1808,1901
1759,1814,1791
1806,1859,1714
1776,1901,1859
1753,1815,1951
1835,1886,1870
1840,1859,1785
1767,1873,1867
1728,1938,1868
1716,1984,1779
1762,1807,1744
1759,1766,1895
1781,1744,1955
1795,1856,1825
1772,1863,1719
1787,1810,1853
1744,1837,1902
1776,1983,1801
1822,1967,1758
1743,1808,1845
1710,1701,1894
1776,1696,1818
1821,1775,1794
1802,1857,1902
1738,1947,1876
1712,1797,1754
1771,1760,1740
1797,1779,1890
1747,1857,1936
1791,1837,1795
1870,1777,1783
1776,1925,1904
1716,1893,1873
1744,1762,1795
1799,1865,1790
1790,1887,1921
1762,1836,1954
1794,1819,1769
1834,1919,1710
1785,1900,1872
1762,1953,1979
1778,1907,1787
1776,1711,1691
1759,1755,1820
1734,1840,1909
1839,1865,1807
1875,1840,1707
1772,1984,1886
1750,1962,1951
1776,1775,1777
1812,1839,1761
1789,1894,1869
1779,1891,1955
1779,1738,1802
1776,1759,1698
1803,1857,1883
1750,1840,1931
1771,1745,1766
1814,1819,1717
1786,1888,1846
1749,1927,1936
1821,1995,1837
1860,1875,1765
1794,1902,1870
1734,1729,1878
1812,1746,1761
1839,1731,1744
1770,1893,1840
1740,1898,1883
1837,1814,1801
1845,1804,1762
1802,1936,1856
1786,1965,1897
1819,1826,1767
1862,1879,1739
1769,1890,1882
1738,1861,1887
1794,1846,1763
1857,1862,1742
1840,1873,1875
1814,1855,1968
1808,1841,1856
1815,1846,1743
1792,1781,1803
1776,1946,1858
1811,1901,1792
1849,1795,1745
1833,1859,1872
1789,1855,1889
1818,1830,1776
1871,1744,1741
1808,1919,1872
1775,1872,1915
1808,1879,1821
1842,1797,1770
1814,1983,1829
1791,1873,1867
1844,1767,1798
1860,1799,1777
1803,1930,1873
1760,1937,1877
1808,1771,1750
1893,1835,1744
1841,1895,1829
1779,1990,1904
1861,1949,1823
1892,1731,1742
1794,1776,1854
1766,1893,1901
1779,1779,1797
1835,1766,1763
1846,1961,1859
1824,1964,1898
1853,1933,1792
1862,1873,1747
1812,1802,1870
1765,1798,1891
1807,1799,1760
1873,1887,1744
1845,2011,1891
1817,1904,1911
1837,1777,1754
1863,1874,1734
1826,1863,1875
1785,1815,1887
1877,1818,1814
1882,1958,1811
1810,1939,1871
1786,1823,1884
1840,1802,1744
1901,1869,1702
1807,1873,1872
1758,1857,1931
1818,1786,1805
1874,1855,1783
1845,1910,1885
1827,1901,1936
1843,1936,1803
1869,1772,1744
1808,1856,1840
1801,1939,1921
1835,1860,1783
1872,1764,1750
1836,1888,1845
1807,1904,1873
1856,1882,1803
1877,1835,1747
1823,1839,1824
1763,1892,1902
1819,1856,1807
1875,1856,1732
1838,1916,1867
1795,1965,1921
1771,1808,1755
1833,1712,1754
1831,1826,1872
1799,1878,1902
1820,1846,1783
1856,1858,1746
1835,1969,1872
1797,1845,1907
1822,1796,1771
1869,1862,1723
1835,1879,1882
1804,1981,1897
1837,1931,1787
1846,1743,1718
1843,1830,1839
1811,1893,1879
1859,1811,1759
1840,1731,1765
1809,1878,1875
1745,1951,1883
1813,1825,1763
1886,1759,1707
1838,1833,1887
1777,1903,1900
1835,1808,1808
1862,1889,1759
1870,1875,1881
1847,1885,1898
1810,1866,1791
1845,1974,1739
1815,1847,1808
1779,1793,1845
1840,1847,1815
1893,1842,1782
1858,1871,1863
1775,1834,1838
1796,1807,1746
1858,1872,1772
1843,2007,1904
1818,1855,1901
1872,1864,1824
1891,1807,1765
1797,1857,1827
1761,1879,1872
1817,1815,1802
1872,1879,1785
1861,1933,1872
1808,1841,1872
1827,1819,1765
1872,1910,1764
1867,1981,1887
1808,1868,1857
1837,1821,1773
1885,1830,1779
1863,1838,1892
1818,1823,1927
1826,1836,1802
1890,1874,1699
1812,1902,1819
1773,1939,1925
1844,1810,1807
1876,1807,1745
1840,1832,1863
1810,1869,1877
1840,1797,1776
1872,1799,1753
1840,1893,1882
1793,1925,1906
1827,1877,1803
1890,1931,1773
1847,1946,1847
1815,1819,1873
1872,1808,1795
1890,1815,1767
1821,1869,1857
1775,1887,1885
1825,1849,1775
1907,1872,1759
1858,1990,1878
1808,2014,1919
1838,1763,1770
1859,1790,1766
1823,1883,1869
1808,1954,1915
1854,1931,1804
1890,1872,1765
1821,1703,1798
1802,1931,1855
1858,1904,1766
1913,1844,1765
1823,1915,1865
1781,1951,1915
1816,1825,1798
1889,1932,1776
1850,1859,1856
1803,1839,1888
1840,1803,1810
1883,1882,1749
1842,2029,1830
1787,1935,1875
1835,1739,1776
1875,1718,1767
1861,1887,1856
1799,1953,1840
1834,1872,1771
1856,1763,1777
1829,1943,1884
1835,1936,1875
1885,1840,1777
1883,1968,1775
1794,1872,1851
1759,1818,1890
1823,1786,1775
1898,1804,1731
1858,1954,1847
1791,1870,1889
1818,1787,1808
1849,1799,1743
1840,1928,1851
1809,1946,1858
1846,1867,1803
1893,1792,1765
1864,1968,1897
1841,1900,1849
1810,1793,1760
1863,1761,1792
1836,1837,1866
1794,1937,1895
1815,1801,1743
1872,1805,1743
1846,1910,1882
1829,1905,1906
1803,1808,1741
1845,1802,1733
1856,1979,1882
1817,1906,1887
1854,1776,1769
1870,1787,1776
1821,1845,1888
1791,1872,1885
1854,1853,1783
1899,1898,1757
1840,1852,1867
1774,1824,1907
1825,1902,1792
1900,1840,1734
1862,1969,1844
1806,1869,1874
1808,1730,1719
1858,1775,1746
1840,1920,1904
1783,1808,1894
1820,1814,1776
1885,1872,1727
1856,1979,1859
1796,1904,1894
1822,1817,1798
1867,1735,1771
1831,1817,1869
1791,1881,1870
1839,1828,1766
1903,1851,1733
1847,1881,1875
1805,1856,1895
1843,1757,1776
1887,1829,1786
1821,1825,1869
1814,1894,1909
1840,1921,1791
1872,1869,1707
1815,1803,1811
