1461,1808,1725
1453,1810,1818
1421,1824,1876
1433,1830,1781
1472,1740,1737
1463,1809,1837
1439,1891,1898
1445,1797,1787
1485,1818,1732
1482,1856,1842
1446,1872,1904
1456,1782,1799
1494,1808,1738
1487,1885,1841
1430,1878,1878
1454,1840,1777
1503,1838,1744
1486,1887,1854
1460,1921,1913
1473,1849,1813
1508,1811,1762
1489,1883,1858
1466,1895,1905
1479,1873,1805
1520,1841,1766
1517,1914,1875
1475,1872,1927
1479,1788,1824
1520,1813,1765
1521,1848,1855
1472,1914,1910
1495,1849,1825
1535,1794,1760
1525,1906,1875
1486,1911,1923
1509,1821,1826
1535,1855,1770
1527,1858,1865
1495,1899,1926
1518,1847,1834
1535,1830,1772
1535,1909,1871
1509,1920,1933
1524,1853,1837
1571,1853,1790
1555,1889,1891
1506,1930,1938
1523,1872,1840
1573,1855,1789
1567,1904,1887
1520,1939,1938
1531,1879,1838
1581,1843,1795
1559,1883,1893
1522,1951,1940
1535,1868,1840
1586,1886,1792
1583,1887,1904
1535,1941,1961
1557,1872,1855
1602,1925,1808
1588,1935,1901
1535,1914,1949
1566,1851,1854
1607,1886,1803
1593,1902,1910
1535,1941,1968
1580,1904,1867
1613,1865,1807
1605,1957,1904
1566,1920,1964
1586,1889,1877
1632,1872,1827
1617,1920,1917
1580,1941,1968
1584,1895,1868
1632,1878,1819
1621,1933,1917
1584,1964,1977
1595,1875,1871
1639,1867,1827
1618,1941,1922
1583,1963,1968
1605,1904,1870
1654,1879,1815
1638,1920,1914
1600,1968,1982
1612,1899,1883
1655,1882,1824
1647,1939,1920
1604,1943,1977
1623,1858,1874
1679,1843,1830
1663,1982,1933
1617,1968,1986
1625,1887,1879
1664,1872,1811
1655,1946,1927
1621,1947,1983
1631,1871,1881
1675,1850,1831
1663,1921,1916
1629,1949,1966
1642,1893,1872
1678,1874,1833
1680,1925,1933
1649,1907,1989
1657,1845,1885
1692,1851,1819
1679,1995,1935
1643,1953,1999
1650,1918,1889
1685,1855,1835
1677,1922,1927
1647,1877,1967
1651,1840,1887
1693,1833,1831
1695,1922,1929
1654,1995,1989
1676,1920,1885
1709,1840,1814
1706,1908,1911
1675,1968,1979
1681,1903,1888
1714,1840,1821
1697,1919,1919
1659,1943,1975
1665,1872,1878
1724,1867,1831
1715,1935,1933
1667,1931,1984
1679,1903,1886
1713,1807,1830
1709,1876,1930
1682,1930,1984
1685,1942,1895
1727,1872,1837
1722,1919,1935
1680,1938,1985
1689,1873,1889
1727,1863,1827
1726,1935,1922
1689,1935,1984
1701,1872,1888
1735,1825,1826
1721,1916,1923
1694,1915,1975
1711,1840,1879
1751,1855,1824
1743,1907,1930
1697,1903,1991
1706,1855,1875
1729,1859,1811
1733,1926,1911
1707,1954,1972
1723,1901,1879
1750,1808,1808
1745,1870,1909
1715,1905,1978
1727,1843,1872
1758,1837,1809
1747,1884,1906
1712,1927,1969
1722,1855,1871
1755,1793,1796
1744,1858,1902
1709,1905,1969
1722,1845,1882
1757,1824,1813
1744,1907,1904
1712,1919,1966
1725,1856,1866
1757,1833,1807
1760,1871,1905
1723,1904,1968
1726,1840,1863
1774,1823,1807
1750,1876,1903
1721,1909,1968
1738,1857,1867
1775,1859,1803
1759,1886,1894
1727,1895,1953
1744,1840,1860
1776,1801,1810
1773,1859,1912
1728,1893,1965
1731,1854,1854
1772,1823,1797
1773,1879,1893
1744,1902,1958
1749,1850,1855
1794,1818,1795
1786,1885,1899
1746,1911,1961
1759,1853,1859
1786,1813,1792
1781,1872,1895
1751,1909,1974
1776,1836,1872
1810,1815,1809
1797,1891,1907
1757,1904,1962
1774,1835,1861
1812,1814,1795
1801,1875,1904
1762,1905,1973
1766,1862,1860
1804,1829,1808
1808,1872,1915
1749,1941,1972
1774,1916,1867
1837,1808,1806
1840,1837,1894
1769,1874,1952
1759,1839,1873
1846,1829,1808
1792,1872,1901
1791,1904,1967
1814,1850,1861
1817,1827,1797
1797,1889,1887
1802,1915,1957
1779,1853,1861
1811,1829,1803
1850,1885,1894
1771,1910,1962
1840,1855,1866
1840,1826,1795
1827,1883,1897
1803,1909,1969
1801,1840,1868
1840,1850,1801
1826,1892,1895
1788,1874,1949
1776,1844,1858
1838,1839,1801
1823,1889,1899
1781,1906,1957
1766,1855,1862
1850,1846,1808
1811,1897,1904
1810,1913,1968
1787,1840,1869
1785,1821,1796
1826,1886,1903
1799,1905,1968
1776,1837,1868
1819,1821,1796
1841,1891,1892
1779,1917,1943
1837,1833,1859
1843,1787,1803
1863,1867,1896
1793,1903,1957
1792,1850,1856
1840,1809,1793
1829,1873,1888
1795,1881,1947
1810,1823,1851
1841,1808,1781
1839,1863,1872
1776,1885,1936
1809,1829,1841
1792,1802,1776
1842,1861,1868
1792,1883,1926
1811,1838,1826
1862,1799,1768
1873,1846,1866
1808,1872,1935
1777,1831,1840
1818,1791,1765
1849,1843,1857
1845,1872,1921
1802,1814,1830
1875,1796,1770
1863,1850,1859
1823,1873,1920
1830,1818,1822
1884,1787,1761
1866,1843,1847
1831,1872,1916
1809,1819,1828
1886,1799,1758
1917,1847,1853
1840,1856,1914
1826,1798,1825
1911,1783,1753
1894,1842,1847
1849,1870,1918
1839,1805,1814
1894,1785,1749
1917,1845,1842
1835,1872,1916
1894,1811,1826
1903,1787,1757
1936,1842,1845
1872,1872,1906
1846,1807,1808
1932,1787,1748
1873,1840,1847
1835,1846,1904
1856,1813,1814
1904,1803,1751
1914,1845,1846
1842,1852,1904
1860,1775,1814
1891,1776,1744
1879,1846,1840
1844,1855,1915
1852,1793,1824
1881,1771,1779
1866,1836,1826
1825,1855,1898
1851,1815,1850
1894,1814,1753
1879,1851,1885
1830,1840,1872
1845,1789,1755
1889,1778,1701
1874,1843,1840
1821,1877,1871
1872,1825,1875
1908,1783,1783
1838,1838,1804
1856,1859,1908
1847,1808,1808
1857,1788,1733
1872,1840,1808
1842,1863,1901
1820,1808,1840
1845,1782,1744
1851,1850,1843
1859,1895,1929
1841,1795,1823
1881,1758,1745
1871,1828,1829
1815,1867,1899
1860,1808,1842
1896,1779,1739
1881,1845,1899
1844,1863,1925
1845,1803,1794
1875,1786,1739
1839,1838,1822
1851,1872,1926
1882,1840,1840
1891,1821,1761
1872,1838,1841
1827,1859,1948
1841,1808,1818
1873,1787,1719
1886,1865,1839
1841,1872,1911
1857,1815,1837
1904,1802,1764
1855,1856,1854
1799,1872,1925
1879,1831,1872
1900,1808,1765
1889,1856,1877
1851,1878,1931
1865,1811,1866
1887,1805,1761
1866,1856,1875
1819,1897,1889
1805,1835,1819
1931,1799,1786
1907,1859,1823
1841,1858,1920
1845,1808,1848
1913,1785,1743
1820,1851,1834
1823,1879,1943
1799,1820,1835
1872,1774,1786
1811,1837,1811
1835,1874,1951
1869,1811,1820
1873,1776,1738
1872,1862,1865
1826,1865,1917
1840,1811,1822
1899,1792,1750
1857,1856,1808
1856,1862,1936
1822,1803,1821
1883,1788,1741
1903,1855,1849
1849,1872,1915
1841,1817,1825
1872,1789,1749
1798,1822,1840
1781,1870,1909
1844,1797,1826
1847,1776,1759
1851,1840,1831
1808,1872,1906
1824,1815,1949
1866,1791,1744
1862,1856,1829
1825,1863,1889
1821,1821,1884
1868,1801,1857
1837,1846,1874
1818,1870,1888
1818,1810,1865
1875,1783,1764
1835,1850,1851
1905,1894,1925
1821,1822,1840
1873,1785,1757
1882,1841,1856
1829,1872,1920
1840,1823,1834
1862,1797,1759
1872,1856,1856
1840,1879,1934
1831,1843,1835
1868,1792,1745
1872,1840,1829
1840,1873,1926
1873,1822,1894
1869,1792,1746
1840,1851,1841
1743,1889,1910
1873,1833,1850
1854,1788,1799
1874,1840,1843
1819,1855,1947
1887,1837,1795
1846,1808,1818
1877,1864,1840
1887,1891,1920
1823,1829,1839
1895,1806,1795
1840,1850,1850
1875,1881,1873
1830,1824,1838
1889,1811,1773
1856,1867,1812
1831,1894,1922
1839,1837,1852
1872,1806,1795
1868,1862,1846
1851,1894,1936
1877,1842,1854
1857,1794,1806
1861,1853,1841
1843,1897,1981
1808,1824,1842
1873,1791,1769
1906,1863,1862
1840,1904,1923
1839,1841,1845
1872,1841,1781
1871,1870,1853
1826,1882,1939
1851,1830,1853
1879,1810,1766
1910,1867,1861
1888,1893,1958
1862,1842,1869
1897,1813,1751
1915,1871,1862
1839,1925,1919
1841,1849,1887
1891,1797,1767
1878,1863,1935
1883,1914,1933
1884,1869,1855
1930,1841,1767
1963,1856,1872
1968,1889,1933
1911,1842,1838
1901,1811,1778
1968,1871,1871
1917,1921,1938
1920,1851,1855
1963,1811,1776
1959,1875,1868
1921,1918,1951
1919,1837,1862
1960,1830,1777
1951,1890,1843
1913,1916,1925
1913,1851,1853
2009,1812,1791
1934,1888,1873
1913,1920,1947
1904,1859,1843
1913,1834,1773
1949,1901,1862
1889,1920,1937
1901,1869,1844
1904,1813,1765
1951,1877,1851
1959,1921,1943
1867,1846,1857
2016,1819,1776
1939,1865,1856
1872,1921,1935
1947,1878,1847
1991,1858,1776
1954,1881,1857
1917,1936,1936
1930,1865,1847
1962,1835,1780
1961,1891,1859
1918,1927,1937
1925,1873,1853
1934,1847,1778
1943,1907,1869
1881,1948,1947
1929,1901,1858
1956,1833,1778
1942,1890,1862
1887,1927,1951
1937,1899,1873
1969,1854,1798
1963,1904,1873
1895,1936,1943
1952,1889,1859
1969,1852,1791
1968,1920,1879
1930,1951,1953
1935,1894,1863
1968,1857,1781
1921,1921,1882
1941,1949,1960
1950,1906,1872
1981,1872,1803
1970,1903,1884
1919,1923,1949
1930,1887,1863
1968,1856,1796
1995,1908,1887
1947,1938,1961
1957,1892,1877
1999,1868,1805
1974,1920,1887
1901,1939,1949
1931,1891,1869
1998,1870,1805
1975,1931,1891
1907,1971,1968
1931,1897,1874
1963,1853,1793
1977,1904,1879
1909,1957,1968
1903,1891,1886
2011,1842,1803
1965,1904,1885
1922,1942,1970
1909,1893,1874
1986,1865,1804
1957,1918,1904
1974,1937,1959
1919,1885,1877
1934,1872,1804
1963,1940,1890
1939,1961,1968
1935,1897,1892
1979,1866,1812
1971,1921,1890
1920,1950,1970
1936,1915,1875
1963,1826,1799
1968,1914,1891
1926,1953,1970
1949,1895,1885
1968,1868,1808
1968,1921,1890
1971,1963,1970
1926,1893,1893
1904,1862,1808
1957,1911,1894
1936,1956,1973
1920,1904,1890
1998,1872,1812
2017,1933,1891
1926,1968,1977
1971,1900,1891
1968,1863,1810
1958,1920,1898
1922,1976,1984
1926,1906,1885
1957,1854,1807
1946,1904,1890
1904,1947,1966
1917,1903,1883
1963,1872,1820
1965,1909,1895
1909,1936,1961
1885,1887,1882
1975,1852,1810
1957,1908,1889
1936,1950,1969
1891,1905,1886
1921,1865,1798
1945,1921,1878
1897,1961,1961
1920,1899,1883
1931,1847,1805
1968,1903,1873
1898,1933,1951
1942,1875,1873
1968,1852,1803
2020,1904,1883
1888,1915,1959
1911,1861,1878
1943,1859,1805
1936,1936,1882
1904,1949,1958
1890,1881,1883
1916,1850,1815
1940,1904,1885
1923,1947,1962
1827,1878,1872
1933,1830,1801
1923,1890,1883
1887,1951,1972
1902,1873,1882
1905,1831,1803
1941,1877,1878
1898,1920,1960
1886,1871,1866
1920,1829,1779
1969,1892,1866
1942,1924,1951
1904,1879,1885
1933,1840,1807
1921,1886,1875
1899,1927,1952
1885,1862,1863
1899,1839,1789
1926,1886,1871
1910,1913,1958
1909,1850,1872
1875,1833,1785
1902,1889,1865
1867,1920,1947
1885,1875,1869
1911,1826,1776
1901,1873,1867
1907,1916,1952
1881,1857,1871
1935,1827,1776
1919,1878,1867
1870,1917,1945
1872,1874,1856
1919,1840,1782
1922,1873,1871
1878,1905,1957
1873,1856,1871
1919,1840,1782
1922,1891,1863
1879,1919,1952
1877,1869,1866
1907,1840,1776
1916,1872,1859
1871,1913,1931
1874,1862,1860
1911,1823,1778
1915,1873,1857
1870,1897,1942
1871,1852,1858
1904,1839,1769
1907,1894,1852
1872,1904,1946
1872,1842,1856
1909,1814,1770
1908,1868,1858
1853,1904,1934
1854,1858,1854
1893,1820,1766
1898,1874,1847
1857,1904,1940
1860,1859,1863
1891,1808,1772
1895,1850,1845
1847,1924,1927
1845,1875,1845
1889,1829,1759
1902,1883,1843
1856,1903,1930
1854,1855,1842
1892,1811,1765
1890,1862,1840
1855,1898,1926
1856,1854,1853
1891,1808,1767
1901,1863,1845
1856,1904,1929
1853,1854,1853
1887,1829,1767
1891,1870,1840
1846,1897,1907
1856,1820,1840
1898,1823,1761
1901,1879,1852
1842,1879,1921
1852,1833,1849
1877,1797,1766
1885,1861,1834
1840,1903,1916
1845,1837,1842
1886,1808,1765
1889,1856,1840
1841,1903,1927
1840,1850,1841
1876,1797,1763
1873,1856,1849
1831,1910,1922
1825,1824,1828
1867,1767,1743
1872,1839,1834
1826,1873,1921
1831,1815,1835
1871,1789,1745
1872,1843,1822
1817,1887,1903
1817,1808,1835
1861,1769,1751
1863,1824,1834
1821,1872,1922
1825,1833,1841
1855,1775,1742
1858,1814,1824
1827,1866,1911
1828,1830,1840
1867,1786,1751
1863,1840,1812
1815,1856,1903
1812,1800,1834
1847,1776,1744
1854,1835,1825
1821,1869,1903
1808,1803,1813
1849,1763,1739
1856,1813,1821
1813,1857,1911
1815,1808,1824
1851,1779,1734
1849,1792,1814
1808,1835,1915
1804,1804,1839
1853,1781,1746
1856,1819,1825
1818,1851,1907
1807,1808,1830
1841,1751,1745
1848,1819,1814
1809,1850,1895
1809,1791,1821
1839,1755,1746
1835,1798,1821
1808,1844,1900
1805,1807,1819
1841,1764,1746
1840,1792,1813
1798,1837,1904
1789,1789,1821
1825,1751,1734
1838,1808,1808
1799,1843,1904
1806,1792,1831
1837,1751,1734
1837,1803,1801
1790,1839,1894
1799,1788,1831
1835,1744,1744
1829,1791,1809
1791,1815,1885
1786,1787,1813
1833,1721,1737
1839,1819,1807
1791,1883,1898
1782,1751,1806
1815,1680,1690
1812,1744,1779
1773,1825,1895
1763,1779,1811
1802,1715,1716
1808,1754,1783
1767,1773,1871
1757,1707,1783
1796,1729,1707
1791,1770,1761
1740,1776,1819
1724,1698,1760
1771,1634,1671
1762,1696,1737
1722,1757,1837
1721,1695,1746
1744,1671,1649
1745,1776,1737
1698,1801,1814
1665,1565,1686
1691,1590,1584
1682,1708,1644
1641,1616,1759
1626,1661,1671
1680,1616,1529
1646,1599,1535
1598,1593,1681
1535,1503,1656
1573,1437,1560
1636,1599,1651
1554,1718,1644
1456,1406,1439
1445,1427,1332
1469,1584,1456
1424,1475,1535
1422,1467,1506
1433,1435,1341
1453,1409,1394
1463,1671,1535
1439,1456,1443
1407,1286,1232
1462,1575,1360
1418,1637,1531
1387,1399,1453
1473,1153,1294
1509,1254,1373
1759,1466,1469
1498,1429,1402
1297,1392,1339
1307,1337,1413
1420,1339,1501
1396,1439,1482
1351,1318,1327
1357,1235,1356
1328,1482,1453
1312,1361,1389
1346,1307,1326
1371,1367,1360
1306,1569,1502
1307,1399,1422
1392,1163,1263
1405,1264,1392
1199,1534,1634
1164,1426,1584
1298,1345,1425
1365,1499,2062
1327,1676,2032
1247,1339,1664
1321,1316,1759
1283,1505,2002
1291,1483,1723
1216,1341,2183
1101,1264,2032
1114,1339,1558
1133,1403,1661
1211,1535,1814
1200,1463,1860
1153,1562,1843
1185,1634,1826
1125,1458,1821
1102,1375,1827
1110,1389,1831
1100,1411,1829
1065,1535,1825
1107,1521,1829
1136,1614,1831
1139,1680,1828
1139,1709,1825
1056,1613,1827
1125,1583,1830
1072,1456,1842
929,1520,2000
1168,1599,1813
1149,1663,1680
896,1553,1791
882,1535,1871
1008,1535,2066
1133,1679,1871
960,1653,2057
859,1520,1559
943,1419,1833
1046,1502,0
1107,1661,0
1023,1696,0
1018,1561,0
1065,1584,317
1113,1624,1658
1103,1569,1985
1102,1520,1929
1117,1563,1831
1133,1814,1807
1223,1794,1819
1142,1582,1826
1137,1554,1829
1143,1606,1833
1187,1760,1827
1235,1789,1827
1262,1712,1825
1222,1711,1825
1235,1659,1826
1299,1739,1827
1355,1985,1833
1290,1939,1830
1200,1616,1825
1264,1684,1827
1330,1701,1829
1303,1776,1827
1293,1751,1826
1449,1969,1828
1338,1892,1827
1136,1735,1828
1165,1626,1825
1298,1662,1826
1335,1749,1833
1291,1869,1828
1296,1817,1838
1365,1731,1856
1364,1874,1934
1322,2016,2046
1327,1889,1939
1375,1716,1767
1408,1754,1841
1344,1828,1847
1384,1728,1858
1419,1778,1856
1415,1861,1907
1390,2112,1962
1345,1845,1846
1415,1600,1730
1419,1829,1794
1382,1835,1904
1437,1717,1855
1517,1768,1811
1456,1821,1841
1409,1931,1892
1441,1867,1801
1488,1865,1719
1503,1801,1809
1456,1925,1936
1433,1729,1830
1483,1824,1715
1509,1920,1812
1506,1943,1920
1507,1859,1776
1581,1797,1693
1529,1792,1810
1503,1910,1887
1511,1825,1749
1585,1753,1664
1617,1871,1779
1515,1936,1904
1486,1827,1789
1585,1808,1707
1619,1939,1782
1588,1917,1863
1579,1943,1808
1600,1728,1702
1616,1846,1733
1582,1898,1797
1572,1774,1834
1677,1852,1701
1667,1854,1761
1558,1872,1839
1566,1817,1759
1661,1845,1730
1662,1915,1758
1617,2015,1846
1607,1854,1775
1646,1761,1680
1683,1857,1743
1629,1861,1811
1616,1776,1741
1702,1822,1674
1751,1824,1713
1679,1938,1844
1635,1837,1840
1698,1712,1713
1719,1731,1713
1715,1968,1793
1680,1935,1749
1706,1680,1664
1749,1837,1718
1710,1823,1871
1709,1892,1783
1744,1853,1635
1743,1841,1710
1681,1813,1873
1748,1929,1797
1777,1762,1613
1729,1885,1716
1675,1766,1808
1703,1767,1777
1789,1808,1713
1762,1747,1739
1728,1809,1839
1760,1889,1789
1782,1834,1661
1773,1757,1680
1723,1819,1769
1745,1778,1766
1855,1811,1697
1882,1862,1758
1807,1883,1788
1731,1703,1765
1754,1696,1664
1805,1862,1721
1781,1808,1872
1761,1778,1771
1806,1695,1637
1823,1838,1707
1794,1936,1840
1781,1858,1771
1827,1773,1693
1861,1882,1776
1795,1732,1805
1798,1693,1719
1840,1761,1673
1873,1822,1750
1882,1946,1809
1858,1860,1792
1811,1673,1703
1870,1808,1747
1813,1878,1783
1799,1890,1786
1866,1855,1725
1865,1763,1746
1839,1926,1840
1865,1851,1746
1852,1767,1670
1844,1810,1766
1835,1845,1840
1840,1806,1777
1920,1841,1691
1895,1872,1712
1823,1904,1807
1862,1889,1829
1927,1775,1680
1927,1871,1719
1835,1776,1831
1818,1841,1776
1895,1832,1687
1919,1835,1783
1872,1857,1869
1879,1856,1791
1926,1879,1706
1950,2078,1814
1895,1936,1840
1897,1770,1739
1924,1722,1631
1933,1796,1756
1934,2082,1904
1883,1815,1777
1915,1705,1663
1909,1790,1749
1857,1846,1866
1872,1865,1802
1956,1890,1707
1959,1917,1764
1887,1923,1838
1904,1842,1807
1926,1846,1712
1932,1911,1775
1920,1925,1840
1904,1778,1759
1923,1808,1689
1934,1898,1802
1921,2022,1904
1895,1919,1795
1938,1702,1669
1950,1846,1749
1896,1981,1838
1907,1887,1797
1941,1730,1690
1979,1803,1760
1997,2057,1842
1933,1910,1770
1901,1735,1681
1915,1842,1796
1904,1841,1898
1943,1902,1791
1933,1902,1669
1925,1868,1783
1894,1798,1886
1905,1904,1793
1954,1819,1680
1963,1840,1733
1904,1881,1846
1935,1949,1821
1997,1872,1727
1937,1785,1738
1891,1854,1872
1920,1890,1808
1971,1827,1680
1924,1794,1715
1888,1808,1849
1893,1909,1840
1939,1840,1731
1965,1831,1763
1933,1914,1861
1925,2045,1839
1964,1781,1711
1952,1838,1778
1911,1925,1871
1922,1859,1783
1942,1729,1716
1940,1803,1769
1903,1896,1874
1925,1874,1825
1973,1933,1722
1964,1910,1759
1904,1809,1833
1919,1821,1807
1963,1844,1710
1995,1895,1777
1970,1739,1905
1933,1801,1808
1968,1926,1685
1988,1892,1799
1882,1823,1865
1911,1815,1757
1998,1798,1703
1935,1856,1768
1915,1935,1888
1895,1889,1813
1953,1747,1737
1984,1774,1763
1920,1869,1852
1920,1813,1788
1979,1793,1738
1975,1899,1766
1907,1929,1843
1936,1819,1781
2029,1895,1723
2020,1914,1809
1890,1840,1856
1843,1760,1809
1920,1715,1708
1981,1808,1791
1991,1917,1899
1945,1904,1801
1936,1846,1673
1954,1872,1763
1904,1936,1866
1917,1863,1835
1961,1754,1713
1970,1801,1791
1937,1879,1947
1923,1855,1839
1964,1839,1715
1970,1823,1774
1929,1877,1889
1923,1774,1810
2009,1808,1664
1943,1896,1742
1865,1919,1840
1885,1799,1825
1957,1762,1747
1952,1794,1808
1919,1865,1843
1943,1825,1839
1953,1808,1774
1919,1728,1779
1865,1824,1826
1887,1872,1806
1968,1865,1759
1983,1801,1795
1950,1825,1872
1904,1931,1869
1913,1882,1765
1917,1686,1763
1887,1693,1873
1904,1755,1815
1949,1804,1743
1949,1922,1753
1893,1904,1865
1871,1776,1825
1920,1778,1744
1954,2032,1808
1936,1837,1840
1936,1742,1806
1918,1689,1741
1904,1846,1810
1879,1783,1883
1887,1893,1845
1937,1851,1716
1926,1927,1808
1860,1777,1818
1858,1790,1825
1936,1794,1746
1965,1813,1745
1875,1839,1837
1878,1788,1818
1932,1753,1743
1925,1817,1744
1898,1856,1841
1917,1999,1872
1925,1851,1742
1931,1755,1722
1850,1801,1826
1875,1781,1815
1933,1832,1702
1933,1819,1782
1870,1910,1917
1839,1766,1818
1913,1870,1775
1961,1919,1831
1861,1771,1826
1857,1714,1801
1906,1769,1681
1904,1783,1835
1851,1867,1904
1864,1872,1813
1903,1851,1718
1902,1786,1790
1926,1823,1872
1893,1845,1805
1872,1857,1733
1887,1810,1823
1840,1808,1899
1839,1791,1829
1892,1744,1713
1933,1819,1747
1901,1906,1886
1839,1779,1919
1878,1813,1748
1897,1898,1776
1856,1843,1891
1856,1810,1872
1882,1762,1703
1934,1766,1803
1853,1842,1873
1885,1872,1881
1863,1770,1712
1862,1818,1767
1824,1801,1875
1866,1757,1891
1949,1749,1710
1899,1749,1758
1808,1878,1915
1847,1831,1856
1877,1747,1723
1904,1797,1781
1903,1846,1857
1831,1876,1844
1842,1810,1711
1901,1808,1791
1872,1869,1909
1859,1767,1872
1885,1733,1680
1895,1775,1798
1827,1835,1904
1831,1815,1939
1890,1773,1743
1898,1861,1712
1826,1911,1868
1840,1793,1863
1914,1744,1697
1931,1826,1726
1862,1835,1881
1834,1744,1840
1890,1773,1751
1882,1801,1753
1831,1885,1849
1847,1804,1869
1895,1774,1738
1886,1838,1780
1854,1898,1889
1865,1787,1904
1935,1825,1715
1892,1760,1767
1827,1727,1922
1847,1758,1881
1920,1792,1747
1877,1830,1755
1825,1904,1907
1834,1906,1879
1886,1745,1751
1907,1712,1808
1865,1837,1890
1840,1793,1818
1904,1902,1776
1903,1834,1806
1846,1831,1902
1840,1776,1739
1935,1684,1764
1880,1841,1810
1793,1879,1853
1808,1777,1845
1888,1873,1747
1902,1803,1776
1853,1876,1847
1828,1803,1869
1856,1664,1744
1884,1781,1781
1871,1868,1835
1818,1887,1849
1847,1771,1726
1879,1749,1803
1872,1918,1931
1885,1897,1822
1883,1783,1761
1873,1774,1823
1831,1794,1919
1803,1791,1887
1854,1785,1745
1922,1852,1789
1878,1888,1930
1838,2022,1872
1858,1723,1738
1873,1747,1760
1829,1800,1903
1902,1813,1870
1886,1789,1786
1870,1797,1847
1843,1851,1886
1867,1869,1872
1890,1947,1808
1894,1791,1830
1828,1807,1877
1836,1808,1834
1913,1861,1746
1895,1827,1820
1840,1808,1915
1849,1805,1824
1889,1790,1753
1863,1771,1823
1840,1852,1933
1931,1863,1873
1846,1812,1731
1854,1771,1789
1841,1878,1895
1872,1851,1825
1881,1791,1776
1839,1872,1797
1797,1840,1909
1861,1897,1893
1872,1747,1761
1933,1744,1791
1823,1904,1886
1749,1826,1827
1840,1792,1757
1859,1833,1813
1856,1847,1906
1824,1831,1872
1872,1849,1758
1921,1887,1793
1835,1854,1871
1845,1795,1858
1890,1760,1811
1878,1776,1801
1811,1874,1909
1817,1942,1879
1890,1808,1749
1900,1767,1737
1862,1840,1872
1871,1808,1893
1897,1865,1786
1879,1838,1829
1855,1787,1935
1839,1781,1871
1843,1739,1770
1869,1854,1790
1813,1975,1897
1796,1908,1840
1873,1778,1760
1904,1861,1833
1854,1872,1942
1830,1845,1869
1872,1756,1753
1929,1878,1799
1867,1931,1875
1856,1803,1803
1856,1745,1766
1906,1825,1826
1856,1902,1906
1859,1875,1865
1845,1808,1774
1860,1740,1817
1847,1888,1901
1835,1851,1870
1810,1760,1750
1872,1838,1795
1812,1904,1922
1777,1839,1884
1856,1755,1760
1953,1835,1847
1811,1871,1925
1798,1843,1869
1852,1749,1779
1882,1846,1821
1809,1942,1899
1835,1940,1833
1955,1768,1767
1865,1776,1811
1837,1858,1900
1819,1847,1853
1917,1743,1773
1878,1855,1808
1872,1910,1904
1883,1851,1871
1915,1774,1771
1828,1826,1823
1776,1853,1904
1827,1925,1886
1869,1838,1782
1862,1776,1778
1840,1837,1901
1840,1840,1890
1895,1882,1794
1929,1907,1795
1835,1847,1894
1803,1776,1869
1851,1779,1780
1930,1906,1872
1856,1941,1967
1871,1715,1861
1901,1831,1732
1849,1875,1807
1782,1923,1915
1792,1783,1860
1821,1749,1753
1936,1837,1805
1835,1879,1941
1779,1894,1871
1882,1866,1776
1934,1872,1872
1863,1985,1906
1827,1767,1842
1825,1693,1759
1874,1809,1850
1891,1968,1927
1911,1985,1865
1836,1887,1712
1803,1744,1744
1795,1771,1883
1815,1826,1884
1860,1843,1791
1932,1867,1826
1790,1879,1904
1785,1808,1872
1862,1872,1790
1936,1854,1805
1821,1903,1872
1824,1881,1899
1909,1806,1755
1935,1850,1782
1840,1826,1848
1731,1808,1869
1899,1782,1798
1845,1826,1849
1910,2103,1968
1777,1843,1811
1830,1685,1705
1840,1758,1791
1872,1957,1943
1815,1887,1875
1830,1777,1746
1891,1819,1782
1872,1895,1936
1818,1861,1885
1872,1815,1767
1953,1949,1824
1882,2128,1983
1770,1828,1837
1790,1664,1664
1823,1743,1771
1822,1814,1930
1844,1917,1895
1872,1799,1799
1850,1887,1797
1873,1957,1899
1827,1843,1882
1882,1888,1758
1914,1894,1808
1834,1866,1908
1836,1793,1867
1845,1774,1763
1856,1741,1774
1808,1829,1872
1758,1845,1846
1839,1846,1801
1911,1959,1840
1824,1858,1878
1790,1826,1834
1881,1843,1758
1901,1987,1847
1890,1918,1901
1808,1763,1826
1776,1681,1776
1859,1776,1822
1840,1925,1886
1827,1904,1862
1867,1756,1783
1877,1885,1807
1837,1906,1859
1813,1843,1855
1843,1921,1802
1873,1933,1872
1811,1786,1876
1790,1696,1813
1860,1786,1742
1910,1957,1873
1847,1904,1910
1822,1771,1831
1869,1807,1742
1856,1839,1797
1818,1904,1930
1806,1930,1872
1867,1894,1776
1849,1803,1805
1817,1851,1925
1819,1943,1883
1840,1775,1744
1862,1759,1751
1829,1868,1886
1837,1858,1921
1850,1856,1787
1904,1888,1806
1839,1858,1936
1830,1876,1922
1859,1791,1775
1890,1827,1783
1823,1873,1910
1794,1847,1847
1846,1793,1754
1860,1856,1808
1823,1902,1916
1841,1844,1878
1874,1874,1744
1856,1868,1805
1808,1861,1917
1820,1850,1900
1891,1837,1796
1895,1857,1750
1834,1830,1825
1775,1830,1883
1840,1811,1798
1866,1820,1823
1823,1880,1904
1851,1899,1835
1881,1868,1744
1899,1872,1815
1850,1846,1904
1802,1795,1898
1856,1797,1783
1870,1935,1796
1868,1919,1926
1842,1859,1895
1851,1726,1729
1850,1824,1772
1827,1887,1920
1824,1898,1876
1867,1866,1778
1883,1819,1811
1847,1856,1934
1835,1833,1867
1886,1808,1762
1905,1842,1766
1856,1914,1920
1807,1813,1905
1847,1765,1783
1914,1857,1802
1845,1882,1888
1837,1975,1881
1895,1857,1763
1895,1818,1777
1798,1839,1913
1808,1888,1921
1866,1810,1773
1887,1774,1762
1818,1838,1883
1826,1871,1893
1859,1818,1776
1872,1840,1808
1835,1975,1927
1823,1919,1872
1863,1740,1774
1901,1860,1826
1845,1905,1920
1802,1827,1873
1875,1763,1762
1891,1840,1808
1820,1901,1945
1809,1869,1904
1863,1793,1751
1872,1840,1806
1849,1874,1949
1811,1809,1915
1838,1766,1807
1871,1829,1823
1826,1886,1954
1794,1885,1905
1839,1829,1789
1878,1829,1777
1899,1910,1911
1808,1820,1907
1813,1824,1789
1856,1911,1826
1825,1846,1953
1817,1806,1888
1847,1776,1774
