1824,1884,1887
1855,1819,1782
1872,1838,1759
1840,1893,1882
1843,1855,1899
1855,1817,1758
1903,1852,1788
1817,1917,1904
1854,2003,1922
1822,1761,1769
1871,1717,1750
1845,1840,1868
1798,1857,1883
1855,1809,1780
1883,1842,1795
1885,1947,1910
1808,1866,1904
1827,1782,1779
1922,1822,1781
1901,1905,1895
1819,1847,1891
1843,1808,1778
1889,1835,1776
1855,1904,1901
1825,1941,1919
1856,1838,1787
1888,1763,1770
1872,1840,1904
1867,1894,1937
1870,1830,1783
1886,1791,1746
1822,1871,1883
1829,1891,1911
1847,1826,1783
1841,1744,1769
1799,1799,1874
1807,1834,1891
1792,1823,1776
1870,1799,1771
1789,1829,1885
1823,1826,1889
1837,1776,1772
1876,1794,1766
1875,1838,1881
1798,1831,1877
1817,1763,1759
1840,1760,1738
1824,1833,1865
1806,1823,1904
1829,1734,1779
1851,1711,1742
1812,1731,1861
1777,1683,1869
1893,1580,1747
1860,1525,1759
1806,1516,1883
1779,1437,1871
1780,1328,1754
1853,1316,1764
1784,1331,1873
1764,1276,1871
1749,1171,1734
1780,1147,1717
1792,1185,1840
1725,1154,1853
1725,1071,1730
1838,1072,1723
1774,1124,1845
1783,1104,1855
1771,1031,1744
1776,1023,1731
1811,1078,1839
1763,1070,1847
1750,999,1745
1813,1006,1730
1776,1072,1838
1749,1057,1850
1797,997,1735
1770,995,1701
1761,1051,1810
1711,1050,1841
1761,982,1723
1822,982,1712
1717,1057,1833
1715,1059,1828
1733,988,1699
1776,1010,1706
1762,1105,1840
1745,1120,1866
1834,1073,1763
1845,1113,1769
1839,1212,1904
1813,1217,1918
1852,1166,1808
1895,1195,1808
1855,1283,1936
1821,1302,1952
1921,1259,1861
1905,1282,1861
1897,1359,1950
1808,1371,1968
1875,1335,1861
1918,1366,1854
1887,1459,1971
1861,1477,1984
1888,1435,1857
1935,1466,1860
1929,1586,1979
1913,1648,2014
1952,1664,1923
2001,1767,1925
1974,1933,2033
1952,2027,2047
1985,2041,1937
2028,2128,1936
2001,2251,2058
1957,2294,2073
1989,2276,1947
2028,2328,1931
2017,2437,2064
1991,2461,2082
2026,2425,1955
2047,2469,1943
2014,2559,2066
1998,2593,2084
2019,2544,1974
2047,2559,1948
2017,2651,2055
1997,2671,2082
2006,2606,1943
2037,2615,1919
2018,2699,2063
1995,2709,2074
2028,2640,1937
2061,2662,1920
2023,2735,2037
1997,2726,2044
2007,2654,1902
2015,2665,1856
1981,2735,1974
1986,2738,2027
2023,2672,1920
2045,2680,1887
1999,2750,1975
1958,2745,1989
1983,2672,1859
2000,2682,1834
1980,2765,1963
1949,2784,1974
1969,2731,1857
1981,2749,1825
1925,2831,1918
1935,2838,1968
1954,2779,1864
1961,2784,1825
1923,2859,1933
1887,2870,1950
1897,2807,1815
1925,2827,1808
1905,2928,1937
1875,2942,1955
1889,2880,1825
1909,2907,1808
1879,2996,1907
1844,3002,1910
1907,2953,1826
1946,2945,1798
1894,2996,1881
1856,2983,1869
1904,2928,1763
1943,2929,1742
1936,3018,1859
1913,3041,1869
1959,2981,1760
1991,2983,1719
1999,3131,1856
2028,3152,1929
2066,3063,1808
2103,3085,1773
2083,3199,1887
2065,3184,1908
2122,3099,1821
2161,3111,1808
2160,3217,1918
2129,3280,1929
2146,3195,1806
2182,3199,1787
2176,3291,1904
2167,3298,1933
2190,3216,1805
2197,3191,1749
2198,3329,1894
2173,3331,1888
2187,3205,1750
2217,3234,1744
2208,3350,1904
2192,3339,1904
2192,3172,1733
2261,3186,1779
2249,3291,1877
2209,3301,1863
2202,3169,1727
2250,3167,1731
2235,3257,1871
2210,3262,1893
2224,3173,1743
2269,3211,1712
2256,3323,1840
2222,3280,1840
2229,3159,1680
2269,3220,1693
2243,3385,1828
2214,3382,1856
2218,3170,1709
2256,3184,1697
2256,3374,1814
2234,3406,1872
2244,3277,1776
2282,3297,1759
2278,3414,1856
2247,3417,1883
2257,3299,1775
2288,3326,1770
2265,3415,1904
2226,3392,1931
2242,3312,1891
2288,3270,1835
2242,3321,1815
2205,3315,1822
2234,3216,1829
2249,3248,1831
2256,3294,1825
2221,3280,1827
2227,3137,1829
2256,3100,1831
2217,3185,1829
2170,3168,1832
2203,3031,1829
2247,3054,1830
2213,3056,1831
2169,2994,1826
2179,2879,1831
2210,2955,1831
2179,2992,1826
2144,2970,1830
2169,2833,1831
2202,2814,1833
2137,2860,1833
2098,2834,1826
2161,2784,1829
2185,2749,1825
2145,2781,1831
2115,2762,1827
2133,2655,1833
2147,2669,1827
2103,2732,1831
2061,2713,1831
2071,2599,1827
2110,2547,1837
2075,2648,1893
2032,2639,1853
2071,2489,1765
2099,2515,1766
2064,2542,1904
2039,2599,1943
2027,2431,1776
2046,2363,1744
2032,2459,1855
2000,2431,1885
2012,2391,1804
2047,2385,1774
2001,2422,1825
1942,2415,1849
2000,2253,1796
2032,2307,1782
1999,2353,1872
1965,2384,1857
2001,2353,1774
2005,2320,1794
1925,2176,1857
1894,2176,1850
1927,2115,1738
1963,2142,1744
1926,2211,1889
1885,2205,1858
1881,2086,1729
1925,2036,1730
1904,2120,1847
1862,2090,1852
1872,1987,1699
1926,2003,1713
1895,2099,1843
1855,2055,1840
1888,1957,1703
1882,1948,1680
1834,2002,1772
1823,1956,1840
1857,1904,1729
1889,1872,1701
1857,1906,1803
1820,1893,1808
1843,1799,1696
1874,1756,1675
1850,1843,1786
1815,1835,1809
1834,1710,1693
1872,1729,1673
1840,1782,1777
1811,1808,1806
1839,1648,1685
1873,1669,1676
1830,1779,1770
1783,1674,1788
1809,1617,1690
1856,1600,1675
1825,1610,1787
1794,1597,1798
1802,1555,1680
1830,1520,1639
1819,1611,1779
1783,1629,1808
1808,1463,1684
1838,1508,1648
1783,1526,1759
1754,1500,1781
1775,1450,1680
1809,1395,1659
1786,1499,1762
1746,1475,1783
1774,1429,1681
1803,1366,1662
1751,1391,1744
1684,1360,1737
1662,1271,1584
1653,1201,1534
1613,1231,1615
1535,1182,1606
1505,1089,1446
1488,1050,1376
1430,1069,1466
1379,1040,1470
1374,937,1340
1394,909,1310
1366,961,1415
1326,946,1427
1322,853,1294
1341,802,1245
1328,915,1376
1302,935,1422
1321,816,1296
1347,860,1264
1312,922,1393
1285,855,1433
1312,816,1322
1345,880,1299
1328,890,1425
1301,897,1455
1328,839,1348
1373,835,1326
1363,912,1456
1338,921,1491
1366,851,1389
1406,855,1364
1375,940,1477
1354,955,1535
1399,955,1449
1449,859,1424
1433,977,1565
1424,969,1602
1456,944,1498
1495,941,1488
1487,1114,1625
1473,1136,1673
1514,975,1567
1569,970,1557
1535,1061,1681
1520,1135,1714
1559,1022,1615
1603,1090,1600
1604,1053,1729
1587,1222,1771
1606,1099,1670
1663,1005,1670
1645,1200,1788
1626,1185,1818
1667,1089,1717
1713,1158,1725
1714,1234,1869
1698,1264,1911
1727,1185,1807
1761,1164,1795
1748,1327,1917
1729,1283,1957
1764,1172,1855
1801,1286,1837
1776,1264,1955
1744,1272,1979
1776,1235,1872
1825,1249,1857
1813,1333,1986
1803,1333,2028
1826,1290,1931
1874,1290,1917
1866,1374,2041
1845,1388,2082
1886,1331,1981
1936,1340,1968
1915,1417,2077
1898,1426,2123
1933,1347,2019
1970,1322,2000
1951,1411,2121
1931,1429,2160
1963,1392,2044
1991,1392,2019
1979,1393,2146
1955,1470,2173
1973,1487,2064
2016,1504,2053
2007,1488,2176
1984,1535,2192
2008,1455,2091
2055,1466,2076
2032,1535,2183
1999,1517,2217
2018,1475,2096
2073,1475,2091
2064,1564,2215
2032,1570,2240
2047,1493,2123
2079,1497,2087
2062,1573,2192
2019,1582,2226
2037,1503,2126
2093,1518,2099
2072,1607,2207
2033,1607,2225
2047,1530,2115
2089,1520,2091
2071,1606,2204
2031,1610,2224
2043,1535,2121
2091,1535,2103
2080,1613,2202
2041,1625,2215
2055,1555,2112
2094,1535,2096
2065,1618,2205
2041,1621,2231
2063,1554,2115
2096,1535,2079
2066,1623,2177
2036,1637,2213
2075,1570,2111
2112,1571,2087
2095,1640,2179
2033,1646,2199
2064,1565,2085
2114,1561,2065
2096,1638,2182
2043,1638,2203
2070,1569,2091
2102,1565,2062
2084,1635,2162
2039,1631,2181
2061,1562,2067
2098,1565,2042
2084,1637,2160
2040,1641,2181
2059,1572,2062
2093,1565,2025
2064,1637,2138
2032,1649,2173
2058,1581,2064
2096,1575,2006
2074,1641,2129
2029,1662,2158
2047,1595,2023
2105,1589,2007
2083,1664,2117
2041,1671,2149
2062,1594,2028
2094,1597,1985
2065,1667,2094
2031,1680,2142
2065,1619,2032
2103,1620,2000
2076,1696,2098
2032,1695,2133
2053,1626,2020
2083,1625,1979
2064,1697,2087
2029,1698,2117
2054,1633,2009
2096,1635,1973
2070,1712,2085
2032,1723,2114
2038,1648,1984
2082,1659,1936
2064,1730,2061
2032,1742,2097
2064,1667,1983
2096,1667,1938
2062,1738,2042
2011,1744,2075
2035,1680,1967
2082,1677,1941
2047,1746,2030
2014,1763,2069
2023,1695,1959
2064,1690,1921
2033,1766,2023
2006,1774,2055
2027,1702,1943
2064,1712,1906
2030,1766,2011
2000,1771,2026
2025,1715,1921
2064,1715,1915
2041,1807,2014
2007,1808,2037
2021,1728,1936
2060,1712,1897
2023,1791,1991
1991,1807,2021
2017,1741,1919
2064,1744,1890
2039,1818,1998
2001,1823,2016
2019,1755,1911
2047,1745,1883
2032,1815,1984
1995,1826,2014
2013,1768,1924
2047,1761,1891
2033,1823,1974
1997,1834,1999
2003,1766,1899
2032,1759,1872
2023,1839,1978
1989,1839,2012
2012,1774,1903
2035,1776,1858
2009,1839,1968
1975,1849,2003
1987,1795,1897
2023,1741,1867
2001,1808,1962
1977,1828,1984
1986,1782,1877
2020,1761,1839
1994,1841,1946
1958,1840,1968
1977,1760,1855
1995,1750,1811
1984,1825,1931
1959,1840,1991
1967,1776,1870
1986,1771,1818
1963,1826,1915
1936,1837,1958
1963,1762,1850
1985,1733,1744
1969,1799,1246
1936,1829,1600
1954,1755,1861
1989,1743,1824
1999,1826,1730
2001,1869,1705
2085,1854,1476
2192,1909,2201
2211,1987,1755
2288,2070,0
2480,2153,0
2555,2213,3563
2507,2305,1534
2429,2290,2079
2369,2133,4095
2335,2027,4095
2274,2027,2473
2221,1951,1618
2214,1825,1609
2224,1774,1776
2160,1793,1872
2112,1744,1887
2133,1653,1807
2198,1655,1819
2217,1744,1839
2176,1759,1811
2177,1699,1817
2207,1696,1840
2175,1771,1791
2134,1808,1851
2146,1753,1854
2177,1749,1828
2151,1846,1830
2114,1862,1808
2128,1776,1715
2157,1782,1710
2128,1834,1905
2096,1845,1977
2105,1808,1911
2125,1793,1854
2098,1868,2013
2064,1869,2086
2066,1797,1991
2096,1792,1975
2078,1883,2144
2034,1886,2187
2054,1822,2079
2084,1845,2015
2053,1899,2171
2000,1847,2174
1990,1771,2103
2053,1808,2099
2053,1899,2243
2011,2001,2309
1995,1855,2174
2025,1683,2128
2015,1760,2271
1982,1807,2334
1991,1840,2179
2015,1844,1258
2003,1875,1474
1971,1843,1807
1979,1691,1899
2022,1726,1862
1983,1703,1825
1925,1653,1801
1975,1618,1801
1987,1582,1270
2000,1583,666
2107,1713,2690
2175,1698,2559
2204,1714,1936
2151,1735,1690
2046,1633,1776
2014,1466,1847
2029,1456,1806
1983,1531,1823
1891,1428,1808
1863,1263,1826
1873,1261,1802
1819,1387,1772
1776,1360,1817
1796,1232,1904
1846,1265,1744
1820,1364,1904
1703,1203,1888
1664,1069,1758
1677,1152,1899
1629,1176,1871
1580,1168,1827
1573,1129,1830
1535,1056,1836
1430,975,1838
1360,943,1664
1391,934,1135
1437,961,1296
1436,1063,1813
1419,975,1937
1446,855,1857
1467,973,1813
1449,1152,1777
1367,1043,1806
1384,878,1890
1451,958,1835
1426,1050,1835
1382,1101,1812
1392,1040,1776
1425,1037,1825
1395,1038,1827
1355,1036,1824
1379,1130,1830
1419,1101,1833
1399,1107,1821
1361,1073,1831
1390,1047,1825
1446,1151,1830
1465,1369,1823
1429,1236,1831
1477,1168,1809
1474,1063,1827
1389,1190,1831
1381,1309,1833
1429,1205,1811
1509,1205,1810
1491,1289,1834
1453,1359,1837
1465,1359,1840
1525,1248,1847
1529,1302,1887
1461,1408,1821
1461,1399,1846
1497,1373,1789
1499,1408,1874
1486,1398,1890
1535,1420,1840
1554,1493,1779
1516,1437,1867
1479,1434,1903
1520,1435,1879
1597,1441,1842
1569,1526,1889
1520,1485,1876
1520,1408,1861
1583,1445,1786
1571,1475,1981
1511,1593,1968
1553,1584,1895
1648,1558,1869
1605,1535,1939
1518,1533,1970
1529,1471,1830
1596,1478,1839
1555,1600,1936
1535,1584,1987
1592,1658,1885
1579,1629,1767
1520,1664,1994
1520,1674,1986
1493,1535,1850
1507,1504,1864
1494,1653,1993
1449,1717,1949
1478,1605,1889
1533,1838,1860
1535,1813,1942
1477,1715,1984
1467,1678,1913
1483,1635,1884
1477,1745,1975
1457,1817,1978
1472,1732,1907
1524,1794,1901
1469,1861,2015
1412,1873,2031
1440,1793,1907
1484,1782,1861
1437,1808,1949
1403,1904,2005
1431,1923,1933
1453,1920,1872
1456,1856,1982
1394,1904,2016
1419,1877,1903
1525,1923,1883
1473,2042,1968
1385,1933,2000
1424,1983,1921
1470,1866,1863
1454,1924,1959
1425,2042,2032
1434,1964,1904
1477,1962,1829
1484,2032,1973
1467,2176,2025
1462,2153,1930
1487,2121,1882
1466,2010,1981
1437,2121,2031
1454,2079,1909
1479,2064,1840
1471,2122,1939
1453,2151,2017
1446,2136,1927
1469,2106,1861
1459,2223,1923
1427,2169,1939
1472,2174,1920
1519,2145,1888
1472,2149,1979
1498,2118,2014
1478,2145,1879
1482,2085,1850
1415,2193,1939
1436,2222,1989
1459,2151,1893
1463,2123,1864
1491,2253,1988
1488,2171,1993
1439,2073,1862
1462,2095,1842
1434,2192,1972
1424,2130,2011
1426,2086,1862
1455,2257,1856
1376,2159,1902
1305,2062,1936
1343,2000,1871
1408,2107,1856
1419,2233,2003
1317,2158,1977
1305,2015,1815
1382,2064,1840
1381,2135,1951
1355,2132,1962
1303,2032,1859
1370,2086,1834
1373,2103,1923
1345,2141,1957
1353,2065,1855
1386,2045,1810
1419,2141,1911
1363,2222,1995
1376,2100,1908
1390,2002,1819
1392,2061,1926
1399,2240,1995
1387,2067,1822
1378,1991,1779
1451,2062,1903
1397,2135,1959
1426,2096,1874
1456,2032,1825
1426,2126,1899
1399,2113,1938
1425,2077,1856
1520,2039,1830
1458,2090,1895
1450,2081,1925
1455,2083,1831
1520,2013,1810
1483,2119,1909
1426,2064,1939
1449,2057,1857
1590,2060,1806
1535,2113,1914
1514,2177,1953
1523,2016,1842
1506,1881,1787
1534,2081,1916
1466,2124,1967
1535,2094,1831
1593,1949,1763
1526,2047,1872
1518,2143,1942
1575,1995,1826
1585,1979,1781
1634,2065,1914
1517,2042,1936
1519,2045,1817
1595,2032,1755
1521,2075,1871
1505,2063,1936
1535,2160,1865
1563,1983,1723
1510,2003,1841
1509,2043,1939
1535,2057,1848
1585,2075,1811
1554,2032,1857
1507,2069,1879
1529,1984,1823
1583,2007,1808
1535,2107,1898
1513,2066,1918
1647,1987,1804
1584,1968,1727
1655,1975,1878
1523,2037,1935
1589,2097,1831
1605,2096,1786
1607,2095,1872
1460,1963,1921
1577,2021,1828
1629,1996,1759
1584,2000,1839
1557,1998,1910
1620,1935,1849
1674,1979,1807
1647,2123,1871
1575,2077,1892
1600,1963,1818
1681,1919,1786
1674,2018,1875
1612,1997,1897
1648,1955,1771
1701,1956,1767
1600,2038,1902
1571,2030,1920
1707,2011,1803
1712,1973,1722
1670,1927,1858
1643,1989,1931
1634,1972,1808
1729,2015,1778
1694,2035,1840
1711,1940,1866
1668,1915,1798
1767,1923,1782
1693,2000,1878
1675,2038,1918
1686,1964,1764
1710,1913,1689
1697,1985,1856
1679,2004,1915
1731,1887,1788
1765,1851,1723
1728,1995,1883
1726,1971,1888
1708,1910,1775
1775,1936,1764
1744,1909,1855
1750,1994,1910
1742,1949,1787
1786,1953,1727
1778,1942,1820
1776,1926,1886
1743,1886,1789
1795,1945,1766
1746,1919,1813
1611,1949,1875
1746,1887,1795
1808,1883,1755
1789,1913,1873
1736,1963,1897
1734,1983,1794
1793,1919,1734
1799,1899,1825
1809,1872,1897
1856,1904,1802
1815,1849,1730
1807,1973,1857
1676,1965,1882
1747,1819,1744
1840,1824,1712
1798,1893,1850
1745,1936,1887
1829,1931,1805
1834,1825,1767
1787,1877,1819
1737,1885,1868
1779,1820,1750
1828,1808,1680
1809,1886,1808
1776,1968,1903
1808,1858,1771
1854,1821,1727
1825,1881,1823
1791,1887,1887
1815,1797,1767
1856,1825,1717
1823,1897,1808
1810,1970,1870
1857,1891,1815
1895,1838,1759
1841,1935,1808
1803,1866,1846
1823,1785,1744
1853,1856,1713
1865,1890,1811
1815,1872,1857
1840,1863,1789
1865,1821,1718
1842,1831,1824
1835,1979,1897
1872,1821,1791
1888,1758,1669
1853,1819,1824
1830,1903,1907
1856,1881,1786
1894,1791,1728
1877,1819,1837
1840,1899,1901
1878,1872,1799
1918,1863,1744
1891,1825,1807
1843,1840,1836
1862,1878,1785
1891,1824,1730
1869,1810,1837
1856,1904,1893
1844,1814,1776
1882,1765,1691
1863,1872,1835
1843,1910,1905
1872,1820,1758
1915,1749,1727
1889,1826,1840
1860,1923,1904
1877,1795,1771
1922,1829,1712
1916,1846,1797
1840,1814,1861
1846,1765,1797
1921,1799,1744
1903,1891,1827
1860,1825,1895
1874,1847,1750
1879,1823,1695
1903,1829,1839
1888,1884,1875
1887,1712,1744
1904,1728,1715
1894,1870,1845
1867,1897,1873
1876,1788,1782
1932,1724,1744
1892,1840,1857
1862,1948,1898
1919,1849,1793
1938,1699,1711
1885,1744,1814
1856,1805,1885
1890,1814,1785
1935,1783,1723
1915,1844,1818
1886,1965,1902
1907,1883,1790
1926,1687,1702
1905,1821,1813
1905,1803,1882
1906,1819,1791
1911,1744,1712
1904,1846,1817
1874,1827,1871
1886,1802,1796
1939,1823,1778
1936,1905,1842
1893,1936,1897
1891,1747,1773
1940,1843,1751
1921,1779,1840
1861,1778,1849
1881,1743,1744
1943,1828,1735
1926,1843,1855
1904,1822,1887
1941,1871,1790
1950,1786,1731
1952,1852,1833
1894,1914,1906
1884,1841,1820
1934,1812,1763
1920,1799,1840
1907,1853,1899
1919,1712,1776
1955,1779,1751
1949,1933,1857
1915,1888,1903
1917,1786,1770
1962,1792,1741
1943,1872,1846
1898,1808,1904
1931,1769,1805
1962,1808,1734
1951,1859,1852
1907,1903,1933
1901,1766,1808
1946,1771,1746
1934,1899,1866
1904,1934,1899
1923,1789,1777
1968,1699,1733
1922,1803,1851
1889,1870,1897
1920,1835,1797
1970,1872,1751
1958,1903,1863
1930,1875,1936
1911,1895,1803
1925,1741,1693
1933,1756,1846
1902,1782,1903
1933,1763,1830
1973,1796,1781
1953,1872,1871
1941,1946,1945
1942,1895,1823
2017,1819,1755
1955,1876,1808
1840,1805,1884
1882,1746,1835
1958,1838,1776
1957,1900,1855
1910,1824,1891
1920,1766,1807
1968,1776,1779
1958,1865,1845
1936,1872,1910
1936,1833,1843
1968,1824,1762
1948,1841,1837
1915,1883,1904
1936,1904,1831
1974,1861,1793
1954,1791,1869
1905,1743,1877
1934,1831,1799
1969,1781,1748
1932,1840,1855
1888,1888,1929
1927,1817,1834
1967,1790,1779
1937,1887,1874
1908,1939,1918
1949,1841,1828
1983,1911,1779
1949,1829,1858
1905,1921,1914
1934,1741,1835
1968,1707,1780
1955,1799,1853
1936,1904,1923
1936,1897,1831
1975,1831,1771
1935,1821,1852
1904,1894,1936
1936,1937,1827
1984,1774,1794
1954,1837,1894
1887,1871,1899
1894,1756,1809
1937,1680,1762
1949,1839,1872
1913,1835,1931
1938,1837,1835
1979,1860,1790
1963,2017,1874
1891,1795,1878
1901,1691,1797
1973,1731,1778
1957,1923,1906
1902,1889,1936
1904,1842,1805
1965,1808,1741
1936,1851,1858
1927,1929,1941
1898,1814,1829
1913,1690,1764
1921,1821,1858
1933,1904,1935
1941,1827,1812
1953,1835,1759
1909,1789,1882
1871,1809,1939
1916,1777,1840
1995,1883,1791
1932,1834,1872
1887,1972,1919
1925,1920,1806
1959,1679,1773
1938,1733,1900
1883,1835,1939
1904,1862,1838
1957,1882,1774
1946,1866,1903
1920,1794,1961
1918,1853,1840
1943,1851,1783
1927,1859,1861
1918,1915,1954
1946,1813,1835
1954,1751,1755
1909,1843,1874
1904,1837,1942
1899,1829,1805
1949,1829,1777
1941,1967,1915
1920,1979,1953
1900,1719,1797
1920,1695,1766
1915,1838,1885
1889,1858,1936
1917,1786,1839
1950,1773,1757
1902,1837,1865
1893,1982,1963
1919,1966,1877
1931,1698,1754
1906,1789,1827
1887,1872,1940
1902,1665,1817
1965,1763,1747
1936,1835,1869
1872,2021,1953
1907,1893,1851
1927,1814,1766
1885,1836,1838
1875,1875,1914
1913,1791,1814
1943,1827,1776
1887,2002,1865
1835,1821,1872
1872,1747,1797
1964,1847,1766
1929,1870,1855
1865,1830,1904
1846,1766,1808
1897,1723,1761
1910,1915,1875
1869,1843,1922
1875,1735,1810
1931,1808,1742
1939,1967,1864
1897,1983,1946
1872,1722,1799
1904,1669,1729
1890,1775,1863
1879,1953,1924
1884,1769,1812
1957,1738,1741
1894,1787,1840
1846,1974,1915
1866,1889,1831
1898,1727,1759
1894,1772,1831
1874,1897,1922
1898,1867,1821
1924,1797,1766
1901,1783,1835
1863,1870,1883
1906,1901,1821
1936,1754,1781
1894,1840,1857
1859,1895,1923
1879,1767,1797
1921,1786,1743
1904,1840,1882
1859,1943,1926
1856,1741,1772
1904,1763,1727
1884,1913,1856
1847,1859,1904
1872,1795,1808
1921,1840,1776
1908,1907,1865
1858,1975,1891
1851,1856,1795
1895,1689,1714
1908,1803,1850
1882,1866,1936
1901,1875,1830
1914,1856,1785
1878,1841,1850
1823,1819,1885
1858,1779,1810
1931,1893,1783
1921,1887,1875
1865,1886,1917
1875,1798,1801
1922,1809,1761
1888,1851,1853
1866,1858,1916
1905,1843,1854
1941,1814,1776
1904,1840,1844
1867,1878,1889
1897,1884,1840
1941,1813,1798
1913,1866,1855
1873,1906,1910
1856,1795,1829
1933,1731,1777
1901,1827,1887
1857,1921,1947
1879,1872,1827
1914,1791,1759
1886,1867,1861
1871,1928,1939
1890,1808,1834
1913,1817,1758
1885,1843,1856
1861,1807,1905
1877,1741,1815
1931,1840,1775
1927,1975,1866
1884,1919,1907
1894,1889,1835
1911,1737,1751
1903,1798,1853
1830,1798,1906
1865,1823,1846
1902,1871,1778
1897,1921,1847
1858,1826,1902
1861,1889,1822
1899,1856,1762
1874,1777,1843
1850,1840,1908
1885,1810,1824
1925,1797,1764
1907,1997,1887
1866,1968,1936
1892,1794,1795
1907,1723,1726
1886,1846,1856
1846,1917,1910
1865,1808,1794
1907,1776,1737
1891,1936,1879
1843,1897,1936
1875,1829,1827
1925,1812,1754
1888,1872,1826
1847,1910,1885
1844,1855,1787
1894,1815,1767
1914,1835,1891
1855,1897,1933
1871,1795,1811
1906,1829,1744
1872,1903,1837
1833,1873,1909
1862,1781,1799
1953,1829,1776
1902,2013,1874
1798,1872,1898
1817,1723,1766
1886,1776,1734
1887,1891,1877
1856,1891,1926
1874,1819,1814
1919,1766,1760
1899,1854,1865
1833,1965,1910
1840,1808,1797
1897,1856,1769
1898,1920,1850
1833,1809,1872
1835,1781,1793
1885,1749,1773
1881,1836,1865
1849,1897,1961
1866,1872,1799
1922,1847,1755
1853,1833,1836
1823,1885,1922
1841,1837,1828
1915,1786,1767
1885,1920,1838
1854,1811,1887
1831,1788,1811
1875,1774,1746
1866,1839,1833
1872,1911,1919
1875,1778,1809
1886,1819,1758
1899,1899,1840
1840,1882,1917
1839,1840,1840
1861,1780,1756
1853,1814,1837
1839,1785,1903
1845,1771,1805
1903,1839,1766
1883,1932,1880
1835,1933,1917
1841,1792,1809
1888,1764,1773
1873,1924,1879
1831,1975,1906
1846,1783,1798
1897,1787,1735
1878,1903,1836
1840,1799,1874
1858,1712,1822
1876,1758,1761
1859,1881,1859
1841,1921,1921
1881,1831,1834
1895,1792,1759
1876,1843,1870
1868,1936,1936
1840,1910,1805
1876,1790,1748
1857,1787,1834
1864,1846,1909
1857,1843,1828
1894,1822,1744
1879,1858,1835
1819,1872,1936
1829,1854,1825
1891,1775,1770
1879,1845,1854
1855,1959,1904
1845,1918,1807
1879,1745,1753
1860,1776,1839
1818,1840,1904
1838,1803,1819
1898,1808,1780
1890,1936,1892
1842,1916,1936
1867,1854,1835
1898,1840,1729
1871,1882,1840
1834,1787,1904
1840,1745,1805
1877,1776,1753
1895,1859,1877
1853,1909,1920
1840,1833,1826
1939,1874,1782
1882,1869,1892
1822,1901,1945
1827,1862,1808
1874,1819,1739
1871,1840,1819
1825,1855,1911
1837,1815,1824
1885,1794,1792
1885,1878,1853
1857,1916,1936
1868,1841,1822
1883,1866,1727
1839,1862,1825
1797,1822,1904
1839,1792,1813
1897,1791,1776
1899,1946,1907
1866,1966,1971
1832,1838,1808
1845,1732,1744
1861,1833,1837
1838,1919,1926
1845,1867,1830
1880,1879,1774
1889,1939,1877
1839,1813,1922
1842,1793,1802
1884,1792,1763
1872,1815,1872
1855,1919,1927
1830,1819,1748
1893,1809,1722
1886,1981,1873
1789,1927,1916
1807,1807,1836
1876,1728,1746
1861,1854,1855
1818,1889,1904
1824,1846,1818
1883,1791,1776
1861,1847,1858
1821,1895,1914
1840,1847,1825
1898,1861,1758
1865,1936,1846
1809,1878,1921
1837,1753,1809
1885,1803,1744
1861,1891,1830
1809,1871,1904
1840,1823,1780
1887,1826,1755
1855,1909,1867
1823,1883,1936
1840,1872,1855
1887,1855,1783
1840,1789,1870
1806,1846,1913
1846,1830,1854
1936,1873,1808
1863,1830,1890
1783,1805,1887
1807,1824,1843
1870,1833,1761
1865,1887,1907
1827,1891,1907
1837,1867,1838
1886,1849,1728
1857,1840,1823
1808,1849,1904
1819,1805,1803
1875,1804,1744
1873,1861,1835
1833,1969,1908
1814,1745,1785
1877,1819,1693
1865,1911,1917
1813,1836,1930
1827,1762,1801
1869,1769,1718
1856,1871,1858
1825,1900,1923
1815,1755,1814
1864,1776,1728
1867,1884,1886
1797,1917,1956
1830,1840,1821
1878,1885,1681
1863,1927,1895
1794,1808,1887
1809,1760,1778
1857,1756,1745
1846,1845,1863
1808,1883,1919
1836,1787,1825
1876,1834,1748
1841,1893,1842
1794,1838,1918
1840,1824,1830
1872,1847,1785
1905,1801,1819
1805,1907,1932
1794,1825,1808
1842,1837,1755
1843,1842,1839
1815,1871,1919
1830,1843,1839
1877,1867,1763
1860,1853,1852
1815,1873,1921
1822,1795,1838
1860,1773,1743
1851,1878,1754
1827,1920,1938
1840,1845,1819
1872,1809,1753
1854,1873,1867
1818,1931,1899
1823,1778,1808
1869,1755,1715
1864,1857,1850
1817,1897,1971
1835,1854,1797
1843,1812,1696
1827,1873,1798
1795,1929,1885
1835,1809,1823
1869,1801,1767
1869,1920,1883
1787,1817,1947
1808,1775,1765
1871,1798,1744
1872,1920,1892
1814,1900,1937
1853,1900,1878
1869,1807,1731
1866,1887,1833
1814,1908,1923
1795,1812,1803
1862,1779,1761
1851,1840,1870
1808,1926,1889
1826,1779,1809
1889,1807,1791
1883,1967,1877
1827,1937,1901
1839,1807,1765
1890,1788,1776
1870,1823,1868
1795,1844,1921
1801,1873,1841
1862,1874,1849
1887,1923,1870
1854,1968,1926
1784,1766,1808
1829,1737,1749
1847,1838,1884
1857,1882,1975
1867,1871,1824
1863,1872,1846
1837,1968,1802
1795,1852,1909
1851,1806,1838
1883,1797,1719
1858,1840,1869
1845,1855,1968
1821,1794,1821
1867,1795,1748
1856,1945,1860
1820,1891,1933
1839,1935,1833
1889,1891,1763
1866,1901,1873
1808,1846,1921
1835,1776,1817
1902,1799,1769
1877,1898,1849
1810,1924,1924
1872,1856,1854
1899,1759,1804
1839,1949,1883
1802,1969,1915
1847,1809,1819
1897,1826,1773
1872,1918,1874
1808,1856,1902
1840,1792,1847
1901,1879,1790
1899,1971,1874
1807,1808,1895
1830,1797,1813
1901,1903,1772
1879,1904,1865
1841,1827,1936
1835,1781,1832
1868,1809,1788
1879,1936,1847
1904,2100,1938
1836,1801,1853
1860,1666,1773
1856,1891,1880
1904,1962,1927
1821,1887,1834
1873,1866,1759
1902,1872,1859
1852,1940,1963
