1844,1842,1770
1825,1846,1791
1829,1855,1824
1814,1840,1792
1841,1834,1755
1849,1858,1794
1904,1863,1836
1796,1843,1789
1811,1838,1754
1823,1863,1806
1831,1869,1840
1823,1872,1818
1805,1830,1761
1837,1838,1791
1744,1849,1833
1798,1839,1805
1801,1834,1761
1808,1853,1808
1804,1857,1840
1798,1840,1792
1794,1840,1762
1822,1871,1819
1823,1872,2322
1793,1839,2461
1786,1825,2037
1825,1857,2030
1826,1873,1869
1749,1861,1765
1739,1813,1703
1791,1830,1760
1766,1842,1824
1753,1839,1779
1802,1825,1744
1821,1854,1861
1819,1866,1942
1776,1833,1820
1751,1830,1728
1797,1865,1776
1797,1867,1811
1792,1845,1765
1808,1831,1735
1822,1867,1795
1776,1856,1821
1808,1834,1767
1808,1855,1759
1802,1849,1778
1793,1840,1805
1731,1818,1750
1750,1812,1731
1796,1857,1788
1810,1868,1818
1773,1829,1757
1771,1824,1717
1787,1845,1766
1776,1855,1798
1782,1842,1767
1781,1835,1729
1798,1855,1777
1813,1875,1831
1774,1828,1757
1749,1799,1703
1754,1841,1766
1852,1871,1814
1772,1843,1765
1719,1825,1719
1773,1850,1776
1792,1857,1808
1749,1838,1763
1698,1829,1723
1745,1855,1776
1810,1862,1815
1738,1828,1753
1776,1829,1725
1792,1863,1795
1801,1904,1856
1751,1830,1755
1708,1802,1692
1690,1847,1774
1776,1855,1799
1767,1835,1744
1762,1842,1735
1769,1855,1779
1768,1856,1798
1757,1841,1756
1754,1842,1739
1792,1889,1799
1798,1891,1833
1750,1854,1757
1719,1826,1699
1749,1849,1767
1776,1871,1809
1767,1856,1769
1747,1855,1730
1770,1879,1790
1780,1879,1815
1754,1853,1760
1753,1849,1743
1775,1872,1804
1781,1879,1823
1769,1861,1776
1760,1869,1761
1745,1857,1777
1755,1859,1808
1758,1860,1844
1767,1871,1859
1757,1867,1831
1760,1865,1809
1758,1856,1761
1758,1863,1743
1783,1891,1802
1779,1889,1822
1747,1851,1757
1739,1838,1718
1776,1872,1782
1773,1872,1819
1762,1853,1776
1766,1856,1745
1791,1889,1792
1767,1872,1810
1765,1862,1781
1766,1859,1763
1750,1854,1768
1758,1857,1808
1739,1845,1767
1737,1837,1733
1759,1857,1791
1776,1871,1837
1746,1846,1787
1742,1834,1745
1771,1856,1807
1776,1856,1837
1758,1840,1783
1743,1830,1744
1778,1872,1811
1775,1856,1834
1742,1810,1763
1731,1808,1729
1776,1858,1803
1757,1840,1814
1744,1825,1781
1734,1810,1763
1744,1831,1805
1763,1838,1838
1746,1815,1783
1747,1829,1760
1757,1840,1799
1747,1831,1814
1745,1821,1782
1747,1829,1763
1748,1822,1790
1761,1838,1827
1727,1794,1766
1714,1790,1734
1750,1830,1801
1777,1844,1847
1753,1819,1790
1715,1797,1738
1745,1825,1792
1753,1831,1830
1744,1813,1792
1741,1812,1749
1762,1835,1801
1773,1840,1837
1758,1819,1793
1758,1822,1758
1783,1865,1823
1749,1828,1821
1735,1808,1776
1724,1803,1753
1744,1823,1794
1761,1834,1828
1761,1826,1799
1744,1808,1764
1771,1838,1819
1759,1831,1840
1739,1808,1791
1732,1808,1765
1776,1856,1841
1758,1825,1839
1717,1780,1767
1728,1787,1748
1771,1839,1817
1754,1815,1830
1733,1794,1782
1724,1781,1746
1749,1819,1808
1750,1823,1840
1731,1798,1792
1710,1789,1745
1739,1819,1807
1754,1834,1850
1741,1813,1807
1735,1805,1757
1766,1840,1812
1775,1840,1855
1750,1827,1814
1719,1792,1760
1744,1821,1804
1757,1831,1842
1732,1801,1787
1728,1808,1755
1735,1809,1799
1735,1814,1827
1735,1808,1805
1734,1799,1778
1746,1823,1813
1758,1825,1842
1739,1808,1803
1751,1822,1789
1754,1833,1821
1754,1831,1843
1740,1810,1798
1715,1787,1759
1750,1821,1818
1767,1840,1857
1739,1813,1808
1740,1809,1773
1767,1845,1826
1776,1856,1870
1725,1804,1791
1715,1802,1758
1760,1840,1827
1770,1841,1856
1750,1821,1810
1755,1809,1774
1775,1843,1840
1786,1855,1870
1751,1805,1802
1734,1786,1759
1772,1835,1839
1774,1838,1872
1744,1759,1798
1739,1798,1776
1763,1864,1831
1777,1807,1883
1743,1803,1810
1741,1797,1783
1757,1798,1817
1767,1831,1863
1755,1792,1825
1755,1808,1792
1787,1813,1854
1797,1874,1885
1743,1787,1796
1728,1822,1773
1757,1814,1831
1779,1793,1871
1757,1799,1823
1761,1802,1798
1798,1850,1861
1773,1840,1866
1741,1791,1804
1742,1803,1776
1776,1825,1837
1791,1860,1872
1766,1820,1823
1760,1803,1787
1793,1850,1865
1793,1808,1894
1744,1796,1802
1726,1777,1767
1754,1808,1823
1772,1851,1870
1757,1811,1822
1760,1817,1790
1764,1830,1826
1777,1842,1873
1777,1829,1847
1746,1796,1785
1748,1840,1813
1765,1831,1859
1771,1823,1838
1741,1799,1774
1744,1808,1807
1757,1829,1856
1747,1808,1819
1744,1778,1793
1767,1840,1841
1774,1841,1881
1747,1811,1823
1751,1823,1796
1773,1847,1846
1767,1799,1866
1754,1843,1817
1751,1852,1793
1795,1813,1867
1791,1839,1889
1744,1781,1810
1729,1802,1768
1747,1839,1815
1774,1834,1886
1762,1818,1842
1763,1857,1802
1776,1905,1843
1792,1869,1883
1769,1865,1828
1754,1863,1803
1778,1855,1850
1797,1867,1892
1783,1840,1845
1764,1840,1799
1761,1871,1826
1757,1867,1850
1744,1854,1801
1742,1781,1771
1777,1841,1831
1787,1851,1872
1754,1842,1821
1767,1829,1803
1773,1850,1853
1782,1855,1876
1770,1843,1840
1769,1842,1801
1776,1849,1843
1792,1862,1884
1787,1840,1840
1749,1805,1775
1770,1829,1824
1783,1846,1859
1765,1839,1812
1756,1775,1795
1788,1851,1846
1799,1862,1885
1777,1887,1835
1765,1833,1787
1780,1855,1847
1781,1887,1886
1770,1839,1836
1765,1903,1799
1799,1887,1856
1830,1895,1909
1748,1805,1793
1734,1802,1744
1782,1844,1833
1787,1849,1867
1775,1839,1829
1759,1822,1793
1787,1858,1840
1795,1869,1872
1759,1832,1819
1757,1827,1783
1792,1851,1839
1817,1881,1883
1782,1847,1825
1738,1831,1773
1765,1841,1822
1781,1841,1864
1775,1834,1815
1767,1874,1791
1793,1833,1851
1795,1830,1884
1775,1837,1831
1746,1802,1775
1779,1872,1825
1808,1865,1861
1783,1875,1826
1784,1904,1808
1807,1843,1851
1808,1881,1875
1776,1799,1812
1777,1840,1787
1784,1840,1825
1781,1840,1855
1775,1838,1823
1775,1840,1792
1803,1859,1843
1795,1831,1875
1774,1802,1821
1776,1869,1783
1793,1857,1836
1807,1878,1862
1786,1904,1823
1789,1860,1805
1793,1876,1842
1783,1854,1856
1776,1864,1819
1771,1840,1786
1791,1863,1833
1801,1872,1874
1778,1860,1824
1757,1836,1780
1787,1872,1840
1797,1872,1874
1773,1840,1835
1776,1826,1805
1792,1866,1838
1806,1875,1888
1774,1909,1808
1760,1790,1778
1803,1856,1851
1807,1872,1882
1775,1839,1821
1776,1738,1795
1802,1904,1851
1803,1872,1872
1776,1830,1819
1781,1898,1796
1826,1873,1855
1818,1872,1882
1804,1854,1838
1798,1844,1813
1779,1828,1822
1792,1847,1850
1805,1841,1824
1779,1822,1778
1795,1845,1825
1808,1856,1872
1797,1840,1833
1791,1824,1791
1810,1857,1839
1815,1861,1867
1798,1843,1829
1793,1834,1796
1815,1872,1855
1817,1872,1874
1797,1843,1825
1771,1813,1787
1805,1857,1845
1835,1889,1887
1793,1838,1813
1765,1809,1771
1802,1849,1835
1810,1863,1871
1803,1853,1838
1793,1845,1799
1802,1856,1830
1815,1873,1867
1793,1849,1824
1798,1856,1808
1801,1851,1827
1808,1855,1855
1793,1841,1814
1807,1851,1798
1819,1871,1840
1826,1881,1875
1791,1843,1822
1789,1840,1782
1810,1861,1828
1823,1874,1875
1781,1839,1807
1793,1841,1788
1821,1881,1853
1835,1894,1879
1808,1865,1817
1786,1845,1773
1815,1877,1839
1834,1895,1879
1807,1867,1835
1807,1856,1793
1840,1881,1852
1811,1863,1857
1791,1842,1815
1787,1844,1778
1807,1865,1830
1812,1865,1856
1812,1853,1809
1804,1863,1793
1813,1936,1840
1815,1880,1861
1811,1806,1823
1785,1789,1767
1787,1820,1806
1804,1855,1854
1797,1834,1811
1794,1833,1783
1817,1858,1836
1829,1870,1872
1825,1861,1841
1799,1830,1774
1807,1840,1809
1811,1840,1847
1798,1823,1809
1804,1825,1780
1823,1854,1827
1799,1843,1841
1798,1846,1821
1802,1840,1797
1802,1849,1802
1807,1852,1843
1797,1828,1803
1797,1814,1765
1826,1854,1828
1808,1845,1840
1795,1830,1808
1793,1820,1786
1821,1850,1835
1821,1867,1859
1811,1851,1819
1798,1863,1778
1810,1843,1837
1824,1819,1862
1793,1797,1799
1762,1789,1745
1798,1836,1811
1821,1872,1866
1802,1843,1823
1773,1821,1775
1791,1819,1809
1807,1833,1847
1791,1803,1799
1782,1809,1757
1812,1904,1826
1823,1906,1863
1778,1760,1791
1767,1722,1735
1801,1794,1807
1830,1886,1859
1798,1871,1795
1775,1802,1760
1798,1791,1807
1807,1840,1849
1790,1751,1787
1781,1734,1748
1812,1828,1808
1831,1984,1873
1819,1813,1810
1777,1678,1735
1791,1831,1809
1867,1871,1856
1909,1877,1813
1871,1765,1738
1808,1813,1787
1814,1914,1901
1885,1886,1866
1781,1733,1767
1703,1729,1803
1792,1761,1839
1794,1885,1815
1758,2107,1856
1749,1793,1840
1767,1561,1806
1795,1687,1803
1787,1799,1783
1766,1767,1815
1796,1840,1865
1812,1864,1834
1802,1938,1773
1777,1692,1764
1787,1669,1831
1790,1723,1857
1791,1725,1785
1824,1804,1791
1827,1808,1814
1799,1775,1812
1792,1774,1822
1795,1798,1815
1819,1893,1808
1799,1822,1728
1825,1807,1746
1929,1843,1818
1903,1754,1817
1758,1584,1764
1740,1611,1745
1744,1815,1833
1799,1802,1859
1825,1689,1827
1820,1652,1761
1757,1799,1854
1777,1858,1869
1749,1802,1797
1762,1732,1762
1808,1723,1889
1823,1674,1861
1844,1710,1730
1767,1513,1745
1792,1731,1856
1796,1958,1834
1851,1844,1768
1783,1485,1677
1909,1585,1717
1840,1758,1826
1779,1946,1819
1807,1691,1770
1762,1456,1783
1808,1668,1856
1758,1633,1796
1872,1535,1730
1901,1791,1763
1683,1791,1899
1678,1559,1776
1723,1489,1723
1783,1677,1778
1851,1777,1858
1829,1729,1778
1743,1557,1712
1750,1519,1831
1762,1683,2007
1781,1675,1837
1903,1735,1744
1893,1911,1869
1786,1587,1792
1702,1355,1810
1690,1440,1683
1777,1615,2221
1754,1771,2670
1760,1828,2500
1783,1601,1797
1763,1573,1581
1847,1871,1706
1744,1630,2223
1643,1372,2064
1699,1519,3071
1646,1595,1467
1567,1439,1063
1535,1499,1535
1678,1727,1873
1750,1627,1888
1680,1571,1856
1697,1523,1814
1723,1521,1810
1675,1591,1819
1683,1746,1831
1839,1663,1808
1749,1743,1822
1669,1607,1818
1667,1589,1801
1687,1636,1820
1723,1765,1834
1717,1658,1826
1737,1798,1812
1744,1780,1815
1808,1591,1852
1719,1693,1845
1681,1674,1851
1728,1709,1826
1823,1821,1797
1872,1772,1854
1718,1697,1830
1665,1744,1799
1724,1809,1833
1728,1697,1824
1763,1705,1830
1815,1846,1819
1775,1733,1905
1703,1776,2014
1699,1718,1882
1712,1853,1746
1765,1997,2499
1767,1785,1987
1683,1651,1535
1661,1646,1635
1683,1614,1826
1714,1822,1859
1730,1840,1919
1792,1833,1813
1861,1744,1808
1781,1815,1821
1634,1805,1826
1712,1872,1850
1747,1933,1829
1744,1883,1827
1733,1745,1859
1733,1759,1831
1771,1794,1831
1838,1935,1831
1766,1859,1828
1698,1811,1824
1706,1798,1827
1743,1833,1829
1732,1840,1842
1759,1863,1829
1738,1843,1856
1728,1905,1795
1733,1921,1835
1831,1838,1851
1781,1775,1846
1845,1785,1828
1714,1898,1801
1731,1902,1841
1749,1846,1853
1653,1697,1801
1643,1904,1661
1635,1879,1415
1617,1837,1454
1613,1918,1635
1581,1874,1617
1604,1840,1613
1600,1779,1495
1622,1838,1516
1648,1739,1482
1582,1824,1530
1787,2096,1575
1712,1934,1593
1486,2022,1584
1453,1909,1519
1469,1650,1488
1554,1826,1595
1586,1891,1659
1567,1950,1521
1509,1941,1443
1483,1942,1488
1513,1993,1508
1535,2060,1614
1535,1979,1571
1568,1795,1535
1650,1802,1597
1535,1830,1477
1373,1918,1374
1374,1918,1446
1462,1872,1520
1479,1755,1515
1465,1948,1497
1483,2146,1616
1491,1919,1501
1488,1890,1454
1735,1732,1445
1627,1806,1518
1245,1857,1535
1219,1868,1581
1405,2123,1569
1430,1954,1488
1409,1790,1423
1446,1730,1424
1534,1869,1591
1526,1943,1744
1424,1878,1520
1424,1855,1360
1534,1886,1534
1473,1829,1647
1442,1936,1578
1553,2020,1535
1488,1797,1516
1364,1780,1535
1367,1853,1516
1630,1701,1677
1856,1921,1663
1373,1966,1412
1222,1867,1381
1328,1954,1429
1429,2176,1655
1417,1913,1637
1474,1659,1559
1622,1649,1504
1494,1722,1535
1392,1911,1613
1438,1935,1631
1575,1907,1585
1706,2175,1706
1535,1889,1680
1439,1647,1582
1535,1774,1593
1535,1794,1535
1435,1826,1566
1486,2000,1582
1840,2112,1587
1630,1616,1494
1411,1518,1647
1673,1792,1894
1899,1882,1929
1482,1951,1580
1169,1763,1410
1308,1719,1454
1502,1747,1486
1627,1715,1614
1535,1840,1729
1621,2423,1829
1638,1886,1586
1617,1431,1518
1456,1450,1661
1502,1680,1709
1702,1793,1658
1671,2003,1686
1701,2153,1738
1767,1535,1554
1517,1414,1623
1419,1685,1664
1434,1738,1741
1619,1744,1648
1744,1791,1569
1581,1907,1712
1657,1815,1766
1517,1734,1675
1515,1830,1652
1750,1694,1587
1619,1526,1713
1478,1785,1878
1597,1969,1761
1557,1855,1659
1661,1626,1663
1502,1639,1763
1530,1765,1716
1709,1726,1655
1861,2066,1667
1853,1570,1502
1794,1431,1643
1296,1575,1920
1247,1888,1959
1535,1845,1846
1697,1690,1616
1676,1798,1671
1581,1689,1616
1535,1534,1516
1730,1679,1584
1712,2039,1742
1591,1791,1792
1423,1472,1753
1558,1642,1685
1651,1823,1738
1621,1902,1819
1817,1765,1721
1840,1757,1558
1687,1586,1642
1494,1783,1863
1635,1968,1841
1618,1744,1696
1649,1591,1661
1559,1633,1744
1680,1927,1763
1776,1980,1754
1712,1653,1721
1535,1617,1840
1501,1808,1786
1901,1923,1637
1669,1909,1705
1430,1751,1878
1495,1840,1826
1747,1902,1694
1743,1819,1727
1691,1802,1785
1644,1840,1723
1584,2013,1751
1630,2011,1900
1846,1923,1916
1970,1693,1713
1603,1755,1698
1507,1840,1808
1595,2055,1903
1649,1837,2387
1734,1904,2385
1797,1811,2278
1638,1766,1958
1628,1913,1826
1857,1985,1907
1744,1882,1911
1632,1897,2130
1581,1859,2000
1664,1935,1793
1946,1953,1718
1728,1990,1835
1535,1747,1748
1849,1837,1714
1901,1936,1759
1622,1850,1918
1636,1822,1785
1691,1843,1753
1851,1985,1826
1659,1943,1817
1726,1846,1838
1695,1815,1742
1719,1885,1776
1809,1973,1936
1762,2013,1920
1760,1797,1708
1725,1925,1811
1670,1872,1873
1685,1908,1840
1755,1842,1744
1728,1884,1895
1890,1941,1927
1733,1793,1738
1661,1698,1718
1744,1882,1840
1757,1937,1929
1862,1936,1860
1757,1860,1728
1622,1870,1890
1774,2067,2023
1961,2001,1906
1906,1808,1661
1584,1686,1745
1483,1687,1924
1650,1883,1885
1958,1979,1769
1782,1872,1783
1730,1872,1972
1905,2065,1939
1664,1765,1728
1585,1697,1798
1776,1794,1941
1872,1998,1937
1699,1824,1743
1739,1898,1910
2037,1990,1988
1770,1879,1843
1719,1723,1711
1732,1777,1779
1726,1975,1984
1668,1794,1919
1687,1782,1798
1754,1874,1813
1870,1808,1855
1949,1859,1973
1797,1807,1791
1696,1953,1838
1763,1981,1950
1905,1893,1884
1745,1681,1767
1729,1648,1849
1711,1861,1949
1741,2063,1911
1867,2224,1830
1802,1703,1840
1744,1691,2066
1679,1731,1887
1808,1874,1811
1929,1835,1746
1683,1778,1869
1680,1925,1974
1842,1841,1850
1869,1798,1798
1684,1831,1961
1680,1787,1894
1856,1806,1770
1951,1870,1840
1843,1884,1970
1620,2094,1932
1619,1677,1773
1869,1634,1808
1906,1781,1904
1695,1862,1998
1872,1893,1873
1857,1766,1781
1758,1889,1951
1775,1809,1935
1761,1970,1829
1744,1778,1799
1783,1673,1958
1795,1830,1936
1845,1734,1807
1872,1794,1857
1787,1982,2029
1869,1825,1866
1730,1904,1759
1727,1735,1809
1703,1694,1957
1712,1774,1911
1734,1807,1828
1882,1948,1946
1851,1865,1972
1775,1774,1850
1776,1701,1795
1966,1830,1832
1904,1888,2000
1639,1742,1839
1712,1703,1770
1923,1970,1849
1808,1795,1936
1623,1655,1879
1754,1904,1784
1854,1813,1823
1909,1904,1992
1828,1759,1936
1752,1685,1733
1708,1680,1839
1719,1718,2003
1776,1770,1908
1760,1776,1811
1745,1873,1840
1767,1908,1922
1795,1791,1933
1839,1665,1791
1840,1744,1827
1802,2027,2032
1783,1856,1855
1871,1712,1679
1853,1954,1803
1750,1616,1889
1740,1635,1846
1797,1846,1871
1920,1795,1851
1804,1785,2032
1824,1807,1909
1769,1694,1711
1746,1719,1758
1742,1975,1909
1722,1793,1842
1811,1719,1747
1942,1982,1799
1791,1826,1968
1655,1647,1919
1698,1664,1877
1872,1914,1917
1866,1802,1847
1785,1743,1781
1933,2006,1755
1998,1737,1794
1761,1695,1936
1584,1732,1983
1673,1731,1846
1812,2039,1953
1805,1845,1951
1755,1795,1905
1791,1719,1755
1856,1771,1808
2041,1770,1890
1951,1838,1857
1786,1775,1750
1703,1838,1914
1878,1936,2062
1835,1934,2041
1664,1764,1640
1689,1618,1712
1808,1687,1994
1825,1995,1935
1814,1817,1775
1895,1759,1808
1867,1850,2005
1793,1791,1890
1906,1891,1817
1932,1760,1845
1729,1719,2001
1711,1658,1821
1906,1951,1787
1968,1924,1793
1774,1766,1943
1698,1750,1860
1870,1871,1792
1846,1831,1842
1681,1762,1968
1739,1874,2029
1901,2013,1822
1882,1766,1779
1808,1639,1879
1774,1771,1840
1855,1930,1824
1834,1793,1827
1904,1827,1950
1910,1853,1893
1842,1862,1742
1823,1936,1984
1795,1698,1875
1758,1703,1799
1741,1792,1792
1792,1840,1899
1841,1808,1942
1858,1845,1877
1842,1789,1759
2030,2028,1899
1847,1872,1914
1731,1654,1889
1904,1776,1852
1827,1776,1877
1726,1808,1928
1757,1797,1855
1831,1890,1811
1879,1986,1810
1925,1729,1840
1810,1709,1889
1847,1785,1846
1901,1871,1870
1872,1938,1839
1738,1887,1859
1777,1731,1806
1903,1807,1895
1858,1916,1975
2038,1831,1862
1943,1857,1711
1731,1743,1851
1681,1712,1956
1855,1904,1904
1904,1923,1743
1936,1713,1815
1853,1783,1910
1824,1840,1845
1785,1823,1829
2023,1883,1841
1866,1795,1825
1698,1778,1892
1808,1953,1875
1840,1885,1853
1839,1774,1921
1921,1907,1840
1845,1775,1859
1877,1803,1815
1891,1846,1824
1858,1872,1798
1872,1803,1818
1882,1801,1891
1882,1904,1985
1794,1884,1806
1722,1703,1685
1885,1878,1870
1931,1882,1979
1809,1810,1799
1811,1843,1738
1924,1918,1824
1790,1861,1919
1749,1859,1891
1890,1786,1798
1906,1824,1744
2032,1840,1940
1815,1883,1827
1735,1859,1771
1853,1971,1920
1849,1846,1936
1878,1682,1787
1863,1715,1747
1889,1855,1903
1867,1962,1874
1781,2079,1843
1719,1846,1769
1821,1692,1785
1962,1779,1899
1825,1863,1856
1903,1963,1840
1930,1890,1808
1788,1869,1891
1872,1783,1904
1855,1745,1730
1808,1840,1858
1785,1912,1936
1872,1933,1849
1882,1903,1703
1841,1693,1771
1901,1748,1890
1910,1744,1872
1854,1753,1754
1808,1875,1828
1836,1900,1898
1936,1825,1846
1794,1954,1799
1776,2030,1830
1851,1823,1975
1951,1803,1918
1916,1728,1728
1770,1703,1718
1788,1904,1901
1850,1974,1855
1969,1805,1727
1898,1888,1789
1797,1868,1906
1840,1750,1878
1911,1808,1717
1899,1958,1875
1786,1889,1901
1824,1778,1847
1854,1823,1857
1860,1987,1730
1873,1783,1814
1923,1811,1841
1841,1759,1770
1911,1846,1808
1925,1921,1846
1795,1854,1877
1849,1863,1840
1887,1968,1870
1776,1840,1849
1744,1722,1811
1869,1780,1799
2026,1990,1879
1899,1840,1932
1815,1781,1813
1872,1826,1637
1841,1909,1798
1851,1887,1970
1891,1796,1906
1866,1783,1759
1843,1825,1747
1893,1876,1889
1844,1989,1862
1866,1873,1741
1942,1730,1770
1843,1762,1856
1748,1869,1866
1943,1939,1819
2005,1909,1936
1743,1875,1840
1765,1787,1822
1907,1776,1721
1910,1899,1751
1827,1870,1949
1812,1888,1873
1895,1773,1744
1881,1857,1763
1879,1842,1889
1807,1808,1855
1869,1706,1746
1944,1867,1722
1965,1926,1893
1845,1931,1993
1779,1955,1808
1867,1767,1760
1819,1818,1823
1809,1872,1806
1968,1810,1807
2076,1998,1915
1771,1823,1887
1699,1705,1764
1859,1834,1728
1975,1959,1808
1907,1908,1915
1825,1819,1886
1805,1807,1816
1857,1757,1802
1872,1809,1856
1840,1817,1835
1903,1825,1870
1930,1906,1806
1945,1825,1873
1794,1951,1907
1798,1895,1771
1849,1885,1794
1869,1829,1866
1861,1796,1913
1954,1820,1871
1982,1777,1829
1789,1847,1842
1804,1932,1808
1873,1814,1741
1915,1816,1862
1837,1855,1926
1776,1856,1872
1828,1863,1758
1911,1789,1735
1909,1778,1797
1855,1776,1840
1829,1904,1792
1938,1887,1874
1902,1977,1938
1840,1874,1847
1776,1626,1729
1835,1759,1744
1872,1889,1831
1987,1834,1871
1951,1788,1821
1843,1913,1840
1808,1998,1904
1802,1970,1817
1859,1805,1742
1873,1728,1855
1847,1822,1883
1822,1750,1812
1904,1791,1750
1886,1889,1810
1835,1963,1936
1866,2096,1911
1854,1796,1757
1871,1693,1728
1905,1836,1810
2022,1785,1794
1871,1756,1854
1808,1856,1850
1847,2035,1898
1877,1856,1810
1917,1728,1719
1870,1927,1856
1815,1888,1986
1762,1744,1845
1823,1782,1686
1861,1824,1769
1919,1930,1906
1883,1982,1905
1846,1749,1803
1855,1725,1813
1897,1810,1933
1946,1947,1828
1856,1885,1712
1807,1795,1823
1807,1852,1872
1855,1950,1805
1902,1905,1713
1872,1840,1847
1851,1861,1898
1808,1735,1871
1957,1733,1760
1968,1890,1786
1865,1887,1829
1730,1865,1841
1808,1999,1815
1984,1910,1834
1956,1812,1842
1775,1789,1872
1728,1783,1808
1851,1831,1807
1834,1780,1904
1805,1808,1840
1873,1858,1793
1891,1913,1769
1902,1947,1831
1877,1981,1895
1842,1761,1771
1840,1801,1739
1843,1845,1894
1845,1766,1983
1875,1857,1783
1918,1959,1712
1981,1981,1843
1891,1871,1851
1779,1715,1778
1842,1734,1776
1874,1857,1858
1824,1922,1863
1835,1933,1775
1841,1769,1779
1861,1743,1898
1844,1825,1901
1889,1968,1802
1908,1875,1744
1821,1814,1901
1795,1856,1871
1931,1937,1797
1903,1798,1791
1778,1824,1875
1795,1983,1903
1845,1794,1731
1842,1727,1739
1840,1931,1937
2005,2065,1977
1863,1718,1705
1839,1712,1712
1847,1789,1815
1840,1994,1901
1776,1884,1822
1834,1806,1818
1864,1776,1889
1968,1939,1866
1781,1830,1696
1796,1853,1745
1803,1889,1968
1894,1914,1883
1854,1815,1667
1875,1769,1738
1776,1832,1906
1920,1997,1889
1872,2000,1782
1792,1759,1839
1799,1769,1900
1846,1867,1840
1930,1962,1857
1904,1862,1744
1808,1884,1826
1808,1947,1797
1817,1792,1642
1856,1786,1817
1840,1852,1949
1812,1812,1852
1872,1867,1738
1863,1916,1853
1870,1871,1915
1837,1828,1783
1876,1885,1745
1830,2011,1866
1750,1858,1881
1840,1793,1773
1861,1872,1731
1818,1819,1830
1776,1813,1966
1788,1839,1936
1856,1842,1700
1920,2020,1769
1917,1963,1875
1918,1781,1899
1856,1778,1718
1814,1792,1782
1830,1854,1837
1892,1927,1840
1893,1900,1891
1713,1825,1819
1687,1840,1809
1801,1872,1803
1885,1798,1749
1831,1871,1803
1778,1867,1883
1790,1955,1867
1958,1933,1842
1991,1903,1753
1770,1750,1869
1710,1760,1824
1861,1913,1727
1930,1844,1744
1763,1817,1925
1701,1870,1927
1829,1870,1759
1965,1950,1794
1787,1861,1903
1713,1834,1852
1876,1854,1776
1930,1776,1761
1861,1839,1841
1732,1877,1824
1855,1935,1829
1810,1840,1808
1727,1895,1918
1721,1905,1822
1790,1724,1771
1877,1791,1825
1869,1906,1859
1834,1933,1809
1849,1843,1712
1910,1935,1851
1857,1941,1917
1686,1725,1840
1810,1739,1754
1920,1901,1783
1825,1861,1849
1789,1936,1904
1905,1878,1725
1846,1776,1786
1749,1808,1920
1780,1920,1900
1751,1805,1744
1870,1808,1687
2021,1936,1869
1750,1894,1851
1718,1828,1871
1837,2053,1859
1808,1795,1845
1863,1703,1816
1940,1942,1734
1840,1846,1773
1821,1777,1938
1777,1865,1939
1767,1901,1716
1787,1792,1785
1787,1776,1859
1831,1872,1855
1885,1812,1756
1811,1805,1787
1820,1954,1910
1815,1844,1827
1797,1815,1781
1933,1871,1785
1856,1994,1907
1775,1888,1889
1793,1710,1789
1964,1786,1778
1799,1863,1812
1718,1840,1935
1806,1927,1869
1847,1872,1847
1803,1897,1850
1787,1900,1787
1822,1801,1763
1869,1680,1793
1789,1727,1923
1795,1922,1893
1917,1904,1702
1875,1842,1712
1779,1842,1829
1814,1895,1930
1823,1915,1891
1796,1807,1869
1809,1791,1872
1829,1792,1773
1811,1822,1745
1852,1885,1853
1823,1821,1891
1741,1871,1809
1837,1926,1684
1975,1851,1810
1811,1762,1890
1710,1737,1854
1888,1826,1732
1894,1831,1803
1751,1937,1979
1744,1894,1847
1829,1872,1761
1904,2014,1809
1797,1713,1842
1737,1695,1843
1850,1775,1849
1921,1873,1837
1856,1863,1810
1749,1835,1771
1830,1856,1725
1878,1891,1854
1902,1891,1931
1742,1787,1869
1776,1770,1708
1829,1872,1829
1856,1983,1972
1779,1795,1856
1763,1700,1776
1842,1840,1733
1859,1966,1904
1850,1863,1884
1839,1844,1763
1882,1747,1814
1842,1794,1813
1973,1843,1771
1763,1866,1822
1715,1864,1898
1786,1904,1877
1829,1930,1838
1861,1693,1703
1847,1733,1744
1845,1901,1909
1750,1844,1869
1831,1920,1766
1887,1789,1797
1938,1766,1847
1759,1847,1858
1771,1854,1752
1805,1862,1862
1853,1989,1999
1781,1818,1862
1819,1776,1749
1890,1792,1813
1878,1859,1937
1781,1829,1903
1872,1931,1744
1972,1966,1725
1776,1810,1899
1718,1680,1853
1846,1728,1727
1865,1846,1808
1794,1922,1996
1789,1883,1808
1842,1843,1744
1905,1782,1796
1915,1795,1842
1765,1843,1803
1909,1844,1699
1862,1815,1713
1786,1883,1950
1792,1969,2011
1882,1774,1749
1921,1762,1739
1807,1873,1920
1737,1988,1910
1803,1983,1803
1843,1731,1799
1851,1702,1841
1885,1922,1823
1875,1922,1750
1863,1790,1699
1888,1701,1863
1890,1782,1811
1936,1835,1856
1843,1851,1842
1739,1938,1879
1733,1819,1840
1809,1877,1795
1909,1905,1792
1963,1894,1840
1813,1734,1890
1751,1762,1841
1791,1841,1853
1839,1904,1922
1872,1902,1892
1857,1840,1737
1886,1794,1863
1985,2027,1911
1930,1821,1843
1795,1626,1709
1838,1822,1789
1829,1857,1875
1838,1833,1835
1807,1854,1834
1855,1950,1895
1879,2020,1961
1807,1751,1846
1874,1695,1749
1846,1808,1800
1818,1933,1901
1842,1730,1808
2017,1784,1645
1889,1868,1889
1712,1966,1984
1696,1786,1841
1779,1712,1744
1834,1809,1783
1854,1947,1931
1851,1937,1895
1840,1854,1775
1882,1833,1817
1835,1810,1872
1856,1908,1850
2033,1801,1789
1891,1799,1771
1617,1875,1917
1702,1808,1874
1810,1846,1809
1875,1862,1817
1835,1803,1852
1790,1802,1913
1987,1905,1712
1950,1763,1745
1681,1787,1904
1681,1845,1859
1851,1729,1754
1838,1800,1767
1806,1854,1901
1870,1856,1954
1863,1819,1730
1723,1859,1744
1731,1974,1931
1954,1973,1905
1771,1841,1733
1725,1648,1776
1810,1815,1920
1911,1831,1861
1858,1737,1712
1877,1857,1840
1831,1942,1957
1879,1990,1867
1918,1749,1713
1745,1697,1764
1770,1856,1977
1849,2000,1887
1693,2013,1743
