1891,1898,1913
1847,1849,1820
1803,1872,1724
1837,1760,1776
1882,1847,1901
1812,1828,1847
1820,1806,1757
1897,1885,1803
1855,1885,1873
1787,1805,1872
1744,1804,1753
1797,1809,1776
1857,1890,1879
1874,1915,1874
1834,1876,1799
1793,1849,1819
1808,1787,1872
1841,1819,1794
1805,1776,1732
1843,1892,1825
1845,1787,1826
1840,1834,1843
1871,1888,1814
1872,1824,1840
1874,1886,1840
1839,1885,1804
1743,1808,1847
1827,1918,1845
1935,1877,1870
1775,1791,1775
1734,1789,1727
1792,1959,1808
1867,1895,1904
1833,1752,1824
1828,1747,1739
1831,1811,1787
1840,1859,1898
1776,1818,1812
1790,1826,1745
1833,1849,1821
1847,1938,1899
1846,1799,1845
1805,1689,1728
1798,1792,1747
1872,1900,1829
1924,1936,1823
1819,1829,1772
1767,1793,1817
1769,1802,1862
1790,1867,1856
1806,1905,1773
1806,1904,1808
1852,1773,1895
1851,1838,1872
1841,1903,1867
1823,1822,1765
1826,1808,1795
1811,1857,1795
1804,1779,1769
1808,1858,1804
1866,1856,1859
1874,1728,1809
1814,1798,1744
1840,1957,1826
1826,1846,1872
1887,1808,1805
1861,1840,1748
1833,1778,1807
1829,1903,1911
1808,2026,1933
1838,1954,1765
1843,1674,1763
1808,1732,1853
1803,1820,1835
1813,1858,1767
1835,2047,1828
1887,1825,1873
1827,1725,1766
1743,1699,1751
1780,1901,1799
1840,1904,1877
1836,1748,1798
1874,1757,1726
1920,1881,1836
1904,1840,1872
1771,1881,1829
1760,1908,1793
1776,1829,1776
1855,1758,1854
1859,1918,1803
1795,1927,1755
1818,1882,1853
1886,1828,1901
1840,1751,1822
1919,1819,1770
1951,2130,1843
1695,1833,1852
1653,1627,1779
1762,1792,1739
1872,1927,1820
1862,1840,1858
1839,1734,1799
1788,1733,1727
1886,1870,1839
1867,1841,1851
1823,1909,1809
1817,1786,1792
1849,1884,1799
1906,2118,1893
1911,1708,1830
1788,1619,1747
1768,1777,1806
1837,1911,1872
1813,1878,1835
1787,1858,1773
1817,1847,1872
1811,1887,1885
1823,1931,1779
1840,1826,1719
1798,1967,1777
1808,1822,1845
1849,1751,1820
1840,1744,1767
1824,1730,1725
1839,1845,1841
1840,1833,1854
1887,1867,1789
1931,1985,1809
1983,2131,1961
1793,1670,1777
1678,1619,1713
1728,1746,1807
1823,1871,1880
1844,1897,1831
1843,1966,1778
1837,1933,1801
1862,1797,1873
1831,1837,1838
1840,1841,1772
1821,1856,1770
1831,1870,1834
1823,1830,1808
1792,1821,1777
1835,1841,1797
1872,1903,1879
1861,1733,1840
1856,1722,1745
1866,1883,1767
1915,1941,1870
1965,1998,1847
1794,1789,1759
1707,1728,1771
1727,1856,1840
1814,1893,1858
1840,1886,1810
1865,1892,1814
1893,1984,1899
1881,2013,1894
1787,1834,1767
1790,1767,1762
1838,1776,1865
1867,1808,1863
1863,1858,1798
1781,1811,1709
1787,1829,1793
1849,1838,1823
1836,1865,1797
1856,1915,1830
1951,1924,1874
1899,1821,1797
1802,1826,1767
1802,1787,1797
1807,1778,1895
1807,1825,1877
1927,1862,1808
1830,1922,1872
1776,1895,1857
1791,1868,1799
1807,1811,1771
1875,1840,1843
1904,1931,1894
1842,1910,1842
1801,1855,1767
1811,1905,1803
1825,1920,1810
1839,1888,1840
1814,1761,1802
1808,1726,1791
1833,1837,1847
1809,1797,1798
1801,1805,1742
1843,1884,1823
1914,2002,1932
1903,2011,1919
1831,1753,1725
1839,1759,1789
1803,1850,1872
1830,1885,1841
1925,1811,1811
1897,1867,1872
1772,1866,1872
1735,1840,1822
1808,1873,1796
1871,1898,1840
1925,1946,1904
1941,2301,1985
1784,1851,1772
1715,1443,1671
1765,1616,1775
1808,1795,1834
1827,1857,1819
1872,1906,1865
1906,1965,1922
1866,1969,1861
1871,2070,1834
1934,2017,1834
1776,1535,1740
1776,1607,1778
1963,1800,1801
1941,1955,1899
1726,1856,1866
1686,1808,1800
1796,1850,1777
1852,1890,1826
1851,1903,1890
1842,1904,1851
1855,1965,1825
1873,1957,1873
1850,1936,1863
1864,1895,1842
1807,1791,1790
1796,1793,1840
1815,1721,1846
1854,1792,1814
1868,1838,1776
1824,1875,1857
1887,1887,1903
1846,1907,1872
1887,1945,1797
1904,1955,1822
1811,1984,1850
1728,1717,1792
1808,1789,1811
1872,1811,1850
1788,1797,1866
1795,1794,1792
1839,1863,1783
1862,1940,1827
1895,2000,1907
1862,1853,1904
1818,1745,1830
1840,1841,1830
1873,1968,1874
1840,1790,1808
1807,1733,1761
1814,1791,1804
1839,1827,1863
1845,1859,1856
1906,1906,1859
1995,1943,1869
1859,1862,1834
1774,1826,1807
1765,1851,1788
1803,1872,1855
1883,1888,1908
1865,1860,1883
1801,1931,1790
1779,1867,1820
1813,1830,1900
1853,1873,1908
1874,1802,1872
1886,1786,1810
1822,1814,1799
1802,1808,1829
1829,1855,1819
1859,1914,1850
1885,1930,1908
1906,1952,1895
1835,1758,1782
1828,1747,1761
1817,1822,1878
1808,1871,1882
1840,1824,1862
1894,1851,1852
1899,1903,1907
1845,1883,1811
1797,1900,1822
1811,1840,1853
1898,1904,1921
1824,1808,1831
1807,1851,1779
1826,1898,1840
1855,1809,1883
1854,1794,1861
1821,1846,1824
1849,1921,1855
1875,1893,1904
1846,1862,1887
1859,1866,1853
1856,1801,1811
1847,1826,1872
1861,2006,1854
1803,1777,1749
1834,1767,1785
1909,1840,1887
1862,1856,1873
1840,1889,1840
1907,1910,1882
1954,1910,1923
1808,1847,1852
1709,1803,1770
1784,1845,1809
1857,1853,1910
1872,1872,1897
1918,1982,1876
1875,1886,1824
1795,1841,1856
1796,1775,1803
1831,1745,1753
1873,1788,1859
1851,1870,1926
1838,1923,1824
1795,1808,1745
1795,1723,1742
1901,1802,1870
1870,1894,1888
1819,1858,1853
1844,1809,1845
1873,1870,1888
1840,1888,1845
1795,1807,1807
1826,1832,1872
1861,1877,1926
1859,1872,1842
1845,1873,1841
1883,1899,1893
1889,1936,1936
1839,1922,1782
1789,1739,1711
1839,1749,1810
1901,1819,1904
1875,1904,1851
1854,1911,1783
1859,1767,1833
1875,1789,1797
1822,1744,1762
1794,1872,1802
1816,1839,1843
1853,1815,1879
1808,1850,1829
1808,1828,1810
1869,1934,1856
1904,2022,1917
1840,1788,1856
1793,1737,1786
1840,1835,1808
1872,1868,1873
1842,1840,1856
1839,1889,1821
1842,1947,1834
1866,1861,1895
1863,1799,1833
1823,1776,1763
1856,1883,1811
1854,1863,1879
1891,1867,1904
1889,1930,1811
1826,1932,1744
1828,1818,1840
1879,1767,1791
1868,1866,1820
1783,1826,1861
1811,1815,1949
1867,1866,1886
1856,1802,1778
1834,1808,1835
1878,1950,1862
1892,1926,1902
1820,1785,1771
1787,1781,1751
1835,1843,1834
1856,1885,1830
1859,2010,1783
1894,1918,1859
1949,1782,1892
1830,1662,1829
1778,1807,1777
1787,1903,1820
1849,1930,1837
1873,1833,1837
1951,1911,1806
1799,1759,1818
1796,1797,1873
1894,1904,1886
1829,1802,1728
1873,1863,1794
1867,1890,1926
1805,1765,1889
1793,1843,1791
1836,1793,1762
1893,1921,1835
1899,1867,1858
1819,1757,1776
1808,1803,1810
1871,1872,1881
1872,1934,1878
1782,1770,1728
1797,1728,1742
1831,1805,1819
1867,1935,1827
1875,1911,1808
1862,1792,1845
1914,1792,1872
1927,1858,1856
1821,1840,1788
1813,1859,1839
1843,1923,1857
1850,1895,1818
1812,1755,1789
1791,1719,1787
1852,1817,1886
1851,1901,1822
1837,1955,1798
1865,1910,1819
1884,1778,1919
1825,1754,1826
1780,1841,1728
1840,1823,1797
1904,1917,1888
1840,1881,1843
1823,1807,1730
1899,1867,1837
1872,1866,1899
1869,1728,1825
1810,1757,1801
1856,1906,1846
1855,1968,1901
1831,1852,1811
1829,1814,1773
1836,1782,1827
1823,1856,1888
1843,1895,1863
1801,1808,1775
1799,1760,1778
1856,1840,1861
1874,1867,1905
1846,1865,1803
1923,2000,1851
1840,1903,1819
1785,1725,1765
1791,1715,1737
1834,1786,1776
1901,1909,1947
1919,1936,1930
1839,1886,1787
1817,1776,1751
1859,1808,1920
1838,1887,1854
1840,1778,1784
1872,1867,1808
1885,1929,1839
1787,1823,1815
1779,1777,1744
1805,1826,1830
1867,1850,1873
1853,1833,1869
1854,1907,1785
1879,1918,1856
1816,1827,1824
1815,1854,1773
1825,1911,1732
1800,1869,1786
1847,1814,1808
1822,1754,1813
1790,1823,1742
1807,1841,1845
1888,1770,1877
1883,1795,1773
1840,1856,1769
1867,1869,1842
1808,1841,1904
1791,1872,1829
1791,1845,1803
1825,1846,1829
1841,1870,1901
1845,1867,1847
1826,1882,1790
1831,1894,1809
1877,2044,1907
1861,1927,1885
1779,1717,1758
1809,1722,1787
1860,1866,1902
1811,1803,1797
1807,1815,1744
1840,1847,1809
1853,1870,1870
1837,1845,1835
1834,1853,1792
1877,1889,1853
1898,1902,1893
1836,1853,1820
1808,1846,1774
1822,1875,1822
1861,1886,1878
1854,1872,1842
1837,1861,1808
1852,1882,1843
1840,1875,1878
1808,1869,1847
1837,1872,1824
1820,1889,1840
1861,1903,1883
1819,1860,1827
1818,1850,1762
1877,1901,1827
1901,1910,1904
1875,1874,1871
1818,1842,1788
1821,1839,1803
1853,1872,1854
1865,1872,1840
1818,1840,1793
1927,1842,1852
1861,1902,1917
1911,1839,1850
1872,1819,1787
1877,1894,1866
1884,1881,1905
1867,1852,1864
1855,1842,1806
1889,1869,1845
1857,1855,1904
1891,1824,1859
1898,1855,1824
1863,1845,1856
1968,1890,1936
1936,1872,1913
1872,1796,1786
1850,1817,1808
1872,1838,1863
1859,1836,1850
1856,1862,1826
1931,1873,1887
1941,1872,1936
1869,1835,1856
1840,1825,1782
1883,1833,1852
1911,1899,1920
1893,2011,1894
1856,1886,1830
1870,1842,1863
1897,1899,1929
1874,1899,1879
1874,1941,1842
1872,1933,1845
1855,1874,1842
1872,1881,1853
1904,1919,1818
1920,1975,1869
1941,1997,1920
1827,1973,1861
1843,1950,1789
1824,1986,1839
1905,2035,1914
1842,2029,1869
1825,2000,1801
1861,2035,1843
1921,2106,1923
1904,2044,1875
1808,2000,1785
1901,2057,1830
1917,2096,1920
1923,2059,1859
1866,2106,1810
1868,2093,1828
1872,2110,1872
1856,2138,1847
1867,2139,1815
1871,2188,1872
1851,2126,1878
1856,2078,1844
1913,2118,1808
1872,2267,1855
1899,2231,1879
1872,2196,1851
1859,2219,1803
1866,2256,1836
1885,2288,1889
1879,2300,1861
1861,2307,1815
1871,2343,1855
1904,2382,1919
1885,2362,1881
1854,2339,1803
1882,2367,1842
1863,2391,1902
1791,2383,1857
1777,2390,1812
1872,2391,1839
1883,2411,1885
1955,2402,1856
1847,2374,1791
1857,2386,1808
1814,2397,1853
1863,2415,1854
1842,2418,1808
1852,2395,1840
1857,2385,1866
1868,2397,1845
1853,2394,1798
1868,2407,1828
1878,2411,1872
1872,2372,1849
1811,2359,1785
1814,2379,1822
1890,2403,1894
1870,2375,1856
1869,2369,1808
1872,2341,1833
1872,2341,1867
1919,2335,1840
1883,2339,1814
1945,2416,1909
1881,2306,1843
1806,2271,1769
1781,2385,1769
1840,2306,1827
1923,2160,1871
1936,2223,1865
1911,2478,1835
1872,2285,1831
1858,2033,1825
1828,2079,1821
1855,2149,1785
1852,2195,1809
1871,2211,1851
1862,2193,1838
1847,2177,1794
1889,2192,1850
1889,2197,1889
1847,2170,1835
1916,2160,1787
1872,2169,1830
1915,2182,1890
1873,2160,1845
1876,2157,1801
1853,2125,1799
1861,2117,1858
1859,2109,1840
1861,2111,1798
1887,2117,1822
1903,2130,1887
1873,2123,1859
1844,2085,1781
1884,2095,1818
1887,2076,1873
1818,2025,1825
1793,2026,1779
1868,2064,1835
1962,2071,1891
1897,2046,1856
1875,2026,1803
1922,2070,1847
1916,2054,1899
1901,1994,1861
1926,1982,1803
1881,2003,1841
1899,2011,1898
1903,1997,1857
1873,1984,1787
1878,1979,1829
1904,1977,1888
1889,1955,1850
1874,1949,1799
1903,1968,1840
1910,1966,1886
1899,1941,1841
1873,1936,1790
1887,1950,1834
1895,1937,1889
1887,1918,1853
1872,1922,1803
1900,1974,1851
1912,1910,1898
1890,1844,1842
1869,1849,1801
1888,1886,1840
1911,1904,1890
1895,1891,1841
1872,1876,1798
1886,1897,1845
1902,1899,1887
1883,1879,1858
1870,1862,1806
1887,1878,1837
1909,1961,1901
1885,1857,1858
1862,1783,1778
1891,1815,1826
1915,1849,1889
1885,1839,1850
1869,1846,1797
1878,1846,1834
1891,1821,1872
1872,1808,1830
1856,1796,1777
1893,1814,1826
1917,1828,1878
1893,1808,1837
1858,1793,1777
1882,1808,1825
1891,1811,1862
1868,1793,1820
1875,1795,1786
1897,1818,1831
1918,1823,1887
1890,1785,1852
1855,1764,1791
1871,1785,1829
1899,1802,1873
1872,1774,1827
1849,1774,1777
1872,1781,1822
1871,1747,1856
1850,1704,1808
1855,1741,1783
1885,1775,1837
1894,1785,1873
1866,1797,1840
1842,1713,1773
1855,1698,1803
1868,1678,1860
1870,1665,1835
1844,1673,1773
1858,1707,1802
1872,1713,1853
1872,1706,1818
1875,1708,1779
1885,1695,1821
1886,1691,1856
1867,1670,1801
1855,1663,1744
1885,1678,1791
1906,1691,1840
1886,1689,1805
1872,1655,1744
1886,1659,1787
1892,1664,1840
1873,1650,1793
1871,1658,1742
1889,1697,1769
1899,1695,1822
1894,1619,1808
1878,1595,1744
1899,1665,1789
1908,1678,1844
1907,1637,1803
1905,1621,1748
1919,1655,1777
1921,1658,1821
1922,1639,1796
1923,1645,1755
1966,1691,1801
1962,1667,1839
1932,1616,1785
1946,1641,1765
1990,1662,1822
2001,1658,1856
1970,1622,1801
1952,1634,1756
1978,1650,1794
1999,1664,1840
1995,1669,1798
1985,1648,1741
2027,1632,1776
2092,1646,1843
2096,1618,1798
2100,1607,1747
2146,1629,1787
2178,1662,1838
2184,1651,1799
2196,1659,1760
2223,1705,1801
2247,1696,1840
2254,1627,1792
2234,1607,1730
2259,1679,1781
2299,1634,1842
2288,1641,1799
2267,1654,1744
2294,1699,1789
2320,1623,1824
2307,1600,1776
2284,1617,1726
2288,1648,1750
2336,1671,1835
2347,1675,1826
2325,1658,1772
2326,1671,1787
2327,1680,1831
2321,1667,1796
2299,1653,1744
2317,1669,1785
2342,1699,1835
2323,1699,1791
2306,1648,1744
2320,1658,1779
2333,1689,1840
2323,1678,1794
2305,1647,1742
2326,1680,1787
2345,1680,1840
2310,1662,1787
2288,1651,1735
2317,1681,1784
2330,1703,1827
2303,1693,1790
2285,1639,1744
2304,1671,1790
2315,1680,1827
2288,1659,1771
2286,1658,1731
2309,1694,1791
2319,1682,1842
2272,1686,1793
2208,1709,1712
2261,1703,1790
2319,1718,1859
2307,1683,1819
2271,1698,1757
2274,1659,1783
2288,1677,1838
2271,1715,1801
2249,1677,1754
2269,1722,1801
2283,1702,1856
2258,1684,1813
2239,1743,1755
2271,1700,1803
2282,1605,1857
2254,1776,1810
2224,1735,1755
2224,1722,1791
2244,1699,1843
2230,1725,1805
2208,1718,1756
2215,1770,1790
2222,1765,1849
2208,1745,1808
2206,1738,1730
2220,1712,1776
2265,1799,1902
2241,1787,1875
2147,1702,1758
2122,1712,1744
2166,1793,1814
2182,1807,1809
2151,1739,1750
2162,1685,1780
2204,1714,1845
2197,1757,1835
2151,1831,1792
2158,1711,1822
2133,1670,1823
2127,1711,1777
2125,1754,1756
2158,1794,1833
2155,1748,1852
2161,1837,1808
2126,1778,1766
2112,1634,1802
2141,1680,1850
2156,1745,1801
2139,1891,1765
2166,2111,1860
2187,1863,1856
2096,1447,1727
2074,1477,1744
2096,1889,1853
2219,1982,1935
2181,1823,1808
2032,1851,1850
2007,1592,1802
2044,1680,1820
2197,1803,1808
2061,1655,1798
2000,1661,1878
2054,1683,1855
2066,2121,1808
2041,1923,1744
2096,1535,1822
2063,1773,1856
2131,1797,1829
1969,1620,1754
1984,1843,1835
1943,1765,1840
2000,1775,1766
1965,1914,1679
1919,1724,1803
1983,1770,1985
1969,1820,1916
1915,1851,1716
2013,1839,1733
1953,1948,1735
1807,1462,1751
1762,1514,1723
1903,1857,1820
1866,1971,1876
1643,1505,1763
1584,1535,1725
1661,1722,1871
1599,1840,1920
1568,1946,1783
1530,1714,1665
1471,1655,1761
1287,1802,1894
1275,1818,1859
1250,1707,1763
1245,1718,1822
1218,1735,1921
1146,1563,1815
1134,1700,1760
1216,1718,1883
1175,1855,1847
1141,1799,1740
1104,1394,1678
1221,1535,1877
1178,1728,1941
1045,1852,1910
1174,1668,1741
1105,1482,1727
1006,1658,1831
1057,1680,1891
1021,1584,1807
1012,1593,1821
1110,1729,1867
1135,1499,1791
1104,1526,1814
1110,1611,1983
1073,1846,1885
1008,1530,1771
986,1582,1767
1069,1626,1841
1203,1410,1827
1136,1485,1805
1060,1639,1803
1058,1582,1832
1148,1615,1922
1165,1665,1895
1241,1463,1805
1253,1495,1780
1143,1661,1857
1038,1535,1846
1010,1466,1778
1135,1631,1891
1200,1794,1894
1139,1605,1812
1154,1602,1804
1105,1620,1825
1122,1518,1904
1170,1596,1839
1161,1633,1803
1190,1535,1857
1185,1723,1871
1168,1619,1812
1167,1478,1752
1241,1584,1878
1297,1705,1909
1237,1695,1840
1186,1582,1805
1172,1559,1859
1349,1722,1888
1309,1647,1837
1213,1776,1842
1279,1564,1821
1209,1589,1869
1183,1606,1809
1243,1535,1803
1387,1775,1904
1330,1872,1938
1190,1591,1846
1217,1558,1791
1328,1735,1871
1378,1933,1935
1287,1494,1804
1258,1441,1745
1333,1676,1857
1372,1868,1898
1375,1759,1885
1392,1702,1831
1428,1655,1898
1426,1580,1854
1429,1674,1808
1359,1680,1770
1289,1746,1899
1355,1787,1958
1397,1719,1837
1430,1721,1744
1477,1845,1811
1454,1846,1978
1378,1697,1952
1367,1759,1755
1454,1863,1791
1386,1631,1855
1405,1649,1862
1411,1715,1795
1467,1801,1854
1574,2035,1967
1501,1798,1879
1421,1689,1780
1443,1669,1832
1492,1693,1894
1535,1774,1840
1620,1850,1771
1511,1766,1774
1506,1789,1902
1488,1864,1910
1561,1968,1868
1485,1873,1929
1514,1808,1923
1517,1842,1825
1535,1750,1766
1483,1735,1812
1501,1882,1918
1556,2000,1883
1535,1886,1772
1581,1767,1851
1600,1886,1954
1600,1771,1824
1663,1866,1776
1635,1786,1851
1498,1775,1868
1518,1889,1892
1572,1971,1870
1623,1909,1763
1605,1816,1838
1575,1920,1893
1598,1901,1883
1634,1794,1837
1695,1797,1809
1595,1879,1858
1616,1919,1813
1633,1890,1818
1639,1982,1856
1530,1985,1940
1556,1815,1869
1615,1886,1825
1645,1882,1863
1637,1810,1791
1629,1819,1814
1665,2001,1872
1630,1977,1856
1658,1839,1814
1743,1843,1810
1693,1952,1910
1733,2030,1924
1687,1880,1812
1611,1799,1837
1638,1888,1893
1674,1985,1878
1686,1920,1755
1771,1840,1727
1683,1881,1840
1677,2090,1953
1687,1997,1872
1712,1807,1793
1776,1861,1825
1626,2015,1904
1623,1936,1919
1675,1901,1879
1725,1968,1858
1763,1995,1845
1766,1865,1797
1779,1889,1775
1744,1931,1897
1747,1932,1904
1721,1905,1856
1779,2063,1840
1781,2022,1848
1712,1884,1854
1744,1856,1840
1733,1904,1814
1808,1945,1831
1730,2000,1912
1758,2015,1883
1730,1917,1771
1719,1906,1815
1807,2035,1920
1792,2013,1837
1754,1983,1821
1703,1831,1845
1840,1903,1890
1846,2135,1874
1723,1918,1825
1744,1899,1850
1760,1998,1853
1785,1851,1808
1829,1870,1727
1803,1916,1793
1761,1936,1931
1767,2009,1904
1772,1981,1809
1810,1872,1792
1814,1919,1870
1888,2001,1905
1792,2095,1816
1744,1907,1795
1807,1871,1840
1803,1989,1865
1808,2110,1830
1840,2043,1854
1847,1856,1854
1806,1868,1836
1768,1989,1807
1845,2080,1874
1859,1847,1886
1853,1794,1825
1787,1892,1764
1794,2023,1866
1828,2024,1901
1813,1891,1859
1834,1904,1807
1899,1922,1781
1869,1935,1857
1857,1932,1868
1833,1948,1820
1837,1969,1857
1813,2000,1919
1808,2014,1907
1782,1947,1778
1840,1999,1827
1891,2034,1901
1909,1991,1853
1835,1798,1762
1796,1833,1814
1827,1946,1881
1885,2211,1923
1877,2066,1805
1932,1703,1776
1877,1751,1869
1915,1887,1898
1847,1889,1809
1859,1931,1733
1894,1936,1931
1879,1951,1861
1837,1975,1839
1830,1957,1847
1872,1925,1917
1917,2000,1861
1837,2002,1792
1845,1909,1798
1852,1956,1879
1903,2005,1888
1955,1946,1806
1866,1860,1788
1829,1845,1863
1856,1917,1825
1890,1911,1827
1936,2031,1843
1941,2068,1909
1969,2096,1865
1890,1770,1721
1918,1763,1773
1855,1818,1917
1856,1915,1914
1945,1911,1844
1874,1937,1909
1910,2059,1842
1923,2071,1774
1870,1797,1757
1861,1829,1842
1879,1968,1884
1904,2000,1856
1946,1936,1784
1893,1825,1799
1885,1850,1902
1914,1902,1887
1916,1953,1886
1936,1927,1840
1886,1909,1807
1897,2064,1849
1934,2070,1824
1934,1819,1815
1914,1801,1857
1966,1857,1837
1845,1895,1841
1853,1882,1808
1923,1882,1870
1927,1921,1887
1936,1939,1856
2001,2020,1920
1893,1904,1877
1840,1813,1787
1891,1873,1823
1930,1952,1873
1922,1887,1822
1877,1866,1791
1894,1918,1846
1903,1921,1871
1928,1917,1843
1957,1877,1786
1922,1955,1813
1874,1863,1857
1915,1899,1915
1904,1985,1834
1914,1871,1847
1885,1796,1843
1885,1849,1894
1971,1984,1867
1955,2055,1824
1981,1823,1794
1921,1821,1869
1882,1911,1879
1936,1942,1887
1856,1854,1855
1828,1802,1822
1910,1877,1791
1961,1936,1815
1990,1982,1901
1952,1972,1869
1862,1829,1767
1817,1733,1733
1869,1859,1845
1929,1984,1915
1943,1940,1846
1951,1903,1808
1914,1951,1837
1932,1868,1837
1958,1835,1786
1872,1850,1789
1874,1935,1886
1968,1916,1918
1962,1931,1874
1943,1919,1809
1878,1872,1783
1860,1803,1872
1911,1837,1825
1913,1957,1776
1926,2016,1905
1888,1950,1876
1878,1819,1786
1879,1862,1856
1967,1776,1809
1932,1835,1838
1867,1877,1813
1876,1933,1776
1966,1936,1840
1904,1842,1963
1881,1881,1846
1870,1968,1794
1920,1984,1805
2009,1911,1878
1924,1830,1807
1890,1769,1792
1908,1844,1869
1948,1935,1873
1920,1970,1851
1870,1916,1827
1841,1866,1808
1871,1782,1893
1876,1710,1872
1895,1799,1743
1910,1857,1824
1971,1866,1876
1922,1887,1799
1909,1917,1822
1894,1921,1873
1968,1936,1917
1956,1931,1823
1929,1850,1822
1887,1867,1920
1887,1926,1957
1931,2016,1751
1878,1843,1788
1916,1778,1840
1904,1855,1844
1876,1845,1834
1850,1847,1776
1846,1877,1852
1914,1853,1893
1916,1823,1807
1917,1854,1825
1936,1968,1915
1950,1905,1882
1920,1913,1804
1893,1859,1770
1856,1808,1791
1852,1803,1901
1958,1856,1818
1898,1929,1785
1869,1883,1925
1869,1831,1879
1871,1874,1827
1907,2069,1826
1910,1811,1840
1887,1716,1836
1871,1747,1873
1979,1839,1782
2007,1957,1893
1934,1959,1920
1840,1837,1904
1799,1838,1779
1885,1861,1856
1923,1919,1935
1963,1975,1881
1835,1829,1755
1827,1818,1843
1883,1945,1897
1885,1949,1779
1850,1776,1719
1883,1829,1830
1892,1808,1890
1899,1875,1843
1936,1871,1762
1959,1824,1854
1879,1866,1904
1823,1856,1843
1889,1847,1771
1890,1915,1822
1937,1887,1884
1988,2031,1874
1863,1878,1806
1835,1728,1791
1842,1775,1840
1821,1863,1844
1868,1851,1781
1919,1968,1904
1946,1907,1968
1853,1786,1796
1819,1776,1719
1877,1917,1818
1954,2090,1935
1879,1887,1889
1798,1665,1749
1859,1750,1789
1913,1870,1884
1955,2001,1911
1899,1880,1835
1969,1789,1778
1886,1849,1843
1862,1863,1846
1826,1859,1826
1842,1874,1872
1915,1871,1948
1852,1840,1853
1888,1867,1798
1872,1846,1842
1928,1901,1873
1833,1951,1865
1909,2016,1825
1906,1887,1810
1979,1815,1884
1919,1810,1872
1815,1775,1785
1799,1890,1831
1927,1861,1869
1867,1776,1806
1847,1813,1781
1899,1983,1849
1947,1949,1934
1899,1809,1787
1886,1776,1775
1877,1804,1825
1823,1855,1869
1892,1875,1831
1957,1891,1778
1820,1900,1821
1793,1854,1889
1834,1851,1913
1842,1901,1783
1942,1921,1779
1878,1942,1872
1847,1818,1831
1856,1801,1773
1915,1894,1833
1921,1859,1883
1877,1871,1838
1855,1810,1775
1851,1872,1818
1886,1883,1862
1850,1869,1801
1873,1870,1744
1926,1872,1849
1990,1817,1869
1863,1823,1799
1795,1818,1776
1835,1866,1829
1934,1906,1889
1855,1862,1813
1795,1881,1755
1840,1904,1821
1856,1888,1942
1846,1902,1840
1872,1827,1757
1828,1947,1856
1871,1859,1875
1867,1786,1805
1851,1761,1744
1955,1823,1795
1966,1899,1855
1792,1886,1807
1776,1853,1819
1819,1828,1822
1853,1828,1793
1906,1877,1753
1922,1933,1793
1863,1878,1882
1822,1840,1850
1846,1857,1749
1840,1835,1763
1911,1901,1883
1909,1851,1861
1791,1769,1786
1762,1837,1773
1807,1895,1853
1869,1910,1903
1857,1812,1808
1842,1840,1783
1895,2046,1894
1895,1919,1881
1853,1703,1793
1834,1734,1779
1868,1872,1840
1943,1820,1855
1904,1829,1789
1842,1859,1776
1827,1934,1854
1946,1909,1843
1947,1817,1838
1744,1751,1801
1735,1837,1803
1808,1850,1908
1843,1865,1857
1824,1840,1782
1859,1963,1836
1867,1856,1866
1859,1808,1816
1845,1845,1769
1884,1951,1872
1875,1829,1903
1846,1758,1809
1849,1841,1792
1894,1977,1855
1881,1859,1894
1877,1756,1830
1968,1732,1727
1802,1809,1814
1712,1835,1920
1840,1847,1858
1807,1878,1762
1935,1906,1810
1925,1887,1913
1827,1915,1857
1788,1855,1775
1881,1821,1814
1878,1879,1949
1815,1893,1866
1830,1918,1748
1843,1805,1808
1968,1833,1859
1874,1826,1831
1915,1818,1775
1866,1829,1840
1838,1825,1815
1893,1840,1813
1923,1904,1814
1977,2075,1897
1859,1840,1881
1743,1727,1755
1812,1809,1753
1808,1857,1849
1812,1770,1943
1872,1840,1853
1827,1883,1761
1879,1859,1807
1858,1840,1850
1825,1843,1808
1840,1871,1777
1887,1894,1854
1936,1975,1917
1904,1883,1847
1735,1755,1783
1885,1820,1872
1902,1865,1917
1830,1775,1776
1808,1829,1748
1872,1866,1847
1895,1904,1925
1984,1869,1855
1919,1797,1750
1938,1787,1791
1892,1850,1872
1858,1871,1867
1904,1870,1820
1909,1863,1846
1919,1909,1926
1879,1765,1835
1846,1808,1804
1891,1872,1840
1876,1877,1877
1807,1823,1778
1794,1904,1764
1862,1857,1842
1879,1898,1904
1875,1785,1843
1978,1931,1875
2011,1917,1920
1840,1774,1897
1798,1718,1790
1840,1877,1741
1879,1949,1856
1826,1840,1842
1830,1755,1789
1989,1777,1796
1918,1947,1786
1700,1844,1847
1698,1712,1801
1853,1894,1837
1902,1806,1878
1917,2078,1895
1794,1725,1787
1746,1577,1741
1881,1717,1808
1845,1888,1869
1809,1870,1855
1843,1802,1840
1953,1840,1845
1936,1871,1910
1742,1807,1744
1755,1770,1731
1897,1878,1825
1783,1911,1872
1823,1867,1865
1842,1811,1753
1769,1728,1849
1787,1765,1826
1792,1847,1789
1806,1834,1778
1852,1967,1856
1875,2032,1935
1829,1895,1843
1789,1611,1730
1813,1618,1808
1857,1856,1889
1855,1915,1858
1843,1839,1799
1875,1894,1840
1879,1798,1815
1790,1776,1808
1815,1862,1796
1782,1833,1767
1808,1794,1823
1847,1830,1858
1776,1807,1815
1920,1866,1808
1847,1922,1914
1753,1958,1855
1766,1860,1778
1865,1769,1826
1841,1808,1865
1801,1814,1804
1798,1834,1811
1833,1825,1837
1854,1862,1881
1870,1857,1807
1883,1965,1818
1904,1793,1814
1840,1727,1788
1739,1822,1755
1831,1853,1724
1938,1834,1815
1769,1851,1981
1765,1898,1878
1804,1840,1763
1887,1904,1808
1873,2083,1891
1808,1936,1833
1776,1872,1763
1833,1857,1840
1904,1772,1852
1861,1798,1773
1803,1890,1728
1812,1877,1858
1815,1984,1901
1808,1846,1831
1825,1726,1791
1857,1920,1876
1839,1921,1837
1842,1803,1744
1833,1857,1728
1856,1853,1852
1803,1854,1889
1796,1819,1839
1823,1895,1774
1904,1930,1820
1949,2021,1895
1855,2021,1842
1725,1877,1808
1746,1723,1823
1838,1733,1789
