1778,1984,1823
1731,1965,1751
1774,1983,1821
1779,1998,1849
1755,1969,1794
1744,1968,1751
1776,2016,1822
1803,2039,1877
1783,2019,1827
1776,2033,1797
1789,2080,1840
1741,2021,1824
1735,2005,1791
1755,2030,1777
1790,2065,1837
1808,2087,1885
1770,2045,1825
1743,2075,1775
1779,2071,1824
1796,2142,1872
1790,2121,1841
1759,2054,1789
1745,2039,1808
1772,2096,1862
1774,2063,1827
1774,2043,1803
1779,2067,1838
1743,2046,1826
1739,2021,1791
1778,2064,1796
1770,2101,1819
1772,2107,1857
1754,2072,1811
1716,2002,1740
1734,2026,1787
1790,2090,1872
1774,2064,1831
1738,2021,1761
1758,2061,1809
1775,2082,1856
1771,2071,1826
1783,2087,1808
1801,2091,1850
1764,2047,1844
1741,2029,1797
1761,2058,1776
1745,2008,1795
1741,2005,1823
1763,2027,1822
1747,2015,1779
1742,2022,1802
1763,2032,1859
1770,2006,1826
1766,1987,1791
1781,2039,1840
1785,2080,1871
1760,2020,1826
1745,1968,1789
1738,1987,1797
1746,1983,1840
1757,1989,1819
1775,2009,1808
1755,2003,1823
1754,1991,1852
1759,1999,1834
1749,2000,1797
1754,2000,1810
1767,2007,1857
1773,2000,1840
1793,2034,1824
1745,1995,1796
1743,1979,1819
1733,1977,1787
1755,1994,1790
1790,2036,1851
1765,2003,1842
1750,1963,1806
1739,1988,1763
1765,2000,1817
1769,2007,1856
1763,1999,1821
1761,1998,1787
1803,2067,1863
1786,2003,1875
1703,1973,1771
1715,1872,1745
1776,1957,1840
1779,1902,1873
1737,1929,1806
1744,1973,1779
1787,1968,1849
1775,1987,1872
1750,1938,1817
1761,1941,1791
1790,1994,1856
1793,1979,1892
1739,1925,1809
1739,1911,1778
1735,1869,1792
1753,1925,1846
1744,1904,1810
1758,1935,1800
1814,2000,1874
1762,1936,1854
1735,1879,1793
1756,1909,1780
1760,1869,1808
1762,1894,1845
1778,1904,1836
1746,1862,1774
1763,1888,1811
1770,1933,1855
1751,1850,1807
1759,1851,1781
1801,1904,1851
1807,1903,1878
1756,1875,1811
1750,1903,1780
1767,1863,1823
1755,1839,1846
1744,1829,1811
1765,1833,1798
1781,1936,1834
1780,1843,1872
1762,1840,1821
1750,1806,1772
1760,1812,1808
1776,1877,1856
1777,1840,1829
1782,1826,1799
1798,1865,1847
1774,1837,1855
1758,1818,1819
1772,1839,1796
1769,1842,1828
1766,1836,1856
1751,1809,1808
1776,1829,1796
1795,1850,1854
1783,1839,1873
1746,1812,1813
1772,1833,1805
1790,1845,1846
1767,1822,1859
1749,1802,1814
1744,1796,1776
1777,1839,1846
1807,1856,1895
1816,1866,1871
1767,1820,1803
1743,1798,1802
1746,1799,1840
1755,1797,1823
1781,1824,1808
1799,1847,1855
1793,1843,1881
1771,1808,1827
1773,1818,1803
1793,1840,1850
1803,1840,1896
1789,1808,1846
1808,1833,1829
1744,1778,1792
1743,1789,1835
1754,1785,1813
1775,1792,1795
1805,1821,1847
1801,1837,1881
1776,1802,1829
1776,1808,1803
1808,1826,1855
1825,1840,1895
1767,1779,1814
1773,1786,1792
1792,1806,1843
1782,1799,1867
1815,1829,1868
1808,1815,1837
1767,1778,1821
1747,1766,1838
1775,1769,1825
1794,1794,1824
1798,1807,1848
1805,1813,1878
1816,1806,1863
1777,1766,1799
1799,1796,1852
1808,1804,1885
1798,1785,1842
1779,1767,1794
1805,1803,1851
1838,1838,1919
1827,1831,1865
1765,1755,1776
1779,1777,1833
1787,1773,1870
1793,1775,1841
1815,1795,1833
1839,1815,1868
1790,1773,1856
1788,1766,1834
1808,1788,1815
1815,1804,1852
1805,1791,1867
1808,1792,1842
1824,1808,1823
1781,1782,1808
1792,1793,1859
1811,1785,1842
1792,1769,1797
1818,1807,1854
1825,1809,1890
1826,1805,1856
1823,1805,1830
1829,1811,1857
1805,1775,1862
1779,1744,1814
1785,1753,1793
1833,1807,1857
1839,1802,1893
1795,1755,1824
1776,1751,1783
1799,1775,1835
1820,1795,1879
1810,1776,1839
1810,1778,1810
1813,1785,1850
1803,1771,1866
1808,1781,1840
1818,1792,1825
1822,1797,1846
1826,1808,1879
1792,1772,1823
1779,1754,1782
1818,1795,1840
1799,1776,1850
1778,1756,1806
1777,1761,1785
1813,1793,1840
1823,1809,1887
1822,1811,1856
1801,1778,1802
1822,1813,1840
1806,1797,1863
1806,1779,1840
1798,1765,1803
1814,1798,1846
1847,1820,1906
1814,1783,1849
1780,1750,1776
1776,1754,1808
1818,1809,1875
1809,1791,1836
1785,1749,1786
1820,1791,1840
1834,1815,1881
1810,1781,1840
1787,1770,1782
1794,1776,1828
1813,1792,1874
1814,1787,1851
1829,1799,1827
1828,1806,1853
1803,1782,1869
1810,1781,1840
1802,1771,1803
1803,1778,1830
1841,1821,1893
1858,1835,1877
1789,1753,1783
1786,1756,1807
1818,1795,1870
1831,1805,1856
1808,1787,1798
1826,1803,1835
1833,1793,1872
1810,1765,1827
1808,1769,1792
1841,1813,1850
1856,1822,1895
1852,1807,1847
1827,1800,1803
1818,1787,1818
1834,1803,1894
1819,1791,1806
1805,1776,1776
1809,1795,1814
1849,1829,1934
1838,1808,1821
1808,1787,1792
1848,1831,1811
1824,1806,1853
1807,1791,1828
1798,1792,1808
1828,1818,1828
1869,1851,1877
1835,1815,1825
1813,1807,1797
1833,1820,1833
1820,1808,1859
1805,1786,1825
1808,1794,1791
1837,1830,1835
1856,1845,1870
1835,1820,1832
1808,1797,1798
1827,1826,1834
1847,1838,1871
1831,1808,1823
1839,1811,1827
1860,1856,1887
1850,1842,1887
1802,1792,1811
1817,1806,1781
1845,1840,1839
1808,1808,1839
1799,1783,1782
1815,1803,1776
1850,1835,1841
1855,1849,1876
1835,1830,1825
1838,1822,1792
1839,1835,1831
1846,1844,1872
1872,1874,1867
1831,1825,1825
1809,1808,1793
1810,1813,1835
1813,1805,1808
1819,1806,1795
1814,1812,1808
1821,1817,1857
1811,1808,1813
1826,1815,1798
1846,1841,1837
1846,1845,1857
1826,1811,1785
1821,1811,1767
1869,1872,1887
1858,1853,1872
1802,1786,1764
1791,1774,1721
1846,1840,1841
1858,1842,1862
1847,1839,1846
1841,1840,1770
1810,1806,1808
1814,1813,1861
1822,1804,1814
1838,1829,1814
1857,1866,1833
1851,1847,1872
1802,1789,1776
1817,1803,1791
1871,1871,1867
1833,1827,1842
1806,1798,1814
1840,1833,1791
1858,1853,1849
1867,1862,1881
1827,1828,1814
1791,1789,1744
1826,1837,1806
1849,1859,1859
1826,1823,1814
1828,1840,1787
1829,1840,1814
1823,1834,1840
1827,1835,1813
1846,1856,1821
1824,1825,1765
1821,1826,1839
1829,1824,1808
1873,1869,1831
1826,1836,1840
1805,1819,1819
1821,1824,1840
1841,1841,1778
1840,1857,1826
1809,1823,1872
1804,1806,1807
1826,1828,1785
1837,1841,1822
1847,1858,1861
1810,1817,1807
1804,1813,1775
1850,1853,1838
1858,1871,1874
1842,1847,1819
1850,1843,1792
1834,1840,1811
1851,1859,1856
1855,1859,1840
1838,1840,1824
1813,1831,1779
1811,1826,1837
1810,1810,1776
1815,1815,1782
1850,1859,1806
1831,1846,1831
1829,1836,1855
1831,1835,1753
1847,1867,1859
1835,1854,1824
1810,1825,1739
1842,1861,1830
1835,1856,1828
1818,1840,1851
1824,1841,1823
1813,1831,1791
1837,1854,1836
1827,1843,1869
1799,1820,1808
1810,1835,1776
1861,1879,1853
1853,1867,1916
1811,1829,1810
1824,1839,1772
1854,1866,1838
1840,1846,1830
1823,1835,1808
1846,1854,1792
1840,1859,1835
1843,1853,1867
1845,1856,1831
1820,1825,1775
1838,1839,1757
1861,1867,1867
1840,1846,1831
1826,1834,1793
1874,1893,1866
1827,1853,1890
1783,1803,1770
1813,1835,1744
1854,1872,1817
1844,1870,1873
1820,1840,1805
1811,1839,1739
1846,1859,1866
1838,1845,1870
1836,1840,1808
1862,1878,1808
1861,1888,1827
1828,1843,1835
1805,1812,1777
1814,1826,1761
1856,1866,1825
1838,1858,1840
1840,1863,1824
1806,1835,1751
1798,1839,1764
1826,1843,1830
1830,1840,1808
1830,1849,1790
1853,1876,1834
1905,1943,1917
1839,1851,1818
1777,1795,1729
1813,1837,1791
1840,1871,1852
1851,1871,1841
1803,1833,1776
1821,1866,1808
1834,1874,1838
1819,1840,1799
1826,1838,1774
1852,1878,1837
1874,1899,1877
1839,1856,1817
1837,1863,1783
1871,1908,1854
1853,1873,1859
1808,1827,1789
1820,1842,1776
1872,1904,1859
1808,1847,1835
1790,1816,1783
1803,1847,1775
1870,1870,1814
1790,1862,1851
1861,1858,1818
1840,1853,1781
1817,1891,1838
1797,1863,1850
1839,1863,1818
1856,1856,1787
1785,1866,1810
1847,1898,1876
1826,1867,1834
1807,1840,1763
1834,1854,1803
1860,1879,1863
1856,1856,1812
1787,1840,1761
1855,1856,1808
1834,1882,1856
1840,1879,1838
1840,1871,1806
1846,1887,1845
1849,1879,1866
1809,1846,1799
1812,1857,1777
1843,1872,1828
1878,1894,1877
1855,1853,1819
1819,1849,1773
1849,1872,1824
1815,1856,1825
1803,1831,1782
1825,1849,1776
1882,1909,1845
1841,1885,1845
1796,1855,1801
1819,1872,1787
1841,1887,1827
1857,1898,1857
1829,1862,1807
1821,1860,1781
1840,1884,1829
1870,1907,1869
1865,1901,1845
1828,1834,1756
1808,1856,1793
1849,1898,1867
1818,1855,1805
1808,1838,1770
1833,1865,1812
1873,1878,1856
1861,1869,1809
1803,1879,1789
1887,1897,1840
1857,1894,1858
1821,1857,1805
1808,1886,1792
1807,1893,1841
1797,1891,1855
1815,1858,1813
1776,1850,1776
1823,1887,1832
1897,1919,1902
1820,1890,1840
1807,1827,1746
1821,1842,1788
1878,1869,1853
1810,1871,1826
1827,1867,1804
1871,1901,1863
1838,1881,1872
1799,1859,1808
1824,1857,1774
1855,1907,1841
1872,1889,1865
1828,1876,1822
1822,1865,1783
1858,1903,1840
1841,1886,1861
1837,1867,1802
1808,1839,1754
1840,1882,1823
1876,1933,1891
1831,1872,1818
1805,1847,1762
1839,1881,1821
1866,1877,1857
1822,1886,1827
1810,1894,1805
1887,1868,1799
1840,1874,1840
1805,1863,1809
1842,1874,1794
1887,1926,1857
1823,1885,1847
1811,1845,1794
1840,1840,1746
1838,1888,1827
1850,1884,1854
1814,1855,1805
1840,1879,1806
1863,1904,1840
1812,1850,1815
1787,1822,1775
1808,1853,1770
1839,1871,1807
1841,1882,1846
1851,1898,1840
1829,1872,1795
1820,1870,1810
1850,1877,1848
1840,1874,1835
1841,1863,1791
1821,1878,1820
1809,1872,1856
1872,1852,1807
1825,1855,1781
1821,1875,1823
1861,1886,1856
1808,1851,1809
1887,1855,1791
1895,1875,1834
1840,1895,1875
1872,1867,1823
1799,1839,1765
1851,1877,1822
1847,1886,1867
1833,1854,1809
1834,1867,1795
1890,1936,1875
1840,1887,1861
1779,1822,1782
1792,1835,1760
1870,1889,1847
1827,1877,1863
1821,1859,1817
1778,1869,1789
1856,1910,1847
1847,1904,1875
1837,1875,1828
1826,1872,1792
1808,1871,1807
1808,1866,1835
1803,1859,1808
1879,1887,1804
1829,1901,1845
1786,1870,1856
1814,1867,1824
1839,1875,1801
1843,1891,1844
1817,1871,1850
1794,1847,1806
1802,1862,1793
1840,1909,1861
1815,1895,1883
1852,1871,1828
1813,1869,1801
1843,1882,1837
1904,1887,1866
1847,1889,1853
1846,1862,1788
1830,1861,1808
1830,1870,1861
1837,1862,1833
1830,1887,1815
1851,1904,1847
1855,1901,1886
1795,1831,1801
1781,1811,1763
1856,1888,1853
1825,1858,1855
1806,1835,1808
1815,1856,1792
1847,1890,1852
1839,1867,1867
1829,1846,1829
1832,1854,1797
1863,1902,1865
1828,1861,1863
1810,1840,1809
1823,1859,1787
1841,1887,1843
1845,1883,1870
1805,1827,1799
1797,1821,1758
1870,1897,1851
1878,1905,1897
1808,1843,1802
1779,1815,1751
1836,1863,1820
1861,1885,1870
1827,1856,1816
1817,1840,1780
1840,1862,1824
1856,1872,1873
1857,1870,1843
1840,1871,1809
1841,1877,1838
1829,1866,1858
1809,1838,1815
1833,1861,1797
1851,1873,1850
1814,1838,1842
1808,1826,1807
1821,1839,1791
1837,1849,1840
1841,1867,1871
1830,1849,1831
1824,1850,1795
1841,1875,1841
1859,1882,1889
1835,1860,1836
1830,1859,1803
1843,1869,1841
1828,1867,1857
1808,1843,1813
1826,1867,1805
1808,1843,1808
1813,1849,1849
1808,1845,1812
1791,1831,1776
1817,1861,1838
1840,1882,1878
1837,1870,1847
1831,1866,1809
1842,1891,1849
1850,1904,1894
1795,1827,1804
1786,1814,1769
1824,1858,1838
1854,1881,1891
1863,1886,1875
1840,1871,1808
1803,1841,1803
1818,1847,1843
1825,1837,1825
1841,1869,1821
1854,1885,1852
1811,1850,1847
1799,1823,1808
1810,1839,1792
1845,1878,1845
1859,1887,1890
1809,1833,1813
1808,1830,1776
1849,1875,1847
1872,1904,1893
1814,1834,1810
1797,1809,1760
1831,1849,1833
1876,1881,1898
1874,1877,1866
1792,1809,1760
1799,1823,1798
1834,1851,1856
1854,1856,1850
1838,1863,1806
1840,1858,1839
1847,1872,1876
1853,1862,1842
1823,1830,1778
1847,1863,1838
1841,1857,1865
1810,1826,1808
1808,1829,1764
1855,1886,1844
1872,1887,1888
1815,1838,1808
1809,1831,1776
1856,1872,1841
1861,1878,1878
1830,1847,1827
1821,1839,1787
1853,1862,1833
1857,1872,1872
1839,1852,1824
1837,1842,1791
1857,1869,1840
1867,1872,1874
1840,1851,1828
1839,1845,1787
1853,1867,1840
1866,1871,1875
1847,1853,1831
1840,1846,1789
1856,1867,1836
1868,1870,1878
1853,1845,1840
1842,1839,1791
1863,1863,1857
1863,1875,1887
1840,1851,1827
1835,1842,1787
1858,1872,1844
1871,1889,1887
1849,1879,1829
1839,1840,1788
1870,1877,1872
1875,1927,1903
1840,1857,1807
1826,1813,1751
1853,1872,1835
1871,1894,1904
1850,1823,1869
1840,1776,1866
1861,1826,1858
1862,1856,1843
1839,1846,1795
1830,1834,1767
1856,1865,1818
1875,1934,1887
1861,1934,1858
1862,1968,1833
1886,1919,1904
1859,1744,1831
1827,1664,1758
1830,1806,1759
1844,1801,1801
1850,1743,1818
1858,1803,1815
1840,1781,1782
1843,1742,1809
1830,1729,1771
1843,1872,1742
1857,1761,1748
1872,1728,1815
1868,1661,1836
1837,1683,1775
1811,1652,1690
1833,1795,1740
1845,1809,1806
1826,1723,1756
1840,1573,1711
1858,1658,1693
1808,1611,1841
1799,1699,1905
1789,1790,1751
1805,1712,1845
1855,1600,1900
1859,1717,1730
1811,1761,1625
1866,1702,1799
1798,1703,2796
1717,1514,2217
1872,1577,1755
1827,1679,1710
1717,1673,1792
1712,1521,1839
1774,1527,1872
1819,1558,1853
1840,1631,1872
1686,1703,1823
1655,1555,1791
1707,1472,1867
1709,1447,1842
1714,1456,1711
1690,1485,1771
1685,1535,1827
1680,1519,1841
1691,1558,1834
1735,1534,1833
1749,1486,1828
1686,1402,1842
1705,1397,1840
1712,1451,1814
1747,1502,1814
1726,1535,1823
1724,1514,1823
1749,1359,1827
1802,1424,1830
1705,1488,1835
1698,1476,1831
1775,1648,1829
1745,1464,1830
1686,1421,1828
1691,1439,1413
1746,1408,822
1762,1498,752
1696,1498,1042
1706,1611,1660
1718,1508,1877
1701,1427,1194
1648,1358,1104
1645,1345,1097
1754,1412,1071
1738,1487,1142
1600,1459,1014
1584,1427,1339
1680,1559,1068
1765,1693,895
1717,1459,1011
1706,1360,1072
1069,1407,1131
0,1454,2308
981,1486,2169
1471,1488,1857
1845,1469,1767
1918,1485,1799
1856,1473,1825
1729,1598,1837
1824,1686,1829
546,1390,1833
182,1301,1827
3975,1389,1830
3409,1487,1828
2065,1406,1830
1648,1379,1828
1716,1390,1830
1527,1408,1830
386,1456,1829
2338,1467,1824
3071,1487,1825
2226,1408,1828
1743,1296,1831
1712,1378,1830
1605,1422,1827
428,1439,1826
2117,1553,1825
2515,1456,1830
1088,1533,1826
267,1425,1826
1391,1232,1827
2886,1196,1827
2647,1203,1826
1973,1315,1828
1858,1535,1830
1489,1648,1827
1215,1315,1616
1691,1151,1562
1915,1147,1651
1900,1240,1760
1843,1360,1725
1819,1333,1583
1826,1348,1664
1839,1297,1803
1831,1405,1859
1833,1636,1731
1833,1155,1520
1778,1055,1583
1809,1329,1639
1901,1345,1648
1876,1235,1497
1834,1235,1732
1827,1413,1839
1819,1356,1588
1829,1237,1574
1827,1439,1635
1830,1459,1553
1828,1071,1587
1661,1095,1622
1747,1310,1717
2082,1673,1751
1965,1495,1526
1407,1137,1463
2097,1184,1653
1973,1283,1591
1488,1319,1491
1978,1338,1563
0,1297,1707
0,1407,1691
3217,1937,1579
1632,1170,1485
1627,853,1533
2384,993,1675
4095,1296,1523
4042,1279,1513
2467,1522,1619
1701,1237,1606
1661,896,1532
1813,1159,1521
1878,1214,1584
1872,1169,1615
1853,1185,1510
1840,1227,1475
1842,1427,1653
1840,1072,1645
1840,1005,1488
1835,1379,1479
1836,1152,1591
1840,919,1641
1840,1234,1578
1829,1230,1555
1831,1035,1567
1840,948,1599
1834,1041,1460
1834,1094,1487
660,1166,1642
2256,1227,1621
2321,1123,1583
1953,1222,1629
1953,1328,1642
2432,1073,1472
2916,962,1338
3355,1011,1406
3671,1283,1590
4001,1403,1694
4095,970,1491
4095,986,1472
4095,1074,1600
4095,928,1553
4095,1122,1395
4095,1291,1572
4095,1228,1665
4095,864,1494
4095,1021,1382
4095,1231,1510
4095,1069,1535
4095,1121,1567
4095,1104,1404
4095,1175,1450
4095,1170,1520
4095,1216,1515
4095,1167,1341
4095,1290,1472
4095,1413,1639
4095,1264,1570
4095,944,1447
4095,1140,1473
4095,1235,1579
4095,1397,1505
4095,983,1441
4095,977,1520
4095,1130,1584
4095,1249,1488
4095,1309,1381
4095,1401,1559
4095,1360,1559
4095,1178,1399
4095,1271,1479
4095,1385,1576
4095,1421,1534
4095,1305,1488
4095,1232,1398
4095,1391,1489
4095,1449,1525
4095,1535,1577
4095,1284,1474
4095,1234,1457
4095,1127,1604
4095,1390,1566
4095,1569,1419
4095,1351,1433
4095,1275,1659
4095,1326,1591
4095,1399,1507
4095,1438,1525
4095,1527,1588
4095,1535,1535
4095,1482,1442
4095,1482,1520
4095,1429,1617
4095,1474,1567
4095,1530,1483
4095,1599,1612
4095,1603,1648
4095,1459,1602
4095,1467,1526
4095,1442,1535
4095,1535,1583
4095,1509,1590
4095,1622,1535
4095,1614,1588
4095,1510,1637
4095,1503,1633
4095,1635,1489
4095,1775,1535
4095,1581,1664
4068,1635,1642
3984,1729,1623
3993,1633,1621
3802,1583,1618
3680,1662,1625
3794,1850,1623
3789,1714,1589
3628,1619,1664
3542,1613,1633
3654,1722,1680
3664,1730,1673
3556,1773,1744
3481,1782,1675
3515,1788,1535
3540,1694,1600
3440,1840,1757
3275,1886,1731
3310,1792,1535
3315,1709,1607
3185,1762,1748
3119,1781,1727
3169,1746,1616
3215,1872,1600
3113,1851,1808
3097,2018,1818
3136,1994,1696
3102,1819,1650
2955,1637,1735
2918,1790,1745
3002,1975,1669
3053,1907,1702
2957,1831,1767
2911,2029,1803
2887,1803,1671
2901,1724,1649
2849,1970,1782
2685,2041,1717
2835,1883,1710
2849,1967,1777
2715,1929,1843
2640,1868,1845
2598,1873,1633
2640,1909,1658
2627,2010,1834
2621,2018,1859
2645,2060,1709
2622,1935,1770
2535,1917,1839
2461,1743,1895
2483,1854,1741
2495,1963,1680
2447,1968,1834
2512,2170,1904
2546,1955,1695
2341,1766,1664
2314,1890,1919
2397,2075,1947
2399,2000,1700
2384,2001,1743
2211,1975,1823
2213,2096,1840
2231,1978,1681
2290,1877,1712
2209,1885,1833
2151,2032,1840
2222,2074,1794
2224,2003,1796
2138,1968,1840
2093,1955,1810
2143,1968,1719
2160,2043,1751
2097,2062,1899
2129,2194,1839
2159,2012,1815
2064,1902,1707
1938,1895,1754
1950,1975,1855
2002,2146,1875
2038,2146,1741
2027,2003,1859
1951,1969,1822
1949,1954,1823
1984,1919,1774
1878,2011,1883
1840,2032,1856
1882,1963,1780
1934,1968,1803
1889,2187,1906
1831,2151,1933
1798,1941,1740
1809,1968,1762
1807,2095,1865
1807,2096,1904
1803,2163,1744
1836,2160,1838
1767,1915,1904
1717,2029,1888
1741,2061,1811
1779,2064,1797
1723,2171,1909
1668,2166,1887
1703,1936,1761
1744,1977,1882
1666,2045,1919
1629,2047,1851
1648,1998,1754
1674,2113,1814
1616,2158,1927
1616,2064,1898
1611,2018,1743
1614,2016,1779
1639,2033,1915
1616,2096,1939
1616,2217,1794
1584,2143,1850
1493,1968,1969
1534,2145,1995
1573,2134,1786
1535,2047,1767
1478,1978,1895
1472,2081,1913
1535,2147,1811
1524,1973,1840
1469,1973,1916
1463,2025,1952
1482,2085,1749
1488,2079,1829
1449,2098,1974
1433,2157,1919
1478,2099,1847
1488,2124,1819
1421,2039,1967
1370,2073,1870
1455,2070,1802
1424,1967,1851
1395,2047,2025
1351,2143,1982
1375,1987,1783
1420,2045,1831
1389,2146,1977
1359,2135,1892
1347,2004,1799
1403,2062,1921
1367,2214,1983
1318,1999,1905
1365,1882,1814
1408,2096,1826
1335,2093,1966
1319,1956,1984
1367,2075,1831
1348,2112,1856
1296,2161,1936
1270,2075,1897
1326,2046,1840
1371,2045,1831
1343,2043,1968
1245,2026,1961
1301,1999,1827
1326,2007,1852
1236,2020,1920
1233,2078,2077
1282,2005,1837
1322,2169,1859
1296,2141,1953
1261,2075,1923
1286,1935,1870
1281,1969,1845
1247,2022,1943
1235,1986,1921
1294,2037,1843
1308,2007,1904
1254,2000,1941
1169,2059,1915
1232,2157,1875
1318,2169,1936
1226,1961,1926
1199,1915,1887
1201,1968,1759
1243,2036,1841
1215,2032,2014
1184,2067,1923
1239,2189,1872
1241,1942,1827
1219,1873,1938
1206,1935,1926
1255,2053,1842
1262,2067,1942
1200,1973,1925
1142,1887,1874
1208,2039,1829
1264,2062,1895
1245,2032,1991
1231,2041,1893
1221,1945,1776
1207,1983,1867
1169,2021,1916
1190,2082,1931
1229,1873,1809
1247,1897,1755
1270,2032,2003
1182,2096,1971
1193,2030,1850
1200,1908,1873
1165,1903,2013
1175,1947,1931
1223,1937,1779
1250,1983,1858
1196,2065,1977
1159,2009,1942
1183,1975,1802
1235,2022,1867
1211,2007,1982
1173,1920,1873
1219,1876,1805
1251,1931,1874
1214,1939,2000
1203,1957,1939
1250,1949,1761
1293,2015,1838
1200,2147,1936
1179,2058,1901
1214,1888,1803
1223,1830,1795
1232,1898,1947
1183,1923,1924
1200,1894,1922
1250,1927,1855
1185,1914,1899
1178,2094,1895
1233,2127,1826
1264,1847,1840
1220,1889,1953
1200,1986,1904
1267,1898,1805
1232,1854,1855
1197,1982,1978
1182,1980,1943
1264,1830,1806
1309,1889,1856
1263,1985,1978
1198,1979,1943
1254,2011,1795
1269,1978,1811
1237,1914,1938
1218,1872,1957
1264,1863,1825
1337,1920,1857
1271,1899,1947
1211,1938,1939
1234,1970,1909
1254,1968,1817
1234,1988,1924
1187,1914,1917
1264,1907,1871
1297,1872,1888
1229,1918,1944
1241,1923,1973
1306,1939,1804
1296,1814,1792
1246,1909,1926
1183,1962,1902
1264,1968,1823
1362,1856,1840
1311,1854,1962
1163,1891,1891
1317,1934,1824
1291,1905,1827
1298,1826,1965
1219,1890,1871
1309,1971,1779
1372,1919,1878
1255,1922,1941
1217,1786,1876
1276,1847,1795
1315,1907,1836
1296,1907,1919
1267,1840,1900
1271,1849,1821
1315,1987,1840
1323,1989,1947
1283,1790,1845
1328,1847,1839
1343,1866,1849
1278,1829,1936
1320,1901,1936
1360,1904,1774
1335,1850,1765
1266,1947,1919
1284,1840,1917
1300,1778,1833
1370,1815,1903
1292,1881,1998
1296,1904,1815
1338,1867,1694
1409,1845,1830
1328,1855,1931
1317,1877,1883
1371,1937,1825
1403,1883,1838
1355,1857,1961
1338,1904,1872
1380,1838,1773
1447,1824,1794
1341,1965,1895
1273,1893,1889
1291,1783,1782
1361,1770,1815
1361,1806,1930
1374,1855,1907
1387,1963,1796
1393,1872,1806
1360,1830,1942
1401,1831,1853
1438,1844,1769
1411,1951,1827
1413,1914,1918
1349,1814,1889
1429,1774,1795
1397,1757,1837
1365,1827,1897
1388,1859,1893
1424,1889,1793
1430,1893,1809
1406,1935,1907
1402,1895,1862
1453,1888,1757
1472,1879,1792
1424,1766,1911
1419,1792,1935
1451,1869,1840
1488,1923,1789
1453,1936,1941
1394,1753,1820
1494,1801,1723
1485,1945,1817
1445,1962,1925
1425,1885,1887
1504,1718,1783
1525,1749,1825
1459,1836,1936
1405,1878,1878
1463,1872,1780
1503,1926,1814
1520,1968,1891
1445,1803,1855
1465,1744,1774
1485,1799,1804
1488,1915,1923
1458,1906,1899
1479,1836,1799
1402,1802,1773
1489,1772,1883
1456,1791,1886
1533,1847,1802
1562,1875,1803
1500,1954,1889
1495,1831,1875
1531,1831,1818
1615,1920,1805
1505,1856,1899
1454,1695,1852
1527,1781,1787
1535,1818,1797
1502,1857,1991
1502,1893,1854
1570,1927,1741
1571,1727,1808
1507,1769,1859
1498,1841,1856
1569,1827,1771
1648,1834,1822
1535,1811,1936
1561,1804,1854
1533,1807,1758
1555,1861,1772
1526,1857,1850
1555,1874,1815
1554,1923,1777
1589,1825,1791
1473,1791,1900
1521,1818,1877
1598,1882,1773
1620,1902,1773
1506,1733,1882
1521,1723,1897
1623,1815,1799
1712,1895,1817
1597,1935,1834
1530,1795,1811
1617,1723,1776
1703,1858,1822
1589,1857,1879
1584,1857,1808
1613,1846,1722
1665,1843,1799
1603,1808,1873
1535,1781,1936
1535,1921,1777
1626,1963,1760
1575,1709,1840
1578,1829,1886
1648,1809,1776
1679,1872,1776
1617,1856,1865
1589,1741,1853
1681,1764,1761
1714,1873,1853
1641,1895,1860
1597,1813,1809
1664,1813,1761
1725,1841,1776
1687,1825,1865
1600,1846,1874
1605,1853,1813
1719,1947,1793
1663,1813,1882
1600,1761,1827
1648,1834,1729
1739,1819,1808
1657,1839,1883
1648,1922,1853
1623,1839,1759
1666,1797,1773
1635,1773,1937
1634,1823,1860
1682,1877,1730
1700,1882,1760
1665,1789,1936
1637,1777,1879
1695,1838,1723
1701,1865,1741
1661,1802,1885
1662,1869,1871
1707,1915,1787
1695,1807,1790
1651,1776,1859
1664,1775,1895
1746,1882,1771
1765,1984,1775
1669,1822,1891
1643,1798,1862
1710,1786,1765
1744,1802,1808
1719,1934,1917
1676,1795,1858
1688,1766,1695
1726,1760,1776
1709,1808,1904
1718,1854,1841
1776,1920,1750
1749,1911,1798
1648,1776,1903
1630,1797,1862
1731,1854,1803
1791,1819,1861
1744,1834,1876
1712,1827,1850
1715,1832,1739
1734,1812,1781
1723,1853,1920
1714,1785,1874
1776,1808,1738
1787,1827,1778
1696,1835,1911
1695,1827,1897
1747,1903,1783
1789,1830,1780
1729,1745,1846
1724,1737,1934
1805,1833,1791
1787,1830,1792
1738,1836,1886
1712,1851,1853
1745,1872,1723
1782,1890,1774
1787,1858,1887
1751,1813,1853
1745,1848,1789
1765,1837,1803
1758,1742,1898
1756,1663,1857
1767,1813,1751
1811,1860,1821
1760,1822,1950
1760,1872,1895
1754,1843,1699
1779,1905,1766
1744,1803,1873
1754,1875,1872
1805,1774,1776
1818,1721,1808
1773,1744,1926
1759,1877,1869
1841,1834,1808
1842,1807,1799
1728,1807,1829
1743,1882,1870
1807,1856,1750
1826,1810,1809
1766,1758,1917
1731,1792,1848
1784,1932,1749
1856,2070,1849
1845,1870,1940
1737,1647,1825
1798,1791,1791
1860,1716,1822
1770,1711,1879
1776,1828,1872
1911,1918,1878
1872,1935,1827
1725,1791,1850
1690,1840,1745
1811,1927,1731
1850,1775,1803
1743,1687,1838
1744,1839,1920
1803,1866,1789
1849,1695,1755
1823,1882,1902
1743,1809,1829
1775,1904,1739
1885,1776,1858
1911,1723,2002
1841,1717,1879
1795,1797,1691
1830,1931,1842
1918,2000,2125
1751,1799,1861
1695,1627,1584
1759,1767,1721
1827,2018,1942
1781,1744,1894
1731,1651,1692
1790,1831,1753
1802,2125,1936
1794,2185,1947
1798,1872,1724
1897,1667,1819
1869,1517,1973
1712,1456,1795
1747,1701,1679
1821,1894,1807
1808,1916,1931
1811,1739,1871
1859,1719,1776
1877,1799,1802
1867,1836,1958
1785,1766,1839
1721,1771,1712
1812,1905,1839
1801,1918,1971
1713,1843,1808
1731,1677,1669
1804,1789,1770
1793,1914,1922
1798,1781,1889
