1856,1689,1797
1863,1701,1760
1893,1728,1808
1882,1735,1868
1904,1734,1842
1926,1727,1788
1875,1719,1797
1850,1728,1847
1859,1713,1818
1868,1708,1770
1887,1727,1806
1932,1743,1872
1873,1728,1840
1899,1712,1781
1893,1722,1806
1899,1746,1872
1872,1751,1859
1871,1745,1801
1830,1701,1776
1829,1697,1810
1844,1711,1814
1849,1721,1777
1855,1729,1807
1860,1714,1850
1872,1713,1840
1838,1696,1778
1830,1709,1782
1857,1733,1851
1861,1731,1837
1810,1722,1789
1841,1712,1792
1847,1718,1843
1843,1705,1818
1840,1711,1776
1845,1733,1817
1904,1749,1866
1904,1727,1819
1908,1718,1771
1852,1744,1814
1888,1760,1873
1824,1705,1809
1783,1689,1737
1861,1764,1830
1847,1746,1855
1808,1712,1806
1808,1713,1770
1823,1721,1790
1835,1751,1850
1851,1747,1822
1813,1727,1766
1827,1754,1814
1834,1771,1863
1807,1744,1824
1791,1730,1758
1802,1764,1810
1872,1777,1874
1840,1776,1858
1811,1746,1776
1780,1746,1761
1827,1749,1823
1767,1735,1805
1792,1757,1779
1793,1754,1808
1819,1751,1844
1785,1734,1792
1837,1723,1741
1811,1757,1793
1837,1805,1879
1808,1754,1817
1777,1733,1755
1809,1760,1808
1863,1788,1887
1811,1759,1822
1836,1744,1754
1790,1774,1792
1856,1783,1859
1821,1776,1840
1775,1763,1791
1903,1780,1824
1827,1775,1855
1774,1741,1801
1776,1751,1763
1812,1790,1823
1821,1782,1867
1786,1749,1814
1724,1757,1783
1814,1791,1810
1835,1801,1861
1853,1808,1853
1846,1781,1786
1835,1772,1809
1792,1771,1858
1708,1748,1777
1722,1739,1728
1776,1798,1806
1792,1787,1840
1822,1761,1808
1834,1766,1801
1818,1780,1849
1719,1813,1847
1666,1822,1808
1781,1774,1733
1761,1787,1782
1808,1807,1861
1799,1791,1843
1773,1770,1776
1787,1790,1803
1791,1799,1851
1797,1798,1835
1786,1787,1785
1790,1793,1806
1805,1807,1858
1791,1794,1834
1759,1777,1765
1792,1808,1808
1838,1842,1895
1805,1815,1851
1778,1798,1777
1776,1799,1794
1807,1809,1855
1795,1814,1837
1797,1837,1799
1808,1847,1831
1795,1827,1854
1776,1813,1814
1777,1818,1780
1807,1831,1817
1839,1861,1887
1824,1846,1859
1777,1806,1778
1776,1835,1792
1809,1856,1857
1806,1855,1841
1792,1853,1791
1853,1897,1871
1818,1856,1873
1755,1799,1799
1754,1814,1759
1811,1887,1826
1824,1868,1875
1782,1814,1823
1769,1818,1770
1796,1850,1808
1823,1869,1878
1823,1856,1865
1799,1843,1808
1811,1872,1840
1807,1875,1863
1787,1841,1827
1761,1828,1775
1792,1862,1822
1828,1904,1895
1831,1879,1872
1801,1839,1797
1811,1873,1825
1829,1904,1882
1808,1850,1845
1775,1808,1775
1793,1840,1818
1832,1875,1899
1840,1891,1888
1791,1857,1792
1798,1847,1811
1837,1887,1901
1819,1875,1862
1758,1836,1752
1766,1840,1787
1791,1844,1865
1810,1840,1857
1806,1846,1803
1823,1884,1849
1840,1893,1903
1808,1863,1854
1796,1847,1794
1817,1870,1840
1835,1895,1901
1835,1888,1879
1799,1851,1807
1795,1845,1818
1822,1866,1878
1832,1878,1869
1811,1872,1815
1812,1871,1831
1839,1887,1887
1826,1872,1872
1795,1842,1792
1809,1856,1830
1830,1877,1890
1822,1872,1866
1798,1847,1806
1819,1866,1837
1850,1888,1905
1819,1852,1859
1808,1854,1824
1823,1872,1839
1818,1867,1872
1808,1835,1843
1797,1840,1802
1835,1863,1854
1872,1901,1936
1832,1858,1870
1790,1825,1792
1807,1850,1825
1839,1862,1894
1840,1856,1872
1815,1846,1808
1845,1869,1850
1851,1866,1904
1815,1835,1851
1795,1842,1795
1827,1872,1851
1825,1856,1885
1808,1840,1852
1795,1829,1801
1825,1861,1845
1849,1878,1909
1847,1874,1895
1808,1843,1822
1799,1844,1835
1811,1857,1885
1822,1862,1872
1814,1847,1825
1826,1863,1847
1829,1847,1886
1810,1850,1860
1808,1851,1819
1836,1867,1865
1833,1858,1899
1821,1862,1862
1808,1866,1808
1823,1854,1833
1829,1865,1885
1825,1866,1866
1807,1852,1808
1829,1870,1840
1833,1874,1897
1818,1867,1867
1848,1888,1843
1843,1879,1856
1794,1827,1847
1778,1814,1816
1776,1836,1791
1827,1867,1852
1845,1869,1903
1829,1855,1862
1810,1859,1808
1846,1894,1859
1839,1874,1888
1791,1825,1819
1781,1830,1775
1810,1872,1834
1829,1868,1873
1815,1850,1844
1808,1847,1809
1830,1865,1848
1851,1877,1904
1815,1845,1842
1779,1826,1774
1804,1841,1814
1834,1840,1884
1815,1882,1851
1844,1884,1839
1840,1913,1847
1777,1856,1829
1778,1795,1806
1785,1793,1777
1823,1884,1827
1845,1840,1893
1859,1859,1883
1791,1801,1779
1787,1838,1794
1824,1837,1869
1817,1851,1847
1807,1879,1792
1834,1835,1833
1858,1930,1898
1821,1849,1840
1776,1811,1770
1808,1835,1818
1840,1856,1879
1826,1856,1858
1823,1865,1826
1829,1839,1846
1823,1857,1872
1797,1841,1830
1806,1840,1783
1840,1872,1846
1849,1834,1904
1789,1777,1814
1776,1808,1763
1822,1843,1829
1847,1872,1897
1821,1870,1855
1803,1798,1794
1849,1872,1850
1825,1837,1871
1797,1829,1838
1792,1833,1782
1835,1856,1835
1844,1865,1877
1830,1861,1849
1822,1888,1808
1817,1857,1821
1814,1847,1862
1803,1814,1826
1783,1820,1771
1820,1865,1823
1837,1861,1876
1812,1846,1853
1794,1835,1783
1808,1841,1811
1843,1879,1881
1815,1906,1844
1779,1825,1776
1829,1840,1836
1803,1856,1841
1786,1825,1806
1793,1843,1786
1827,1825,1829
1835,1852,1867
1835,1847,1837
1817,1846,1786
1825,1901,1824
1840,1871,1872
1835,1872,1840
1831,1872,1792
1854,1895,1828
1888,1872,1872
1884,1845,1837
1885,1851,1787
1921,1912,1827
1968,1858,1879
1975,1847,1840
1968,1824,1765
2003,1799,1808
2039,1872,1873
2026,1831,1809
2029,1821,1760
2089,1842,1825
2115,1869,1883
2115,1858,1852
2099,1835,1781
2111,1837,1809
2121,1830,1855
2128,1773,1831
2122,1808,1776
2159,1798,1814
2176,1811,1869
2154,1840,1839
2134,1846,1781
2161,1871,1820
2192,1854,1883
2176,1854,1841
2142,1814,1763
2160,1735,1808
2189,1856,1872
2181,1846,1840
2163,1831,1781
2149,1822,1795
2174,1828,1840
2178,1841,1828
2165,1840,1789
2157,1832,1797
2174,1834,1843
2192,1849,1847
2141,1811,1773
2145,1802,1797
2166,1821,1849
2161,1791,1825
2150,1829,1771
2159,1813,1809
2181,1863,1873
2167,1838,1850
2137,1843,1787
2144,1840,1819
2159,1854,1871
2146,1831,1844
2125,1795,1778
2145,1826,1815
2160,1872,1883
2121,1844,1829
2102,1808,1766
2115,1850,1807
2119,1854,1855
2113,1827,1833
2109,1840,1795
2112,1866,1826
2113,1871,1860
2077,1811,1808
2064,1818,1753
2097,1841,1809
2122,1853,1873
2112,1821,1842
2083,1819,1791
2096,1898,1827
2103,1855,1875
2094,1840,1840
2081,1840,1791
2107,1886,1842
2110,1866,1880
2084,1847,1839
2061,1822,1775
2066,1838,1808
2074,1871,1849
2061,1841,1821
2061,1851,1791
2095,1881,1850
2053,1847,1851
2004,1815,1797
2010,1853,1774
2042,1872,1825
2074,1856,1886
2081,1863,1865
2043,1875,1806
2030,1878,1819
2022,1834,1856
2023,1887,1837
2013,1882,1786
2032,1870,1824
2035,1771,1872
2027,1875,1840
2000,1863,1789
2017,1851,1824
2029,1856,1876
2011,1851,1843
1993,1834,1789
2017,1872,1840
2034,1900,1905
1984,1835,1826
1942,1805,1763
1979,1839,1818
1995,1856,1874
1972,1840,1843
1977,1856,1803
1982,1856,1830
1964,1829,1850
1951,1829,1808
1953,1839,1776
1983,1870,1835
1987,1872,1878
1953,1840,1826
1932,1836,1770
1954,1862,1829
1955,1865,1872
1951,1856,1840
1936,1852,1790
1940,1856,1823
1950,1856,1867
1935,1845,1830
1963,1877,1824
1957,1874,1830
1911,1840,1839
1866,1808,1783
1872,1810,1753
1920,1861,1821
1936,1857,1872
1909,1839,1834
1891,1831,1786
1915,1857,1828
1935,1871,1886
1901,1840,1837
1894,1853,1794
1904,1856,1818
1904,1849,1860
1887,1834,1823
1883,1839,1783
1900,1843,1819
1917,1872,1882
1900,1854,1850
1871,1815,1786
1909,1887,1847
1951,1985,1930
1858,1834,1807
1823,1766,1737
1872,1892,1808
1895,1882,1874
1917,2162,1893
1891,1936,1804
1867,1561,1776
1841,1504,1799
1840,1744,1798
1863,1984,1806
1872,1794,1824
1910,1717,1877
1897,1716,1803
1792,1717,1711
1807,1792,1786
1853,1821,1854
1851,1810,1829
1840,1824,1776
1882,1824,1824
1888,1823,1868
1805,1765,1783
1804,1762,1737
1835,1797,1792
1845,1808,1848
1840,1776,1808
1804,1760,1743
1826,1791,1792
1855,1809,1859
1855,1803,1835
1817,1763,1765
1810,1767,1786
1819,1776,1828
1801,1775,1790
1808,1808,1771
1837,1765,1809
1859,1774,1869
1815,1773,1808
1763,1741,1716
1808,1773,1787
1839,1793,1854
1830,1781,1827
1789,1753,1760
1808,1773,1789
1840,1782,1845
1823,1778,1812
1805,1771,1763
1807,1791,1793
1829,1801,1851
1814,1776,1822
1801,1776,1776
1831,1803,1840
1831,1805,1871
1789,1763,1802
1782,1776,1761
1792,1779,1789
1793,1728,1820
1771,1727,1783
1778,1744,1755
1823,1797,1837
1821,1795,1870
1782,1758,1815
1778,1751,1778
1802,1778,1818
1791,1799,1858
1773,1790,1808
1775,1779,1776
1813,1805,1840
1808,1808,1865
1759,1782,1800
1759,1782,1759
1808,1808,1827
1829,1836,1884
1829,1857,1872
1744,1771,1758
1731,1731,1759
1776,1783,1850
1791,1806,1827
1755,1770,1751
1769,1808,1803
1792,1819,1858
1776,1805,1821
1762,1808,1775
1795,1827,1828
1808,1860,1891
1781,1840,1849
1791,1826,1813
1794,1830,1839
1783,1840,1858
1770,1830,1821
1766,1839,1792
1783,1863,1847
1808,1893,1907
1763,1834,1829
1734,1814,1766
1773,1827,1802
1791,1851,1875
1779,1865,1857
1774,1877,1825
1776,1880,1839
1771,1853,1857
1744,1826,1815
1749,1840,1766
1783,1890,1847
1783,1872,1875
1794,1882,1859
1767,1866,1796
1745,1856,1794
1782,1873,1827
1789,1865,1807
1776,1874,1786
1791,1861,1807
1795,1898,1866
1780,1903,1821
1769,1888,1840
1803,1926,1892
1795,1872,1865
1758,1829,1829
1743,1857,1776
1776,1891,1849
1798,1899,1934
1791,1851,1874
1786,1877,1803
1813,1904,1840
1903,1831,1936
1827,1879,1783
1648,1863,1741
1649,1860,1808
1740,1871,1918
1773,1842,1895
1767,1871,1807
1776,1935,1843
1791,1936,1873
1755,1883,1856
1732,1857,1808
1775,1961,1842
1839,2023,1914
1822,1930,1913
1776,1891,1821
1746,1936,1744
1741,1968,1828
1733,1945,1835
1749,1971,1823
1734,1933,1813
1757,1936,1859
1754,1925,1818
1747,1922,1746
1791,1920,1855
1796,1969,1893
1772,1996,1869
1875,2098,1905
1897,2091,1951
1734,1969,1840
1665,1925,1778
1709,1989,1757
1873,2115,1906
1923,2126,1971
1712,2019,1804
1662,2039,1663
1739,2030,1797
1835,2085,1962
1840,2118,1887
1808,2142,1840
1730,2128,1817
1733,2130,1827
1713,2128,1809
1721,2158,1755
1785,2254,1856
1795,2288,1882
1731,2268,1811
1718,2277,1754
1728,2333,1785
1755,2432,1856
1754,2367,1824
1776,2366,1792
1759,2387,1812
1739,2403,1841
1754,2448,1832
1795,2465,1815
1738,2432,1815
1731,2468,1834
1771,2496,1844
1730,2469,1779
1762,2592,1839
1787,2475,1895
1807,2413,1855
1789,2437,1807
1708,2416,1782
1682,2415,1807
1707,2445,1792
1738,2448,1808
1771,2455,1806
1802,2477,1920
1824,2490,1856
1808,2495,1823
1720,2423,1775
1697,2417,1823
1715,2431,1805
1743,2427,1770
1774,2452,1808
1795,2475,1891
1798,2455,1847
1763,2435,1765
1754,2470,1840
1759,2448,1887
1729,2408,1805
1751,2451,1776
1777,2437,1835
1732,2349,1815
1731,2342,1775
1730,2361,1760
1762,2387,1810
1782,2384,1841
1771,2353,1801
1737,2334,1765
1763,2358,1817
1773,2347,1859
1751,2305,1797
1735,2304,1711
1776,2319,1797
1743,2287,1827
1719,2245,1783
1715,2231,1719
1763,2270,1807
1791,2309,1874
1766,2253,1834
1712,2174,1709
1741,2191,1747
1776,2214,1844
1774,2192,1835
1776,2203,1777
1773,2218,1808
1758,2236,1815
1749,2129,1793
1733,2081,1744
1783,2182,1794
1804,2121,1851
1797,2086,1822
1763,2067,1718
1753,2081,1776
1757,2097,1872
1761,2097,1808
1773,2096,1767
1806,2129,1827
1803,2112,1853
1739,2019,1813
1744,2014,1734
1798,2066,1815
1855,2099,1904
1776,2007,1796
1729,1975,1722
1771,2007,1753
1821,2038,1842
1808,2007,1808
1766,1986,1725
1783,1990,1794
1783,1981,1811
1791,1978,1790
1773,1951,1747
1820,1976,1830
1875,1983,1907
1823,1927,1776
1729,1897,1719
1743,1935,1818
1783,1933,1893
1794,1932,1828
1796,1907,1777
1808,1903,1814
1817,1911,1868
1799,1893,1818
1788,1887,1776
1808,1904,1812
1812,1889,1856
1794,1861,1807
1797,1878,1778
1824,1872,1825
1819,1843,1843
1798,1824,1804
1797,1843,1776
1825,1865,1826
1804,1866,1836
1779,1825,1787
1781,1791,1749
1823,1823,1806
1857,1840,1872
1829,1818,1827
1803,1808,1776
1807,1819,1808
1829,1817,1852
1806,1792,1806
1808,1813,1796
1805,1801,1804
1806,1789,1817
1793,1785,1779
1789,1758,1744
1808,1773,1801
1827,1781,1847
1820,1785,1827
1793,1791,1788
1767,1766,1803
1827,1776,1834
1840,1769,1811
1765,1744,1776
1855,1776,1835
1799,1775,1854
1835,1758,1811
1798,1747,1762
1819,1774,1810
1863,1791,1883
1838,1775,1849
1778,1756,1764
1787,1726,1806
1775,1727,1867
1776,1749,1810
1766,1743,1747
1802,1777,1823
1840,1939,1927
1817,1760,1845
1772,1535,1743
1808,1632,1810
1829,1703,1858
1808,1717,1808
1815,1795,1792
1891,1872,1867
1891,1712,1876
1808,1613,1776
1808,1661,1754
1904,1751,1853
1843,1712,1856
1794,1673,1798
1801,1702,1782
1878,1748,1856
1858,1715,1881
1807,1690,1810
1782,1685,1761
1808,1712,1818
1838,1745,1854
1805,1699,1808
1807,1697,1787
1873,1699,1830
1839,1681,1869
1794,1687,1833
1790,1729,1792
1822,1721,1840
1842,1718,1883
1809,1680,1827
1799,1692,1777
1840,1728,1852
1837,1775,1891
1823,2014,1872
1810,1729,1791
1801,1383,1777
1821,1471,1840
1745,1589,1792
1786,1648,1770
1847,1682,1821
1837,1690,1865
1822,1697,1829
1833,1698,1802
1849,1693,1837
1815,1705,1874
1847,1699,1838
1803,1720,1787
1840,1696,1829
1841,1685,1853
1797,1669,1812
1808,1683,1779
1840,1720,1829
1831,1719,1879
1745,1675,1796
1781,1731,1751
1768,1698,1806
1796,1675,1863
1814,1630,1823
1776,1621,1756
1814,1666,1808
1835,1686,1863
1829,1683,1831
1817,1690,1783
1857,1745,1849
1855,1725,1877
1798,1664,1811
1784,1637,1762
1822,1685,1825
1842,1712,1877
1840,1710,1847
1830,1731,1822
1867,1717,1840
1827,1725,1886
1833,1680,1803
1794,1658,1742
1815,1744,1834
1818,1715,1874
1822,1706,1831
1872,1767,1792
1823,1680,1827
1831,1578,1858
1835,1629,1831
1811,1679,1783
1829,1696,1815
1847,1683,1870
1837,1675,1838
1824,1715,1808
1859,1746,1843
1841,1662,1845
1837,1659,1810
1809,1709,1805
1904,1853,1847
1887,1810,1907
1728,1535,1840
1775,1567,1760
1838,1827,1837
1982,2176,1947
1979,1856,1791
1767,1508,1808
1671,1915,1936
1926,1477,1836
1854,1328,1782
1718,1682,1794
1825,1975,1831
1873,1701,1941
1971,1565,1947
1897,1648,1780
1819,2162,1826
1838,1947,1841
1744,1251,1757
1787,1489,1802
1813,1639,1781
2065,1483,1751
1887,1563,1776
1808,1840,1881
1833,1757,1871
1936,1614,1882
1712,1535,1831
1687,1460,1713
1947,1535,1698
1815,1629,1802
1840,1729,1815
1621,1328,1733
1579,1456,1884
1619,1392,1975
1486,1461,1814
1535,1635,1750
1374,1453,1763
1522,1488,1834
1414,1614,1795
1226,1433,1719
1273,1331,1915
1410,1329,1809
1216,1504,1764
1130,1433,1765
1200,1306,1803
1190,1319,1870
1226,1644,1875
1185,1354,1766
1251,1388,1798
1215,1776,1897
1269,1207,1760
1133,1066,1729
1230,1277,1829
1337,1694,1907
1147,1296,1845
1073,1154,1782
1224,1230,1787
1270,1063,1776
1166,941,1761
1082,1081,1786
1159,1393,1831
1251,1519,1875
1303,896,1829
1184,926,1737
1082,1136,1867
1087,1072,1946
1136,1169,1821
1279,1179,1827
1264,1178,1872
1100,1285,1792
1087,1114,1734
1159,1072,1757
1187,1009,1776
1247,1166,1870
1242,1104,1853
1246,1229,1838
1262,999,1828
1292,1053,1901
1245,944,1855
1295,1002,1808
1429,1121,1823
1723,1264,1821
1339,1152,1839
1107,1179,1809
1303,1097,1898
1456,1193,1907
1165,1323,1904
1098,1040,1728
1264,1015,1818
1297,1130,1871
1325,1343,1901
1344,1369,1895
1337,1111,1834
1303,1005,1802
1328,1216,1828
1389,1443,1874
1434,1072,1853
1372,975,1811
1382,1125,1846
1415,1429,1835
1419,1195,1808
1443,1116,1863
1567,1202,1909
1616,1422,1877
1392,1312,1760
1286,1168,1871
1298,1171,1867
1408,1277,1785
1423,1381,1843
1490,1343,1888
1488,1331,1855
1472,1447,1842
1519,1501,1918
1535,1488,1914
1483,1280,1808
1445,1138,1791
1503,1303,1875
1527,1511,1937
1492,1595,1860
1499,1195,1795
1585,1177,1840
1669,1392,1936
1612,1403,1817
1533,1392,1743
1623,1481,1853
1485,1535,1963
1430,1419,1904
1459,1408,1826
1585,1559,1840
1636,1617,1905
1581,1431,1907
1557,1408,1835
1600,1438,1847
1646,1560,1918
1619,1763,1930
1575,1526,1785
1616,1198,1811
1638,1313,1906
1635,1479,1886
1664,1559,1825
1703,1597,1908
1648,1559,1885
1589,1578,1806
1630,1451,1817
1709,1521,1845
1759,1623,1907
1717,1671,1899
1615,1687,1883
1633,1478,1828
1654,1341,1885
1661,1410,1902
1644,1705,1873
1664,1657,1903
1723,1595,1920
1744,1481,1852
1723,1597,1872
1746,1630,1915
1683,1503,1823
1665,1491,1794
1712,1519,1822
1793,1661,1894
1807,1763,1938
1708,1689,1863
1712,1491,1861
1810,1520,1849
1815,1679,1840
1830,1679,1813
1617,1583,1797
1627,1569,1846
1723,1719,1965
1776,1789,1984
1758,1603,1840
1779,1665,1808
1779,1647,1861
1775,1662,1853
1771,1663,1808
1821,1786,1901
1839,1800,1954
1793,1710,1855
1808,1741,1809
1825,1744,1840
1828,1635,1861
1833,1616,1858
1799,1658,1826
1801,1763,1853
1840,1791,1891
1840,1729,1851
1762,1702,1821
1778,1744,1924
1781,1754,1918
1802,1797,1795
1830,1712,1747
1857,1738,1870
1829,1813,1936
1814,1762,1841
1837,1808,1843
1887,1975,1891
1904,1856,1935
1817,1589,1830
1818,1664,1766
1899,1775,1887
1889,1845,1899
1811,1774,1805
1868,1847,1823
1985,1776,1819
1878,1805,1893
1847,1981,1881
1823,1808,1777
1827,1659,1808
1849,1728,1884
1846,1772,1863
1905,1850,1846
1895,1776,1870
1863,1893,1876
1872,1946,1867
1872,1856,1808
1922,1938,1857
2000,2069,1951
1879,1808,1872
1831,1648,1733
1861,1743,1825
1924,1854,1874
1952,1935,1795
1909,1903,1819
1915,1935,1919
1863,1827,1870
1859,1884,1792
1862,1817,1783
1938,1859,1825
2019,1975,1859
1932,1872,1839
1782,1805,1808
1853,2009,1887
1915,2000,1904
1907,1872,1837
1879,1859,1822
1936,2053,1891
1969,1978,1837
1905,1758,1776
1883,1808,1863
1958,1944,1879
1934,2005,1914
1959,2086,1921
1931,1937,1741
1899,1929,1843
2006,1926,1845
1947,1919,1773
1781,1936,1746
1843,1936,1843
1997,2037,1924
1985,2169,1929
1968,1993,1817
1900,1875,1777
1865,1905,1814
1877,1967,1839
1895,1823,1791
1971,2132,1852
1996,2047,1904
1946,1886,1814
1921,1847,1796
2006,1956,1814
2023,2117,1866
1953,1984,1825
1927,1954,1766
1856,2000,1841
1824,1970,1875
1922,2023,1814
1991,2139,1841
1989,2130,1917
1919,2096,1866
1873,1939,1791
1904,1902,1793
1958,1939,1807
1949,1954,1843
1929,1935,1823
1930,2077,1810
1999,2199,1943
1997,1999,1888
1967,1897,1786
1872,1938,1735
1919,2002,1840
2000,2067,1887
2008,2117,1863
1904,1981,1787
1985,1983,1851
1907,2079,1861
1954,2111,1871
1892,2032,1762
1904,1968,1765
1941,1959,1820
1892,1959,1830
1906,1998,1804
1983,2112,1871
1952,2130,1883
1903,1957,1803
1892,1975,1727
1970,2131,1802
1968,2064,1886
1965,2021,1841
1931,1921,1764
1998,1968,1826
2047,2090,2002
1933,2272,1875
1843,1984,1715
1858,1840,1766
1913,1991,1823
1956,2058,1867
1949,2032,1840
1941,2075,1827
1929,2065,1872
1881,1970,1840
1913,2032,1771
1974,2065,1852
1969,1970,1903
1930,1878,1808
1935,1911,1772
1958,1985,1869
1935,2102,1916
1923,2000,1840
1915,1959,1802
1917,1993,1817
1985,1996,1847
1975,2096,1825
1987,2000,1828
1946,2000,1825
1909,2015,1857
1879,1987,1827
1920,1898,1810
1925,1959,1856
1943,2101,1872
1921,2062,1808
1918,1982,1779
1949,2065,1871
1967,2012,1893
1936,1931,1828
1938,1943,1816
1957,2013,1863
1949,2084,1856
1913,1915,1755
1950,1927,1765
1957,1959,1859
1991,1957,1947
1985,2064,1830
1897,1857,1709
1906,1936,1768
1990,2044,1837
2031,2025,1808
1914,1984,1813
1854,1965,1872
1904,2047,1915
1956,1987,1857
1922,2014,1824
1945,2183,1856
1935,1877,1833
1917,1788,1761
1936,1936,1776
1984,2064,1872
1986,2010,1913
1920,2001,1863
1913,1955,1792
1970,1980,1839
1998,1943,1861
1980,1938,1813
1951,1965,1758
1959,1863,1811
1938,1978,1906
1895,2035,1862
1889,1965,1770
1943,1915,1841
1942,1967,1873
1928,1970,1872
1938,1991,1779
1994,2106,1904
1942,2005,1869
1909,2055,1783
1906,1949,1776
1945,1909,1853
1999,2064,1949
1954,1982,1795
1950,1952,1761
1974,2011,1899
1904,1904,1851
1874,1792,1872
1963,1882,1776
1999,2023,1815
1936,2021,1862
1934,1964,1817
1955,1968,1907
1967,2075,1840
1998,2053,1801
1935,1929,1747
1859,1920,1771
1925,1914,1911
1945,2128,1943
1925,1999,1835
1904,1826,1755
1941,1923,1847
1973,2007,1984
1921,2020,1824
1931,1985,1761
1926,1892,1799
1904,1837,1859
1904,1920,1839
1927,2031,1803
1952,1943,1840
1951,1921,1883
1927,1904,1796
1904,1965,1775
1953,2037,1844
1962,2055,1903
1958,2047,1858
1950,1942,1839
1919,1783,1824
1884,1853,1903
1966,2006,1871
1891,1981,1727
1878,1914,1758
1920,1859,1863
1914,1859,1843
1915,1954,1847
1931,1954,1808
1957,2045,1847
1984,1998,1804
1919,1936,1789
1955,1994,1866
1964,1943,1917
1929,1815,1783
1904,1776,1750
1905,1868,1811
1918,1957,1903
1951,2007,1895
1968,1979,1820
2007,1994,1856
1919,1914,1829
1813,1859,1782
1855,1863,1726
1982,2002,1889
1973,1967,1931
1883,1872,1801
1871,1823,1764
1919,2063,1875
1962,1968,1890
1927,1875,1837
1899,1869,1762
1936,1783,1820
1957,1828,1856
1923,1922,1819
1887,1952,1787
1998,1953,1885
1993,2105,1907
1849,1986,1735
1843,1827,1769
1881,1827,1815
1934,1866,1901
1903,1826,1844
1913,1910,1775
1984,1937,1841
1910,1850,1863
1889,1895,1838
1940,2046,1871
1966,2164,1904
1906,1838,1842
1845,1738,1744
1890,1778,1729
1955,1930,1825
1968,1975,1904
1935,1930,1891
1889,1903,1835
1867,1891,1803
1868,1850,1845
1891,1802,1806
1958,1889,1829
2005,2032,1959
1919,1904,1883
1853,1877,1747
1845,1877,1733
1865,1872,1823
1927,1901,1868
1989,2091,1870
1878,1936,1838
1841,1745,1871
1874,1777,1847
1873,1856,1819
1878,1963,1808
1905,1936,1840
1986,1997,1979
2023,1963,1808
1776,1769,1639
1808,1749,1782
1871,1826,1889
1887,1884,1853
1901,1904,1813
1917,1908,1850
1915,1907,1922
1930,1987,1870
1914,2122,1782
1834,1795,1744
1826,1696,1809
1887,1773,1811
1934,1936,1859
1913,1968,1868
1869,1833,1809
1903,1814,1776
1919,1850,1745
1904,1951,1840
1975,1946,1951
1876,1823,1850
1809,1717,1683
1826,1777,1744
1873,1935,1826
1899,1947,1823
1927,1831,1829
1898,1830,1847
1831,1846,1882
1824,1813,1754
1856,1808,1719
1886,1840,1786
1885,1918,1872
1882,1923,1805
1844,1844,1744
1886,1840,1803
1887,1875,1838
1899,1952,1839
1855,1929,1791
1850,1885,1802
1854,1728,1840
1879,1747,1757
1885,1885,1717
1899,1851,1837
1919,1853,1841
1920,1883,1819
1857,1876,1867
1859,1939,1776
1821,1754,1786
1862,1744,1741
1870,1841,1751
1925,1936,1902
1839,1883,1840
1799,1888,1774
1810,1786,1714
1904,1847,1795
1909,1913,1854
1873,1890,1787
1894,1838,1810
1851,2030,1831
1891,1975,1877
1902,1603,1762
1919,1638,1703
1799,1834,1772
1787,1901,1855
1883,1835,1759
1903,2017,1811
1907,1936,1911
1879,1747,1851
1865,1772,1746
1851,1911,1707
1841,1794,1818
1855,1809,1873
1814,1820,1770
1804,1877,1740
1865,1966,1824
1859,1850,1884
1843,1840,1776
1842,1822,1719
1885,1838,1808
1885,1863,1853
1835,1765,1814
1814,1769,1729
1891,1805,1869
1921,1893,1919
1851,1820,1763
1853,1823,1723
1909,1915,1842
1931,1895,1856
1842,1843,1849
1851,1877,1732
1838,1857,1793
1831,1827,1823
1844,1785,1799
1843,1787,1770
1827,1857,1824
1904,1989,1953
1843,1839,1840
1831,1664,1676
1819,1786,1793
1850,1865,1861
1847,1840,1755
1872,1843,1726
1903,1884,1807
1887,1983,1936
1838,2005,1887
1776,1679,1716
1845,1681,1789
1872,1779,1885
1855,1840,1876
1834,1858,1795
1934,2073,1837
1879,1863,1817
1830,1730,1722
1872,1811,1762
1866,1771,1811
1815,1750,1837
1887,1820,1853
1863,1838,1806
1789,1855,1824
1810,1925,1858
1871,1814,1780
1856,1834,1747
1857,1873,1830
1924,1910,1877
1949,2197,1929
1782,1810,1819
1791,1590,1780
1899,1746,1852
1842,1797,1792
1808,1873,1791
1867,1974,1824
1883,1840,1898
1845,1728,1840
1893,1795,1779
1975,1942,1843
1862,1974,1889
1749,1830,1811
1782,1746,1707
1849,1771,1822
1889,1793,1847
1872,1866,1831
1837,1835,1770
1840,1841,1851
1840,1904,1892
1856,1898,1887
1868,1822,1815
1866,1887,1787
1889,1987,1939
1889,1847,1851
1825,1776,1755
1808,1803,1823
1838,1791,1936
1840,1823,1885
1858,1893,1795
1879,1917,1934
1869,1839,1881
1826,1867,1744
1815,1808,1699
1856,1802,1776
1872,1810,1936
1849,1861,1877
1902,1872,1797
1930,1866,1887
1849,1783,1957
1790,1843,1818
1809,1903,1743
1872,1899,1825
1879,1839,1943
1834,1787,1839
1840,1862,1792
1881,1907,1889
1910,1917,1910
1903,1863,1913
1815,1793,1829
1808,1810,1774
1923,1872,1889
1938,1937,1882
1926,1844,1788
1860,1744,1855
1715,1759,1805
1738,1808,1747
1806,1826,1774
1840,1888,1886
1872,1906,1870
1909,1861,1734
1827,1886,1773
1834,1839,1799
1867,1806,1936
1893,1927,1910
1865,1967,1831
1840,1840,1773
1843,1776,1859
1854,1838,1875
1836,1841,1840
1877,1906,1887
1835,1790,1836
1808,1787,1690
1821,1805,1765
1913,1854,1925
1904,1933,1965
1904,1895,1769
1762,1958,1756
1761,1883,1926
1874,1726,1936
1856,1666,1793
1774,1775,1770
1815,1874,1862
1862,1935,1891
1881,1980,1909
1865,1933,1829
1835,1815,1825
1846,1827,1872
1854,1935,1859
1808,1842,1782
1819,1811,1811
1866,1866,1893
1899,1887,1898
1847,1771,1786
1805,1830,1795
1854,1851,1843
1838,1855,1821
1792,1844,1856
1875,1840,1837
1904,1938,1883
1853,1920,1845
1787,1781,1791
1777,1786,1854
1817,1847,1911
1840,1859,1884
1851,1877,1837
1891,1951,1856
1891,1937,1891
1833,1925,1858
1826,1893,1749
1778,1703,1786
1879,1761,1898
1873,1791,1845
