1840,1840,1843
1877,1866,1863
1840,1840,1814
1840,1851,1838
1859,1872,1877
1887,1854,1846
1846,1838,1812
1886,1868,1862
1847,1870,1883
1840,1845,1840
1851,1856,1825
1883,1915,1892
1871,1901,1889
1829,1838,1813
1825,1831,1805
1889,1903,1893
1936,1947,1954
1801,1821,1798
1799,1797,1763
1862,1869,1860
1934,1885,1889
1870,1863,1835
1856,1863,1821
1921,1870,1857
1899,1889,1873
1859,1866,1826
1878,1862,1828
1883,1863,1843
1844,1857,1863
1843,1857,1840
1882,1851,1811
1840,1873,1869
1875,1872,1871
1862,1863,1846
1895,1918,1863
1871,1881,1861
1776,1823,1810
1830,1815,1795
1865,1859,1824
1919,1877,1872
1885,1889,1891
1822,1845,1838
1854,1830,1785
1867,1878,1846
1873,1868,1873
1842,1828,1808
1873,1873,1833
1907,1900,1886
1869,1864,1871
1828,1813,1794
1845,1843,1803
1888,1900,1870
1866,1865,1862
1821,1840,1831
1840,1820,1777
1854,1870,1855
1881,1891,1886
1855,1843,1811
1839,1834,1787
1872,1876,1855
1882,1882,1872
1935,1863,1839
1808,1833,1791
1831,1863,1846
1872,1895,1901
1823,1827,1802
1841,1839,1790
1889,1907,1875
1891,1902,1899
1826,1811,1797
1886,1846,1787
1835,1843,1823
1809,1827,1840
1860,1827,1824
1909,1872,1843
1856,1843,1818
1834,1845,1840
1846,1845,1808
1886,1868,1839
1871,1865,1856
1844,1841,1840
1857,1849,1815
1881,1868,1817
1887,1887,1861
1839,1835,1831
1815,1793,1762
1838,1815,1775
1881,1872,1851
1886,1882,1882
1846,1827,1808
1833,1813,1775
1856,1856,1835
1887,1886,1884
1894,1885,1855
1835,1831,1782
1836,1846,1813
1855,1862,1854
1882,1883,1847
1835,1799,1773
1807,1807,1786
1824,1825,1829
1854,1829,1831
1854,1844,1808
1846,1850,1835
1855,1850,1856
1882,1859,1837
1836,1818,1776
1840,1861,1818
1833,1839,1838
1824,1802,1789
1834,1818,1777
1851,1856,1835
1859,1877,1857
1838,1833,1792
1825,1822,1774
1861,1872,1839
1878,1901,1867
1868,1858,1818
1837,1822,1773
1833,1840,1806
1867,1873,1862
1871,1872,1826
1803,1791,1741
1782,1793,1757
1821,1815,1821
1846,1821,1813
1838,1839,1783
1834,1840,1810
1853,1869,1843
1854,1838,1803
1817,1808,1761
1857,1850,1824
1861,1866,1847
1840,1831,1804
1838,1827,1789
1825,1829,1808
1872,1880,1872
1808,1795,1771
1801,1781,1744
1840,1833,1822
1866,1873,1871
1843,1851,1820
1814,1813,1753
1838,1840,1814
1853,1866,1855
1832,1823,1808
1827,1839,1788
1848,1875,1830
1828,1846,1830
1827,1829,1799
1817,1823,1762
1839,1868,1823
1811,1839,1825
1830,1826,1799
1830,1838,1776
1835,1844,1815
1854,1867,1858
1856,1860,1835
1810,1809,1760
1813,1813,1790
1828,1825,1829
1829,1834,1793
1845,1840,1793
1870,1882,1850
1872,1904,1875
1824,1824,1789
1790,1785,1747
1856,1865,1842
1820,1830,1823
1799,1811,1771
1813,1815,1775
1849,1858,1840
1841,1845,1842
1811,1814,1796
1837,1836,1798
1859,1866,1840
1857,1872,1863
1811,1829,1795
1808,1819,1766
1842,1859,1831
1856,1854,1859
1843,1843,1819
1821,1809,1770
1806,1820,1788
1833,1850,1842
1859,1863,1828
1837,1829,1782
1809,1831,1797
1844,1855,1849
1861,1859,1824
1855,1865,1802
1839,1856,1830
1809,1842,1824
1840,1848,1810
1840,1815,1778
1811,1808,1790
1826,1827,1837
1840,1824,1815
1845,1840,1808
1866,1872,1847
1870,1886,1874
1837,1839,1809
1840,1844,1787
1859,1870,1840
1879,1887,1887
1840,1847,1823
1776,1770,1735
1811,1817,1795
1837,1841,1840
1823,1826,1800
1820,1838,1777
1841,1857,1832
1848,1858,1856
1819,1824,1797
1827,1841,1787
1872,1898,1842
1812,1827,1825
1789,1797,1779
1820,1840,1792
1815,1827,1808
1845,1851,1841
1815,1815,1787
1813,1831,1771
1837,1845,1819
1833,1846,1839
1834,1808,1797
1859,1833,1799
1871,1875,1850
1810,1841,1829
1813,1837,1793
1851,1851,1802
1844,1864,1840
1810,1856,1821
1811,1845,1792
1823,1860,1787
1850,1854,1842
1863,1905,1865
1840,1855,1808
1810,1842,1767
1831,1869,1821
1872,1841,1877
1853,1808,1823
1817,1793,1767
1821,1870,1809
1863,1887,1872
1811,1840,1799
1775,1798,1733
1807,1824,1793
1840,1823,1850
1851,1853,1826
1842,1845,1794
1844,1858,1833
1844,1904,1854
1825,1831,1805
1840,1858,1792
1870,1923,1853
1831,1840,1852
1791,1823,1778
1827,1851,1790
1822,1895,1821
1809,1833,1825
1827,1843,1815
1811,1868,1777
1837,1847,1835
1870,1919,1890
1807,1819,1791
1811,1847,1779
1850,1879,1840
1801,1815,1809
1813,1819,1795
1823,1850,1785
1826,1838,1811
1835,1843,1843
1821,1831,1808
1849,1870,1808
1857,1875,1843
1840,1863,1862
1814,1823,1799
1803,1765,1761
1822,1845,1817
1856,1907,1871
1850,1875,1835
1789,1841,1754
1815,1866,1819
1843,1840,1846
1840,1818,1808
1813,1825,1767
1859,1920,1853
1843,1841,1854
1833,1875,1802
1840,1798,1789
1861,1910,1840
1838,1845,1831
1790,1783,1759
1814,1788,1764
1810,1828,1801
1789,1786,1805
1808,1785,1788
1837,1855,1797
1857,1873,1850
1813,1815,1830
1812,1802,1793
1837,1850,1787
1857,1856,1842
1859,1856,1867
1871,1868,1847
1840,1826,1796
1802,1793,1791
1811,1820,1838
1829,1818,1813
1917,1918,1879
1782,1790,1778
1747,1769,1767
1799,1790,1787
1835,1904,1795
1845,1860,1837
1846,1840,1862
1783,1793,1771
1799,1769,1763
1836,1829,1834
1877,1839,1902
1872,1809,1872
1787,1784,1764
1776,1773,1767
1806,1844,1833
1827,1807,1808
1826,1845,1781
1838,1819,1817
1840,1820,1847
1841,1818,1822
1845,1803,1790
1850,1840,1839
1871,1846,1877
1840,1795,1820
1769,1723,1732
1793,1766,1776
1834,1765,1840
1858,1817,1843
1850,1808,1810
1872,1895,1858
1839,1764,1852
1824,1780,1809
1830,1745,1793
1877,1804,1867
1905,1861,1919
1889,1808,1865
1822,1742,1776
1835,1780,1822
1870,1761,1875
1876,1765,1847
1886,1808,1829
1933,1854,1914
1914,1840,1917
1874,1783,1843
1847,1783,1799
1866,1814,1852
1898,1831,1904
1895,1821,1865
1885,1792,1831
1892,1808,1862
1840,1765,1840
1840,1761,1818
1882,1786,1824
1909,1819,1879
1927,1840,1927
1952,1821,1905
1905,1802,1839
1906,1821,1860
1947,1840,1923
1903,1790,1850
1891,1769,1821
1936,1831,1887
2002,1916,1983
1902,1794,1855
1852,1737,1779
1870,1739,1839
1904,1805,1892
1925,1813,1883
1951,1777,1888
1957,1839,1914
1938,1791,1927
1941,1815,1904
1923,1847,1855
1895,1786,1854
1867,1722,1841
1919,1798,1865
1887,1733,1821
1930,1803,1895
1927,1826,1913
1936,1803,1881
1984,1850,1901
2015,1891,1982
1869,1758,1883
1877,1770,1866
1908,1780,1867
1875,1735,1870
1919,1785,1936
1969,1830,1958
1947,1799,1895
1928,1805,1910
1982,1859,1990
2026,1901,2011
1985,1845,1947
2005,1881,2000
2053,1926,2079
2063,1917,2043
2017,1866,1978
2034,1909,2037
2014,1870,2045
2053,1879,2045
2130,1959,2109
2181,2041,2219
2137,1999,2169
2009,1866,1994
2029,1850,1987
2160,1962,2156
2208,2025,2240
2130,1952,2127
2085,1899,2035
2123,1947,2112
2198,2023,2198
2204,2011,2173
2124,1910,2085
2177,1981,2173
2239,2037,2254
2263,2029,2240
2165,1961,2128
2183,1991,2165
2188,1977,2208
2256,2029,2243
2416,2201,2361
2416,2213,2417
2273,2016,2288
2229,1941,2183
2330,2039,2247
2434,2141,2374
2402,2128,2378
2385,2119,2346
2375,2102,2303
2386,2117,2346
2434,2154,2409
2427,2159,2359
2395,2096,2313
2471,2181,2411
2526,2251,2489
2346,2022,2271
2369,2061,2261
2433,2126,2354
2368,2038,2331
2359,2021,2274
2405,2075,2292
2455,2131,2398
2478,2144,2418
2447,2106,2349
2421,2095,2288
2435,2103,2338
2474,2144,2399
2433,2076,2311
2374,2018,2230
2402,2061,2274
2416,2075,2319
2421,2070,2288
2435,2087,2277
2445,2096,2304
2448,2113,2349
2432,2083,2304
2433,2094,2277
2470,2133,2341
2452,2125,2349
2449,2103,2304
2469,2131,2303
2462,2148,2320
2460,2145,2354
2463,2128,2320
2481,2155,2305
2483,2170,2340
2474,2150,2352
2429,2099,2277
2419,2097,2233
2461,2128,2297
2482,2145,2340
2477,2133,2303
2479,2135,2271
2505,2170,2320
2513,2193,2346
2435,2091,2241
2365,2025,2155
2444,2109,2256
2525,2192,2352
2433,2086,2239
2384,2041,2165
2444,2101,2246
2489,2141,2313
2466,2117,2265
2483,2149,2255
2512,2194,2307
2445,2097,2256
2371,2019,2167
2398,2059,2169
2419,2065,2199
2422,2069,2228
2435,2106,2223
2422,2087,2164
2288,1949,2064
2281,1959,2110
2305,1970,2110
2307,1957,2078
2325,1984,2521
2311,1993,2074
2313,1975,1778
2288,1971,1751
2287,1962,1808
2333,2006,1839
2383,2045,1841
2465,2128,1830
2517,2189,1824
2419,2064,1872
2400,2030,1809
2335,1989,4048
2016,1731,1863
1846,1578,64
1996,1655,866
2192,1804,1846
2321,1906,2058
2368,1963,1920
2382,1982,1815
2395,1999,1803
2447,2059,1822
2479,2099,1830
2484,2096,1835
2498,2118,1829
2547,2163,1828
2559,2203,1829
2559,2195,1823
2537,2173,1829
2539,2178,1829
2506,2161,1827
2454,2103,1829
2476,2113,1829
2541,2192,1827
2543,2192,1825
2512,2171,1746
2482,2157,1681
2496,2166,1727
2515,2177,1787
2496,2162,1739
2490,2166,1713
2512,2192,1707
2529,2194,1742
2486,2163,1708
2462,2174,1686
2481,2193,1683
2467,2163,1725
2450,2139,1675
2449,2139,1669
2448,2161,1654
2427,2152,1720
2396,2107,1664
2391,2114,1600
2423,2159,1738
2431,2167,1757
2399,2128,1664
2353,2096,1598
2425,2161,1709
2369,2110,1698
2327,2061,1625
2315,2047,1594
2352,2099,1674
2351,2111,1707
2329,2095,1652
2337,2103,1657
2326,2112,1643
2266,2053,1642
2241,2000,1633
2240,2007,1566
2286,2077,1666
2263,2063,1693
2240,2027,1663
2211,2009,1600
2229,2032,1648
2251,2062,1701
2223,2037,1637
2177,1996,1599
2185,2010,1648
2179,2005,1671
2182,1975,1645
2192,1999,1615
2192,2005,1680
2175,2000,1711
2078,1915,1584
2061,1902,1535
2127,1958,1648
2144,1978,1712
2066,1907,1623
2063,1943,1620
2068,1939,1626
2082,1943,1682
2053,1911,1634
2032,1906,1599
2073,1946,1648
2070,1950,1723
2015,1900,1643
2028,1919,1638
2036,1936,1651
2023,1938,1703
1983,1885,1600
2006,1907,1626
2031,1947,1685
1970,1874,1687
1957,1874,1681
1958,1887,1593
1935,1865,1651
1949,1885,1719
1963,1888,1706
1951,1883,1673
1977,1911,1699
1968,1915,1763
1959,1919,1776
1936,1888,1726
1936,1886,1707
1929,1872,1719
1913,1852,1699
1906,1856,1662
1925,1883,1719
1939,1899,1777
1918,1876,1743
1902,1863,1705
1949,1929,1781
1937,1904,1795
1869,1830,1694
1842,1810,1635
1861,1833,1734
1891,1861,1778
1878,1855,1746
1845,1843,1664
1869,1853,1731
1859,1846,1782
1837,1821,1721
1819,1808,1697
1855,1859,1779
1860,1859,1856
1831,1840,1742
1828,1841,1728
1827,1837,1758
1782,1799,1744
1762,1790,1712
1773,1805,1698
1808,1847,1776
1807,1840,1797
1781,1819,1747
1772,1812,1715
1781,1840,1765
1790,1845,1869
1763,1822,1878
1744,1819,2019
1773,1855,2318
1776,1851,1952
1727,1812,1809
1705,1792,1843
1741,1827,1813
1745,1835,1763
1744,1830,1825
1725,1807,1823
1710,1793,1870
1735,1809,1818
1738,1808,1792
1738,1820,1811
1744,1842,1840
1741,1832,1808
1730,1808,1825
1712,1804,1795
1743,1840,1872
1761,1849,1897
1729,1820,1862
1723,1808,1860
1730,1834,1827
1741,1835,1835
1716,1817,1814
1711,1795,1870
1723,1812,1821
1737,1813,1872
1703,1792,1793
1691,1781,1798
1712,1809,1827
1722,1823,1831
1702,1801,1831
1686,1797,1823
1712,1818,1837
1719,1824,1760
1699,1799,1623
1680,1791,1618
1704,1823,1712
1715,1825,1764
1687,1781,1648
1681,1776,1571
1708,1808,1625
1713,1810,1865
1680,1789,2017
1648,1765,2038
1639,1753,2173
1577,1699,2468
1444,1556,2785
1299,1421,1040
1391,1490,1261
1502,1583,1775
1535,1595,1931
1535,1616,1882
1585,1665,1865
1615,1683,1838
1605,1677,1810
1601,1678,1830
1649,1712,2286
1629,1685,1811
1584,1647,2007
1535,1619,2018
1513,1600,1666
1526,1602,1530
1529,1590,1571
1535,1598,1757
1588,1643,1760
1620,1674,1862
1606,1664,1887
1592,1655,1863
1593,1663,2647
1556,1626,1631
1534,1600,1584
1510,1566,1821
1535,1606,1520
1572,1626,1762
1573,1615,1681
1583,1621,1146
1627,1673,0
1646,1695,979
1641,1679,1664
1633,1679,1121
1664,1725,287
1682,1742,0
1673,1729,0
1664,1728,1310
1687,1763,2069
1680,1777,2192
1648,1733,1854
1664,1721,1665
1709,1765,1753
1691,1776,1827
1683,1757,1841
1647,1757,1833
1728,1782,1825
1755,1810,1825
1697,1787,1823
1710,1779,1841
1701,1817,1832
1744,1820,1815
1686,1791,1816
1670,1790,1830
1717,1820,1834
1729,1834,1829
1722,1813,1845
1675,1808,1828
1712,1835,1808
1728,1843,1820
1712,1821,1830
1723,1811,1825
1722,1843,1830
1746,1856,1832
1685,1834,1825
1699,1826,1830
1715,1855,1827
1739,1862,1831
1712,1849,1827
1711,1833,1837
1714,1860,1883
1776,1874,1907
1721,1838,1831
1714,1833,1792
1715,1867,2427
1693,1835,3117
1651,1776,1767
1643,1774,1501
1655,1811,1759
1680,1833,1817
1682,1807,1804
1648,1802,1822
1693,1829,1835
1711,1840,1862
1680,1793,2229
1619,1746,2034
1595,1727,2123
1508,1679,1565
1525,1649,1789
1525,1604,1882
1529,1609,1700
1503,1622,1451
1495,1621,1564
1615,1642,1794
1648,1686,1875
1651,1721,1852
1655,1713,1827
1627,1721,1823
1690,1749,1825
1702,1776,1829
1634,1761,1825
1667,1759,1829
1678,1792,1833
1723,1805,1825
1707,1785,1826
1695,1785,1863
1695,1796,2037
1648,1793,1719
1653,1758,1902
1669,1749,1862
1663,1759,1715
1694,1781,1676
1654,1761,1914
1649,1753,1869
1687,1787,1776
1712,1806,1742
1699,1789,1805
1680,1779,1855
1709,1817,1834
1729,1840,1813
1714,1823,1834
1695,1808,1833
1722,1840,1813
1739,1857,1822
1728,1833,1829
1697,1826,1829
1694,1853,1828
1875,1873,1829
1692,1847,1825
1713,1838,1834
1730,1871,1826
1745,1882,1825
1710,1857,1825
1750,1847,1825
1737,1893,1830
1767,1887,1828
1734,1846,1827
1718,1846,1828
1739,1883,1828
1758,1902,1825
1728,1872,1827
1723,1859,1830
1755,1892,1879
1761,1902,1904
1738,1876,1852
1722,1861,1796
1758,1886,1842
1749,1903,1873
1749,1877,1823
1650,1863,1771
1744,1886,1807
1727,1893,1840
1734,1873,1793
1772,1879,1750
1727,1904,1793
1728,1907,1837
1700,1875,1780
1642,1867,1726
1728,1899,1770
1759,1904,1823
1765,1876,1777
1733,1871,1713
1760,1895,1753
1744,1911,1795
1744,1887,1755
1712,1872,1709
1746,1903,1753
1765,1906,1797
1749,1872,1744
1724,1861,1689
1765,1907,1739
1776,1925,1786
1745,1885,1734
1691,1845,1680
1735,1878,1733
1776,1893,1775
1755,1873,1735
1741,1857,1673
1748,1893,1725
1762,1903,1759
1749,1872,1713
1735,1861,1666
1754,1885,1713
1790,1895,1759
1742,1859,1702
1722,1850,1648
1787,1889,1699
1773,1919,1754
1737,1888,1697
1728,1855,1658
1806,1867,1706
1727,1881,1749
1739,1852,1703
1717,1850,1655
1744,1885,1700
1683,1894,1735
1783,1865,1686
1702,1855,1647
1733,1914,1698
1767,1910,1744
1725,1840,1693
1728,1841,1647
1746,1878,1695
1767,1892,1744
1742,1867,1692
1723,1856,1635
1750,1879,1695
1760,1889,1736
1744,1857,1689
1728,1853,1641
1755,1902,1706
1762,1889,1744
1730,1836,1682
1727,1839,1642
1747,1858,1682
1744,1875,1738
1747,1858,1693
1730,1840,1643
1751,1867,1685
1776,1874,1737
1751,1851,1693
1734,1847,1647
1755,1872,1689
1767,1872,1743
1759,1861,1705
1744,1841,1648
1761,1861,1691
1776,1872,1742
1754,1851,1694
1734,1839,1645
1761,1869,1701
1779,1877,1744
1759,1856,1697
1731,1840,1646
1754,1863,1685
1773,1885,1738
1748,1855,1696
1728,1839,1651
1763,1865,1712
1776,1871,1751
1758,1841,1699
1737,1827,1661
1761,1859,1703
1785,1873,1745
1757,1852,1710
1743,1839,1655
1781,1875,1760
1792,1874,1841
1750,1829,1664
1729,1818,1594
1764,1855,1670
1790,1870,1744
1760,1841,1711
1744,1829,1663
1763,1852,1712
1783,1861,1759
1755,1845,1712
1744,1825,1664
1771,1840,1712
1782,1859,1763
1764,1840,1725
1744,1827,1678
1765,1872,1715
1778,1893,1767
1749,1807,1716
1743,1795,1679
1782,1835,1739
1798,1866,1790
1773,1837,1731
1749,1819,1680
1765,1856,1733
1789,1889,1776
1776,1891,1747
1790,2160,1754
1813,2233,1776
1797,1942,1762
1731,1553,1680
1729,1569,1682
1785,1783,1765
1801,1795,1792
1767,1745,1726
1765,1964,1712
1937,2609,1857
1958,2098,1765
1697,1417,1694
2096,2339,1745
2402,2943,1740
1767,2239,1962
1697,1600,1862
1712,1173,1535
1774,2333,1794
1799,1797,1773
1808,1145,1856
1893,1989,1734
1744,2559,1669
1584,1378,1635
1535,1049,1535
1621,1409,1584
1809,2739,1814
1868,2148,1729
1787,1077,1510
1747,1462,1500
1695,1968,1778
1789,1991,1863
1840,1457,1904
1712,1383,1520
1770,1901,1530
1821,1897,1744
1747,2273,1675
1744,1702,1399
1839,1439,1366
1872,1195,1486
1367,1295,1728
1200,1451,1734
1339,1814,1712
1386,1664,1584
1361,1653,1522
1285,1303,1411
1277,1344,1458
1318,1586,1616
1294,1712,1791
1213,1682,1423
1255,1535,1392
1251,1326,1408
1199,1392,1615
1427,1828,1568
1127,1244,1442
983,1230,1535
1054,1414,1494
1088,1285,1411
1104,1328,1482
1146,1574,1583
1232,1601,1525
1055,1277,1437
993,1303,1457
1040,1313,1535
1038,1333,1464
1054,1415,1466
1157,1510,1565
1100,1389,1565
981,1417,1488
912,999,1349
1023,1254,1468
1093,1521,1572
1122,1424,1431
1014,1184,1411
1058,1200,1483
1023,1266,1535
994,1342,1631
974,1515,1495
1034,1257,1495
1011,1167,1424
997,1408,1478
948,1200,1393
1045,1200,1498
1054,1310,1619
1015,1456,1535
1039,1516,1482
1003,1082,1453
1016,1241,1525
1036,1247,1510
1039,1219,1535
1082,1575,1611
1062,1565,1557
1010,1209,1511
1007,1034,1451
1102,1293,1481
1131,1373,1600
1151,1283,1584
1088,1339,1490
1073,1439,1526
1136,1479,1663
1121,1409,1707
1075,1216,1530
1104,1296,1535
1136,1443,1623
1104,1315,1535
1085,1403,1507
1139,1443,1615
1199,1405,1680
1179,1403,1645
1190,1371,1595
1200,1377,1634
1195,1571,1678
1170,1383,1681
1202,1434,1691
1257,1427,1727
1231,1408,1635
1255,1738,1637
1246,1488,1619
1229,1344,1697
1276,1431,1766
1258,1454,1679
1248,1564,1681
1277,1621,1713
1295,1472,1682
1445,1491,1645
1360,1586,1706
1159,1603,1741
1196,1559,1759
1287,1696,1741
1287,1567,1666
1355,1524,1742
1328,1526,1789
1307,1535,1751
1328,1765,1718
1375,1680,1763
1386,1674,1919
1349,1634,1721
1319,1535,1630
1362,1535,1715
1407,1761,1879
1407,1647,1823
1369,1594,1680
1429,1715,1776
1471,1770,1930
1441,1637,1803
1405,1519,1680
1415,1761,1762
1483,1905,1861
1453,1714,1835
1406,1645,1760
1438,1712,1792
1501,1776,1840
1475,1808,1827
1442,1676,1799
1473,1623,1805
1535,1715,1840
1500,1701,1872
1477,1843,1870
1518,1875,1808
1554,1879,1853
1535,1640,1793
1454,1562,1707
1487,1760,1839
1530,1803,1918
1570,1840,2002
1583,1808,1867
1596,1861,1797
1587,1833,1796
1553,1679,1825
1535,1712,1791
1603,1741,1881
1614,1822,1904
1600,1829,1870
1600,1923,1811
1632,1938,1881
1638,1747,1899
1664,1728,1893
1568,1770,1826
1603,1712,1799
1673,1937,1914
1675,1904,1887
1628,1837,1838
1649,1769,1913
1683,1849,1980
1658,1811,1848
1633,1837,1798
1668,1840,1893
1721,1808,1936
1731,1888,1914
1680,1801,1812
1701,2025,1871
1719,1923,1955
1728,1829,1878
1712,1749,1769
1673,1840,1863
1708,1890,1993
1690,1898,1891
1702,1801,1831
1757,1983,1897
1776,2065,1968
1759,1771,1870
1735,1778,1899
1772,1919,1910
1758,1929,1920
1760,1840,1855
1738,1809,1831
1739,1968,1873
1781,2147,1936
1776,1767,1889
1747,1835,1903
1802,1889,1875
1839,2121,2043
1773,1926,1879
1744,1805,1779
1797,1864,1868
1835,1930,1936
1843,1936,1922
1835,2123,1914
1839,1930,1905
1808,1869,1935
1744,1866,1875
1776,1874,1887
1830,2064,1873
1862,2089,1963
1842,2038,1904
1809,1878,1846
1803,1793,1840
1849,1954,1936
1890,2129,1967
1840,2034,1890
1835,1904,1873
1870,1971,1905
1908,1946,1874
1894,1965,1834
1809,1974,1911
1810,2075,1940
1837,1983,1965
1847,2023,1867
1906,2190,1886
1906,2070,1973
1843,1894,1901
1824,1967,1819
1870,1936,1840
1870,1998,1920
1872,2081,1930
1898,2109,1927
1901,2062,1929
1875,2045,1983
1871,1974,1859
1841,1973,1786
1885,1937,1885
1906,2011,2022
1910,2163,1983
1867,1970,1801
1874,1963,1801
1907,1984,1954
1917,2047,1936
1903,1954,1855
1881,1984,1906
1875,2026,1929
1871,2067,1897
1875,2003,1857
1951,2094,1919
1904,1922,1969
1856,1948,1859
1872,2000,1841
1879,1895,1815
1895,2007,1867
1875,2043,1843
1872,1927,1840
1893,1907,1897
1883,1950,1891
1875,1980,1872
1885,2108,1849
1909,1950,1886
1913,1984,1907
1904,2000,1886
1861,1903,1762
1921,1937,1839
1921,2032,1901
1837,1907,1814
1857,1937,1803
1891,2097,1886
1936,2094,1939
1857,1915,1829
1845,1855,1824
1878,1998,1902
1931,1975,1826
1881,1936,1824
1844,1936,1787
1873,2042,1829
1900,2026,1895
1897,1953,1889
1882,2010,1808
1872,1957,1793
1910,2069,1911
1903,1971,1899
1881,2059,1840
1877,1939,1808
1962,1968,1909
1979,1971,1894
1868,1887,1856
1840,1977,1827
1907,2101,1877
1889,1975,1823
1879,2000,1792
1903,1999,1870
1929,2027,1914
1897,1950,1833
1873,1927,1783
1919,2093,1926
1922,2071,1920
1922,2024,1823
1903,2032,1730
1904,1857,1833
1926,1918,1907
1959,1985,1891
1968,2021,1808
1907,2114,1863
1874,2091,1876
1886,1851,1792
1887,1907,1789
1905,1936,1898
1937,1998,1904
1953,2045,1872
1936,2023,1791
1935,1945,1811
1964,1979,1908
1899,1962,1861
1877,1989,1847
1908,2064,1856
1917,1946,1855
1917,1952,1853
1914,2019,1817
1953,2064,1855
1945,1902,1869
1916,2011,1841
1904,1951,1840
1923,1848,1849
1954,1955,1968
1917,1967,1895
1920,2045,1777
1938,2066,1822
1968,2025,1905
1936,1889,1813
1921,1859,1823
1913,1903,1886
1937,2032,1959
1994,2186,1967
1943,1981,1833
1906,1851,1835
1950,1948,1886
1953,1991,1797
1894,1909,1737
1936,1916,1879
2011,2017,2036
1962,2016,1957
1889,1899,1754
1923,2058,1807
1963,2031,1948
1957,1857,1863
1968,1871,1815
1938,1981,1839
1954,1964,1890
1982,1984,1866
1962,1904,1818
1904,1904,1894
1941,1997,1919
1937,1968,1867
1936,1978,1814
1983,1889,1869
1968,1951,1883
1937,1923,1903
1921,1905,1890
1963,1936,1878
1985,1903,1839
1951,1910,1841
1921,2023,1808
1963,1945,1883
1995,1964,1891
1920,1872,1903
1873,1820,1808
1939,1885,1837
1995,1936,1895
1977,1904,1868
1961,2030,1846
1983,2095,1887
1947,1836,1861
1921,1843,1826
1968,1951,1822
2026,1962,1850
1970,1918,1925
1909,1868,1884
1913,1919,1855
1947,1903,1907
1975,2000,1936
1948,1910,1797
1941,1799,1760
1947,1857,1820
1998,1968,1905
1971,1943,1865
1919,1919,1823
1955,1910,1841
1968,1913,1933
1956,1853,1868
1927,1882,1729
1951,1941,1850
1957,1920,1917
1957,1937,1841
1932,1885,1826
1957,1943,1881
1980,1794,1891
1959,1902,1831
1920,1925,1766
1934,1828,1840
1987,1958,1927
1951,1885,1878
1949,1888,1733
1963,1842,1794
1963,1818,1909
1937,1926,1883
1968,1938,1792
1998,1929,1776
1943,1999,1929
1895,1820,1855
1890,1846,1813
1948,1840,1818
1984,1861,1907
1967,1882,1902
1955,1936,1808
1939,1870,1779
1953,1829,1853
1961,2006,1922
1994,1873,1836
1931,1776,1779
1948,1851,1836
1951,1892,1874
1939,1831,1807
1991,1969,1856
1994,1894,1839
1920,1841,1854
1910,1861,1865
1953,1846,1846
1981,1824,1882
1951,1901,1806
1927,1888,1811
1949,1957,1867
1962,1919,1865
1939,1775,1815
1942,1724,1806
1939,1835,1835
1957,1886,1905
1943,1854,1906
1941,1875,1827
1952,1941,1858
1985,1904,1872
1950,1849,1789
1936,1843,1750
1927,1839,1801
1939,1861,1891
1958,1801,1871
1953,1950,1869
1952,1904,1866
1959,1906,1854
1969,1777,1799
1936,1860,1777
1943,1882,1818
1953,1805,1855
1922,1807,1827
1945,1808,1808
1964,1872,1854
1975,1881,1913
1937,1920,1865
1911,1793,1730
1937,1847,1778
1999,1876,1856
1971,1879,1874
1933,1832,1838
1939,1826,1881
1967,1808,1904
1943,1829,1822
1870,1835,1713
1893,1862,1788
1949,1890,1935
1946,1955,1851
1918,1778,1774
1921,1759,1775
1931,1749,1829
1932,1874,1867
1954,1857,1914
1955,1828,1811
1919,1895,1751
1909,1838,1768
1907,1777,1818
1945,1783,1846
1985,1829,1887
1941,1849,1865
1861,1813,1727
1887,1850,1773
1926,1904,1873
1937,1879,1851
1911,1769,1793
1902,1779,1807
1935,1810,1893
1926,1891,1858
1898,1815,1732
1936,1853,1825
1968,1829,1873
1893,1791,1825
1869,1823,1749
1934,1949,1840
1938,1886,1889
1918,1837,1881
1872,1725,1723
1949,1808,1818
1984,1859,1836
1904,1776,1850
1856,1749,1765
1911,1889,1829
1961,1982,1933
1958,1815,1825
1905,1799,1739
1904,1871,1762
1901,1895,1898
1885,1808,1897
1891,1735,1789
1913,1792,1757
1918,1872,1841
1919,1900,1839
1906,1836,1783
1909,1809,1797
1910,1850,1867
1903,1863,1842
1899,1842,1813
1908,1797,1817
1949,1827,1841
1904,1765,1799
1900,1858,1787
1911,1921,1854
1955,1872,1840
1894,1781,1762
1857,1698,1724
1891,1795,1815
1946,1922,1950
1919,1853,1856
1882,1795,1809
1888,1842,1758
1918,1838,1822
1897,1859,1868
1860,1776,1776
1893,1718,1759
1936,1868,1907
1934,1927,1840
1874,1806,1724
1888,1820,1783
1941,1945,1859
1930,1860,1818
1869,1731,1731
1866,1741,1776
1904,1856,1871
1912,1885,1917
1903,1725,1807
1909,1877,1794
1902,1803,1835
1890,1867,1861
1858,1851,1744
1910,1824,1776
1904,1749,1840
1904,1838,1871
1886,1776,1734
1872,1773,1802
1917,1879,1871
1913,1837,1872
1871,1834,1753
1891,1813,1814
1904,2033,1871
1878,1857,1808
1846,1667,1767
1883,1742,1795
1922,1860,1904
1901,1949,1824
1872,1743,1725
1938,1779,1783
1887,1791,1917
1837,1872,1823
1851,1830,1728
1921,1842,1747
1902,1820,1779
1860,1789,1851
1856,1839,1794
1911,1803,1844
1905,1830,1838
1871,1845,1809
1855,1807,1788
1861,1808,1799
1917,1872,1815
1858,1877,1776
1821,1792,1779
1931,1915,1850
1957,1801,1790
1863,1818,1790
1823,1790,1785
1887,1776,1829
1926,1877,1943
1923,1930,1875
1883,1931,1701
1863,1664,1705
1839,1693,1846
1856,1867,1867
1845,1922,1759
1934,1869,1758
1910,1761,1811
1813,1739,1829
1840,1858,1814
1925,2061,1926
1933,1838,1872
1888,1683,1776
1840,1712,1744
1913,1890,1809
1902,1867,1845
1904,1825,1778
1827,1867,1765
1883,1984,1887
1869,1792,1851
1878,1742,1793
1847,1797,1742
1871,1802,1813
1889,1789,1904
