1822,1831,1793
1790,1805,1709
1814,1831,1791
1823,1840,1829
1807,1822,1794
1789,1815,1756
1822,1846,1776
1833,1850,1846
1807,1828,1773
1808,1830,1807
1807,1830,1834
1806,1837,1873
1774,1797,1741
1763,1781,1744
1798,1819,1838
1809,1827,1839
1790,1813,1783
1761,1781,1740
1779,1807,1729
1807,1831,1823
1795,1823,1828
1790,1803,1747
1806,1831,1777
1818,1851,1843
1801,1823,1808
1795,1813,1762
1820,1840,1805
1836,1866,1847
1802,1829,1827
1747,1777,1721
1776,1808,1764
1795,1827,1840
1791,1817,1775
1783,1813,1775
1802,1840,1798
1810,1853,1870
1796,1828,1808
1792,1828,1786
1808,1839,1813
1791,1823,1829
1781,1808,1775
1787,1808,1758
1807,1840,1806
1812,1854,1857
1801,1839,1799
1766,1791,1751
1775,1807,1786
1787,1826,1836
1782,1814,1805
1776,1799,1758
1794,1826,1807
1808,1839,1867
1789,1814,1807
1773,1802,1755
1797,1819,1821
1817,1845,1833
1793,1810,1795
1778,1802,1775
1809,1840,1839
1822,1855,1847
1783,1811,1806
1761,1781,1776
1786,1810,1785
1798,1823,1828
1799,1818,1790
1785,1807,1743
1796,1835,1787
1796,1841,1822
1775,1810,1791
1765,1805,1766
1790,1838,1806
1806,1847,1856
1787,1821,1822
1775,1819,1758
1786,1850,1845
1810,1872,1919
1793,1840,1822
1744,1807,1751
1783,1840,1818
1797,1847,1854
1776,1823,1808
1764,1811,1761
1789,1838,1807
1811,1866,1872
1785,1840,1827
1761,1809,1763
1774,1839,1781
1793,1847,1845
1783,1830,1823
1776,1826,1744
1792,1853,1828
1795,1863,1866
1787,1854,1838
1774,1827,1775
1787,1843,1812
1818,1874,1893
1796,1838,1830
1785,1826,1770
1783,1835,1796
1794,1840,1859
1791,1833,1847
1787,1829,1778
1791,1840,1819
1801,1855,1853
1794,1845,1837
1776,1818,1782
1792,1841,1815
1807,1863,1872
1762,1825,1795
1755,1809,1767
1792,1845,1825
1797,1843,1869
1777,1828,1821
1778,1840,1779
1771,1827,1834
1776,1839,1830
1776,1821,1808
1776,1819,1782
1795,1850,1814
1782,1841,1904
1771,1813,1805
1775,1815,1770
1783,1829,1827
1785,1847,1837
1777,1833,1789
1778,1825,1776
1790,1850,1824
1786,1851,1829
1768,1831,1801
1756,1815,1767
1753,1815,1793
1767,1826,1840
1772,1817,1822
1774,1811,1786
1785,1838,1809
1799,1851,1885
1785,1837,1823
1769,1823,1785
1796,1850,1827
1795,1846,1863
1770,1814,1808
1758,1806,1814
1791,1834,1806
1805,1843,1859
1776,1821,1821
1763,1808,1749
1779,1827,1787
1808,1853,1872
1786,1824,1824
1788,1833,1787
1773,1809,1771
1767,1806,1808
1771,1808,1805
1757,1804,1731
1774,1825,1845
1787,1831,1840
1776,1813,1781
1773,1808,1776
1791,1840,1877
1808,1854,1858
1791,1834,1841
1761,1810,1769
1787,1842,1774
1790,1842,1839
1776,1828,1825
1779,1837,1807
1783,1840,1801
1778,1834,1838
1767,1810,1807
1774,1808,1762
1811,1853,1837
1812,1856,1871
1779,1818,1810
1762,1809,1773
1787,1837,1814
1807,1855,1873
1785,1824,1823
1793,1827,1787
1797,1843,1819
1803,1850,1861
1771,1812,1810
1761,1806,1774
1787,1830,1821
1811,1849,1872
1812,1840,1851
1771,1805,1776
1782,1830,1807
1808,1844,1862
1803,1836,1836
1791,1823,1779
1809,1846,1829
1811,1849,1869
1788,1821,1820
1771,1808,1774
1793,1837,1814
1815,1841,1858
1805,1829,1820
1793,1822,1776
1819,1848,1821
1767,1863,1875
1858,1850,1840
1747,1802,1753
1764,1826,1801
1787,1851,1861
1833,1833,1815
1742,1820,1777
1845,1841,1826
1805,1854,1866
1869,1841,1837
1797,1829,1781
1757,1843,1817
1808,1849,1861
1845,1837,1831
1809,1834,1791
1789,1855,1828
1840,1853,1857
1778,1823,1811
1790,1818,1776
1803,1849,1814
1839,1867,1869
1823,1855,1842
1779,1824,1772
1794,1854,1812
1799,1862,1858
1799,1845,1825
1819,1846,1789
1803,1865,1818
1808,1872,1866
1815,1873,1833
1796,1872,1795
1797,1871,1822
1805,1875,1846
1829,1872,1826
1776,1856,1777
1809,1874,1825
1827,1903,1878
1808,1885,1847
1767,1845,1772
1791,1869,1822
1808,1895,1867
1790,1872,1837
1799,1879,1798
1842,1904,1833
1801,1891,1865
1786,1871,1826
1802,1866,1792
1811,1903,1842
1831,1904,1871
1808,1861,1818
1761,1847,1766
1764,1897,1819
1840,1921,1883
1751,1864,1818
1827,1850,1770
1761,1885,1827
1821,1898,1870
1822,1877,1840
1799,1866,1792
1840,1883,1826
1837,1902,1869
1767,1879,1829
1777,1867,1792
1856,1904,1840
1831,1918,1890
1782,1863,1825
1782,1866,1789
1819,1898,1838
1794,1898,1872
1776,1853,1809
1760,1840,1767
1808,1872,1821
1805,1896,1876
1815,1878,1850
1821,1871,1794
1821,1891,1832
1825,1899,1875
1808,1875,1841
1810,1872,1803
1825,1889,1840
1823,1891,1867
1819,1882,1845
1809,1874,1808
1820,1891,1840
1810,1868,1858
1787,1846,1825
1792,1847,1788
1772,1857,1830
1808,1877,1879
1825,1867,1849
1847,1843,1795
1825,1874,1842
1734,1873,1875
1798,1857,1831
1840,1856,1797
1808,1870,1838
1811,1883,1877
1803,1863,1840
1795,1852,1807
1819,1866,1839
1808,1884,1883
1808,1872,1849
1807,1873,1808
1803,1874,1827
1812,1866,1858
1795,1850,1829
1758,1854,1799
1813,1881,1847
1789,1873,1870
1859,1857,1836
1781,1840,1786
1823,1861,1830
1859,1870,1871
1779,1856,1831
1793,1854,1796
1874,1871,1836
1833,1872,1873
1755,1857,1839
1794,1847,1793
1827,1872,1845
1798,1891,1892
1837,1878,1867
1777,1838,1782
1807,1855,1813
1833,1872,1875
1808,1859,1846
1808,1853,1797
1813,1870,1821
1833,1872,1873
1821,1856,1842
1776,1850,1802
1811,1850,1814
1815,1856,1862
1821,1847,1830
1811,1835,1785
1814,1859,1817
1808,1865,1866
1819,1847,1831
1808,1858,1802
1814,1862,1839
1822,1850,1857
1808,1839,1823
1758,1831,1781
1834,1859,1840
1840,1866,1872
1845,1855,1841
1822,1860,1804
1823,1855,1826
1811,1843,1853
1813,1825,1810
1792,1819,1778
1831,1844,1815
1826,1855,1863
1820,1840,1835
1775,1845,1799
1810,1840,1824
1808,1851,1853
1795,1839,1831
1787,1833,1791
1797,1854,1824
1809,1866,1866
1811,1858,1835
1787,1844,1779
1826,1865,1823
1837,1877,1879
1809,1838,1821
1793,1821,1776
1817,1845,1823
1824,1853,1865
1811,1840,1833
1777,1814,1762
1801,1846,1806
1829,1867,1868
1811,1840,1837
1777,1804,1769
1795,1835,1813
1808,1847,1861
1803,1833,1830
1793,1815,1787
1811,1845,1831
1837,1859,1878
1799,1830,1830
1792,1819,1781
1807,1840,1813
1829,1854,1862
1813,1831,1831
1808,1824,1792
1822,1841,1822
1827,1847,1867
1825,1840,1833
1795,1810,1773
1817,1839,1817
1824,1837,1850
1811,1825,1815
1810,1825,1782
1829,1845,1810
1839,1863,1861
1831,1845,1839
1790,1808,1759
1808,1840,1803
1829,1862,1857
1812,1843,1817
1798,1821,1767
1826,1849,1818
1840,1862,1861
1823,1850,1826
1820,1862,1794
1834,1862,1816
1826,1853,1850
1812,1840,1819
1804,1837,1776
1835,1872,1830
1835,1873,1855
1812,1842,1807
1805,1831,1762
1828,1858,1812
1862,1889,1871
1839,1870,1827
1805,1845,1757
1830,1871,1806
1825,1867,1846
1822,1856,1821
1825,1869,1793
1840,1883,1822
1834,1873,1856
1821,1851,1814
1801,1841,1769
1831,1869,1815
1847,1895,1870
1834,1874,1830
1805,1851,1766
1826,1876,1809
1855,1898,1867
1831,1873,1827
1823,1861,1779
1821,1867,1801
1837,1883,1851
1829,1872,1826
1821,1866,1776
1845,1891,1816
1855,1904,1856
1823,1872,1808
1821,1872,1779
1840,1882,1811
1835,1884,1850
1823,1872,1813
1808,1850,1765
1815,1863,1795
1838,1885,1855
1845,1891,1839
1799,1845,1755
1800,1840,1781
1822,1862,1842
1822,1855,1815
1815,1847,1773
1830,1871,1810
1840,1878,1858
1829,1868,1829
1810,1851,1775
1831,1877,1815
1841,1910,1869
1823,1904,1831
1802,1838,1778
1844,1866,1834
1831,1869,1847
1806,1847,1801
1808,1845,1765
1826,1872,1807
1834,1878,1855
1808,1850,1808
1797,1841,1767
1809,1857,1807
1825,1872,1854
1815,1872,1820
1825,1871,1786
1818,1871,1802
1826,1887,1851
1819,1849,1819
1808,1824,1767
1813,1857,1801
1837,1881,1856
1834,1875,1830
1824,1856,1787
1819,1845,1791
1826,1869,1841
1840,1859,1828
1794,1835,1755
1809,1863,1805
1829,1878,1862
1811,1855,1825
1799,1851,1775
1813,1851,1808
1833,1856,1857
1809,1851,1822
1803,1844,1783
1814,1859,1823
1831,1860,1867
1819,1857,1838
1807,1859,1788
1811,1861,1807
1840,1910,1873
1808,1822,1825
1792,1789,1765
1821,1845,1823
1818,1843,1854
1810,1836,1814
1807,1892,1776
1824,1920,1819
1825,1856,1847
1808,1815,1818
1798,1759,1774
1819,1803,1819
1841,1989,1886
1827,1899,1836
1803,1703,1765
1824,1767,1808
1829,1814,1856
1823,1847,1829
1808,1833,1788
1823,1745,1813
1831,1819,1857
1835,1904,1836
1827,1933,1797
1840,1877,1817
1837,1783,1853
1819,1797,1824
1801,1731,1765
1817,1808,1808
1843,2007,1892
1823,1795,1810
1807,1719,1749
1814,1804,1799
1826,1840,1855
1813,1778,1821
1813,1785,1780
1829,1839,1819
1837,1851,1856
1824,1775,1790
1815,1722,1743
1839,1841,1808
1884,1935,1876
1854,1808,1803
1771,1744,1737
1778,1729,1779
1794,1712,1827
1795,1775,1808
1805,1789,1747
1830,1840,1803
1823,1758,1869
1795,1667,1773
1785,1738,1716
1817,1805,1786
1834,1868,1831
1819,1854,1823
1824,1841,1782
1830,1840,1831
1843,1671,1836
1846,1687,1776
1838,1743,1703
1786,1831,1786
1776,1727,1856
1813,1675,1776
1847,1857,1727
1839,1687,1763
1902,1650,1838
1760,1730,1834
1721,1646,1821
1801,1735,1850
1872,1808,1870
1858,1831,1826
1752,1535,1679
1747,1600,1677
1766,1698,1769
1770,1712,1783
1763,1676,1779
1783,1562,1845
1845,1719,1823
1871,1815,1727
1719,1604,1665
1728,1683,1761
1795,1743,1867
1807,1574,1808
1761,1514,1806
1771,1586,1751
1762,1600,1744
1717,1664,1701
1726,1602,1687
1760,1612,1773
1794,1814,1840
1808,1584,1770
1808,1602,1750
1841,1779,1858
1808,1584,1855
1713,1535,1728
1703,1520,1666
1716,1591,1744
1745,1666,1821
1761,1769,1775
1721,1778,1697
1712,1836,1725
1703,1488,1778
1669,1355,1707
1684,1473,1672
1818,1616,1730
1786,1750,1822
1728,1744,1831
1659,1678,1686
1658,1553,1726
1866,1744,1927
1832,1571,1809
1591,1671,1634
1582,1830,1683
1639,1653,1740
1685,1456,1707
1731,1523,1672
1782,1821,1766
1902,1856,1776
1866,1562,1671
1584,1450,1717
1511,1531,1776
1623,1622,1808
1701,1846,1814
1725,1789,1734
1749,1563,1739
1794,1600,1733
1642,1526,1716
1613,1607,1718
1669,1722,1778
1697,1745,1821
1695,1658,1778
1680,1600,1754
1703,1622,1764
1776,1618,1947
1699,1651,1771
1715,1730,1597
1779,1801,1697
1745,1749,1729
1760,1533,1671
1579,1531,1717
1737,1827,1870
1918,1664,1808
1594,1587,1787
1558,1687,1716
1749,1712,1769
1943,1746,1730
1757,1729,1746
1589,1578,1723
1561,1529,1731
1629,1731,1840
1600,1682,1781
1648,1762,1742
1749,1849,1713
1757,1659,1712
1553,1455,1735
1554,1646,1676
1685,1719,1730
1661,1850,1791
1713,1934,1728
1677,1665,1611
1579,1679,1763
1588,1774,1875
1678,1887,1699
1766,1849,1604
1779,1847,1702
1572,2091,1895
1503,2127,1808
1611,1717,1606
1702,1723,1591
1658,2038,1701
1535,1983,1725
1574,1989,1680
1635,2083,1738
1657,2125,1793
1682,1814,1710
1730,1843,1601
1660,1918,1673
1524,2080,1755
1562,1763,1719
1682,1943,1671
1753,2061,1664
1581,1907,1697
1599,2007,1645
1627,1857,1631
1586,1999,1683
1577,2071,1771
1620,2075,1803
1637,1968,1650
1579,1871,1577
1601,1910,1746
1623,2047,1856
1663,2007,1590
1558,1838,1459
1694,1957,1465
1663,1939,1574
1482,1904,1670
1535,1968,1691
1655,1939,1798
1580,1973,1744
1610,2113,1621
1585,1808,1518
1590,1707,1679
1587,1903,1739
1581,2096,1724
1671,2067,1618
1565,2021,1738
1502,1807,1725
1473,1535,1615
1572,1831,1649
1801,1904,1680
1698,1984,1683
1561,1789,1602
1390,1797,1759
1511,1829,1728
1602,1839,1623
1486,1942,1629
1553,1728,1689
1529,1748,1733
1565,1779,1633
1456,1903,1618
1461,1757,1694
1489,1646,1725
1467,1664,1747
1530,1680,1645
1670,1749,1646
1535,1730,1776
1468,1795,1797
1453,1744,1879
1619,1721,1859
1502,1929,1774
1443,1535,1794
1494,1486,1824
1498,1630,1840
1798,1838,1827
1571,2063,1826
1253,1470,1826
1322,1330,1829
1488,1822,1829
1585,1671,1834
1526,1493,1825
1467,1516,1827
1389,1776,1826
1435,1678,1826
1535,1799,1823
1614,1570,1830
1511,1657,1827
1558,1584,1825
1514,1553,1826
1469,1693,1834
1507,1819,1829
1615,1535,1827
1563,1488,1827
1574,1691,1827
1319,1675,1831
1447,1689,1823
1571,1599,1831
1632,1686,1830
1608,1612,1826
1511,1621,1827
1373,1535,1831
1463,1557,1867
1584,1671,1945
1650,1872,1818
1585,1703,1776
1520,1531,1712
1467,1620,1855
1485,1710,1921
1535,1793,1749
1562,1660,1706
1502,1599,1979
1606,1693,1936
1755,1793,1779
1712,1717,1775
1535,1822,1817
1312,1402,1811
1425,1455,1779
1696,1808,1836
1675,1710,1808
1535,1600,1805
1637,1663,1930
1672,1746,2256
1478,1713,1994
1478,1523,1729
1562,1632,1728
1750,1729,1778
1584,1515,1895
1456,1499,1843
1497,1653,1803
1603,1755,1798
1497,1728,1823
1510,1695,1833
1558,1508,1830
1637,1481,1824
1585,1664,1792
1749,1665,1810
1712,1535,1857
1535,1520,1841
1585,1702,1962
1697,1535,1947
1499,1601,1901
1475,1446,1654
1535,1579,1697
1683,1814,1892
1535,1525,1771
1631,1418,1723
1617,1475,1801
1581,1741,1841
1689,1823,1843
1692,1502,1841
1520,1522,1819
1535,1520,1829
1665,1622,1847
1875,1723,1796
1679,1466,3071
1563,1680,2487
1639,1680,1559
1869,1728,1302
1706,1873,1503
1642,1605,1629
1735,1520,1403
1648,1617,1466
1690,1650,1601
1808,1974,1627
1714,1717,1432
1636,1431,1428
1706,1702,1609
1714,1999,1633
1881,1637,1399
1731,1456,1362
1611,1666,1601
1782,1971,1600
1815,1777,1395
1648,1776,1493
1731,1664,1601
1754,1761,1505
1904,1726,1403
1874,1754,1498
1647,1757,1705
1583,1658,1635
1705,1874,1455
1789,1899,1434
1814,1756,1622
1729,1638,1571
1777,1791,1493
1840,1694,1483
1827,1744,1604
1825,1744,1671
1715,1831,1535
1737,1902,1558
1789,1963,1639
1725,1648,1601
1827,1679,1535
1838,1719,1618
1712,1858,1675
1698,1936,1649
1771,1824,1489
1951,1722,1520
1829,1808,1701
1847,1744,1619
1709,1599,1424
1750,1906,1578
1798,2062,1854
1903,1683,1585
1711,1520,1430
1824,1733,1939
1792,1857,4095
1742,1862,3819
1897,1895,2426
1769,1753,2094
1689,1981,2513
1713,1904,2672
1794,1590,2429
1757,1667,2528
1745,1775,2686
1777,1909,2625
1977,2083,2323
2015,1733,2153
1707,1633,2351
1621,1658,2274
1849,1775,4095
1874,1888,4095
1745,2087,3408
1641,1678,1854
1710,1507,935
1823,1722,924
1815,1878,1297
1786,1826,1348
1907,1808,1231
1911,1962,1327
1966,1826,1354
1666,1814,1315
1607,1770,1274
1777,1911,1350
1907,1808,1337
1733,1582,1273
1731,1860,1357
1823,1939,1275
1877,1860,1343
1830,1721,1403
1769,1712,1347
1863,1903,1481
1861,1929,1465
1986,1712,1280
1765,1751,1250
1744,1840,1337
1780,1925,1553
1731,1854,1580
1773,1920,1393
1922,1982,1435
1899,1683,1456
1798,1667,1451
1796,1856,1420
1902,2021,1518
1867,1937,1534
1770,1707,1471
1842,1713,1373
1984,1736,1390
1750,1822,1554
1809,1945,1679
1776,1991,1466
1798,1776,1485
1791,1762,1594
1855,1923,1642
1948,2046,1506
1905,1809,1466
1798,1881,1582
1833,1888,1609
1787,1683,1477
1868,1725,1468
1895,2017,1599
1877,1878,1749
1770,1883,1562
1811,1795,1528
2002,1692,1584
1925,1906,1475
1768,2027,1601
1809,1919,1617
1836,1739,1617
1820,1744,1661
1897,1904,1601
1914,1869,1664
1730,1783,1663
1697,1792,1612
1828,2016,1639
1935,2089,1680
1871,1802,1697
1808,1963,1717
1808,1689,1489
1947,1793,1631
1905,1879,1787
1874,2079,1759
1968,1680,1600
2022,1671,1535
1744,1847,1730
1664,1841,1671
1872,1838,1654
1863,1872,1735
1766,1861,1789
1802,1967,1903
1898,2008,1730
1845,2006,1635
1825,1783,1764
1808,1776,1678
1845,1774,1615
1927,1905,1615
1868,2086,1776
1841,1754,1745
1840,1680,1690
2013,1782,1742
1821,1837,1823
1728,1815,1776
1829,1910,1681
1973,1893,1665
1941,1895,1781
1766,2082,1873
1808,1873,1760
2030,1883,1749
1846,1826,1813
1671,1806,1839
1782,1995,1719
1887,1901,1733
1875,1728,1744
1856,1816,1815
1850,1841,1791
1873,1862,1774
1957,1893,1839
1968,1872,1887
1935,2046,1713
1814,1779,1744
1718,1771,1860
1894,1776,1765
1967,1852,1673
1815,1934,1823
1760,1917,1985
1823,1968,1998
1885,1911,1808
1924,1743,1810
1795,1712,1783
1767,1865,1791
1811,2000,1714
1888,1973,1809
2037,1753,1967
1973,1835,1827
1872,1797,1712
1838,1867,1772
1733,1835,1920
1788,1961,1954
1904,1788,1767
1910,1841,1743
1842,1921,1910
1824,1869,1920
1920,1905,1773
1844,1802,1773
1840,1787,1887
1853,1829,1874
1904,1882,1834
1882,2020,1862
1948,1927,1856
1836,1835,1831
1753,1785,1792
1840,1862,1888
1909,2003,1984
1974,1955,1935
1905,1769,1714
1756,1695,1776
1793,1931,1978
1840,1898,1904
1883,1781,1727
1981,1847,1733
1931,1901,1845
1843,1968,1985
1795,2042,1884
1910,1805,1795
1941,1758,1813
1760,1759,1934
1738,1904,1847
1906,1858,1802
1828,1894,1897
1789,1896,1893
1891,2087,1829
1971,1870,1839
1808,1750,1879
1835,1787,1876
1822,1840,1810
1975,1966,1820
1959,1991,1911
1793,1892,2032
1711,1808,1745
1847,1776,1808
1901,1744,1878
1921,1795,1850
1918,1846,1841
1814,2035,1904
1765,1883,1955
1828,1826,1927
2112,1903,1792
1882,1803,1755
1749,1842,1920
1709,1967,1966
1856,1947,1822
1898,1777,1827
1886,1823,1931
1882,1934,1891
1844,1877,1819
1859,1999,1904
1824,1965,1963
1840,1776,1887
1904,1673,1744
1951,1761,1781
1827,1895,1921
1871,2064,1967
2029,1868,1776
1984,1761,1776
1812,1748,1970
1824,1953,1985
1842,1906,1791
1831,1850,1842
1836,2004,2003
1828,1808,1890
1846,1886,1850
1854,1808,1823
1852,1853,1936
1807,1819,1883
1843,1744,1774
1918,1978,1846
1984,2013,1981
1902,1786,1899
1783,1680,1813
1891,1780,1815
2112,1859,1903
1877,1909,1943
1742,1875,1850
1842,1862,1808
1803,1877,1936
1747,1872,2032
1842,2018,1898
1906,1794,1793
1890,1779,1917
1819,1785,1885
1835,1808,1780
1850,1879,1845
1958,1950,1984
2047,1984,2022
1829,1872,1809
1815,1765,1813
1808,1777,2009
1795,1875,1963
1834,1874,1818
1909,1831,1743
1893,1723,1904
1937,1919,1907
1866,1973,1853
1886,1865,1871
1717,1712,1947
1870,1814,1888
1846,2000,1855
1898,1903,1864
1856,1840,1918
1781,1872,1869
1884,1787,1810
1903,1881,1821
1824,1779,1983
1786,1765,1891
1821,1746,1819
1983,2002,1909
1927,2128,2007
1882,1904,1824
1758,1642,1741
1857,1686,1810
1975,1935,1982
1808,1842,1961
1802,1865,1804
1887,1882,1850
1845,1786,1889
1752,1905,1931
1836,1959,1785
1857,1776,1851
1920,1908,1986
1872,2013,1922
1867,1713,1767
1885,1728,1776
1857,1711,1935
1863,1933,1962
1827,1904,1803
1898,1841,1756
1809,1861,1889
1849,1938,1954
1855,1931,1856
1869,1860,1847
1872,1774,1985
1737,1821,1984
1874,1718,1718
1914,1810,1808
1850,1943,1904
1904,1895,1946
1857,2032,1850
1912,2010,1859
1680,1709,1859
1747,1711,1866
1871,1840,1818
1958,1808,1840
1861,1742,1959
1881,1979,1975
1876,1968,1747
1910,1762,1792
1990,1986,1997
1953,1858,1831
1678,1723,1788
1877,1872,1936
1821,1936,1968
1776,1813,1867
1889,1862,1814
2015,1907,1803
1792,1902,1943
1751,1935,1949
1894,1883,1791
1927,1826,1787
1885,1734,1958
1793,1804,1904
1777,1837,1758
1900,1883,1838
1971,1979,1917
1961,1993,1872
1886,1764,1815
2030,1745,1842
1789,1951,1916
1726,1935,1957
1835,1770,1859
1911,1682,1822
1846,1847,1950
1898,1950,1841
1895,1991,1754
1907,1931,1841
1815,1858,1941
1860,1741,1813
1834,1744,1758
1820,1863,1871
1822,1891,1965
1867,1855,1941
1911,1943,1805
1949,1861,1806
1809,1869,1922
1802,1903,1919
1843,1811,1791
2029,1806,1770
1883,1815,1965
1786,1928,2004
1826,1922,1808
1890,1809,1811
1906,1871,1839
1825,1795,1894
1840,1825,1775
1886,1963,1795
1923,1905,1974
1837,1808,1893
1835,1747,1883
1862,1841,1776
1871,1910,1872
1823,1959,1872
1864,1867,1829
1961,1872,1776
1910,1915,1892
1803,1794,1910
1863,1947,1841
1904,1843,1809
1808,1678,1879
1769,1808,1887
1901,1921,1827
1999,1951,1908
1963,1922,1939
1835,1861,1828
1798,1971,1801
1858,1823,1835
1846,1713,1919
1955,1776,1910
1892,1872,1776
1829,1907,1795
1837,1915,1904
1982,1929,1931
1829,1776,1777
1843,1870,1883
1850,1951,1902
1798,1808,1835
1858,1774,1735
1949,1930,1823
1903,1879,1937
1836,1787,1870
1846,1843,1782
1872,1852,1891
1894,1889,1937
1870,1905,1929
1858,1841,1853
1934,1776,1718
1867,1895,1808
1799,1929,1904
1805,1791,1887
1887,1783,1833
1856,1808,1878
1852,1941,1911
1852,1917,1813
1886,1802,1827
1906,1917,1926
1889,2023,1895
1986,1683,1712
1808,1699,1818
1774,1809,1947
1854,1872,1890
1938,1899,1810
1867,1849,1833
1845,1930,1954
1850,1910,1873
1846,1754,1729
1896,1872,1763
1862,1895,1934
1829,1871,1905
1865,1785,1774
1902,1747,1781
1991,1933,1859
1833,1905,1872
1785,1798,1770
1989,1841,1837
1888,1856,1934
1737,1923,1898
1808,1915,1760
1870,1821,1759
1849,1735,1951
1854,1837,1911
1897,1921,1746
1915,1914,1743
1829,1837,1825
1838,1859,1953
1986,1835,1798
1904,1920,1785
1970,1926,1907
1744,1745,1778
1734,1686,1741
1815,1749,1841
1852,1886,1920
1950,1958,1898
1839,1774,1761
1853,1904,1783
1890,1895,1870
1803,1792,1840
1820,1778,1751
2004,1836,1889
1917,1966,1889
1769,2039,1808
1755,1750,1697
1869,1721,1820
1870,1876,1919
1837,1850,1886
1842,1851,1825
1884,1946,1779
1889,1840,1830
1828,2003,1820
1808,1743,1760
1871,1680,1798
1999,1815,1920
1931,1837,1904
1907,1879,1771
1839,1923,1745
1789,1841,1957
1776,1917,1911
1918,1967,1736
1872,1823,1751
1776,1760,1889
1773,1821,1886
1873,1808,1818
1978,1866,1734
1819,1872,1809
1799,1846,1886
1878,2080,1877
1930,1955,1837
1849,1713,1815
1840,1695,1777
1915,1798,1745
1872,1888,1793
1850,1869,1898
1898,1989,1887
1972,1834,1826
1929,1837,1747
1808,1965,1898
1741,1934,1939
1843,1710,1698
1883,1700,1728
1858,1911,1943
1838,2062,1983
1840,1747,1715
1835,1760,1698
1865,1904,1856
1850,1936,1886
1863,1795,1746
1863,1686,1746
1856,2000,1902
1834,1904,1879
1862,1742,1731
1902,1804,1789
1888,2006,1921
1951,1919,1885
1915,1735,1791
1809,1750,1765
1818,1870,1831
1786,1863,1818
1763,1827,1775
1858,1909,1779
1906,1813,1982
1875,1787,1884
1814,1977,1774
1825,1794,1743
1819,1845,1846
1821,1939,1886
1867,1977,1874
1886,1744,1749
1824,1776,1826
1844,1818,1926
1927,1705,1699
1999,1813,1681
1830,1867,1863
1811,2055,1922
1888,1905,1863
1829,1690,1821
1790,1773,1874
1783,1974,1849
1825,1808,1717
1957,1775,1733
1877,1813,1872
1776,1873,1957
1809,1839,1836
1939,1798,1787
1917,1971,1806
1791,1811,1818
1858,1745,1856
1986,1964,1856
1858,1810,1856
1797,1780,1846
1824,1855,1717
1950,1867,1773
1810,1870,1983
1712,1792,1916
1781,1840,1758
1900,1958,1831
2031,2011,1971
1920,1836,1794
1719,1807,1690
1757,1777,1744
1826,1817,1923
1908,1907,1936
2027,2027,1715
1903,1773,1711
1714,1749,1915
1735,1769,1887
1872,1945,1776
1856,1991,1865
1856,1837,1881
1803,1747,1767
1862,1792,1708
1874,1876,1776
1842,1862,1840
1802,1754,1887
1875,1853,1855
1959,1869,1840
1887,1810,1919
1712,1920,1824
1782,1932,1703
1835,1785,1731
1866,1925,1931
1773,1791,1857
1808,1719,1743
1914,1904,1841
1856,1863,1895
1809,1872,1874
1911,1904,1695
1870,1872,1751
1776,1760,1849
1744,1656,1883
1802,1698,1758
1856,1840,1823
1914,1970,1908
1793,1929,1862
1818,1807,1741
1831,1786,1822
1847,1968,1913
1849,1904,1863
1881,1830,1754
1916,2036,1804
1802,1715,1792
1762,1690,1815
1758,1807,1786
1822,1857,1807
1918,1844,1903
1811,1887,1830
1840,1873,1776
1861,1913,1840
1839,1809,1869
1745,1678,1877
1807,1694,1764
1872,1823,1757
1995,1963,1825
1849,1835,1834
1784,1866,1747
1841,1951,1851
1919,1808,1855
1747,1759,1872
1731,1827,1797
1879,1995,1866
1829,1859,1913
1759,1786,1868
1806,1808,1671
1905,1856,1743
1911,1784,1840
1792,1802,1921
1883,1861,1818
1930,1896,1767
1794,1825,1867
1698,1754,1860
1817,1815,1775
1935,1889,1823
1840,1991,1897
1840,1936,1845
1889,1725,1712
1855,1726,1745
1840,1742,1936
1797,1883,1878
1887,1782,1652
1871,1899,1763
1824,1968,1982
1822,1872,1945
1820,1730,1761
1828,1807,1759
1790,1807,1858
1794,1879,1905
1839,1906,1747
1898,1850,1741
1856,1773,1876
1811,1802,1818
1847,1840,1757
2006,2006,1847
1855,1792,1798
1825,1744,1815
1809,1871,1744
1858,1963,1847
1840,2053,1949
1808,1802,1872
1812,1771,1776
1835,1726,1765
1790,1821,1859
1795,1885,1872
1929,1971,1777
1936,1847,1779
1837,1874,1969
1795,1904,1872
1826,1871,1771
1899,1766,1734
1813,1718,1841
1771,1766,1907
1858,2046,1789
1893,1943,1783
1904,1862,1927
1798,1829,1803
1872,1699,1794
1872,1787,1757
1809,1838,1822
1923,1905,1816
1918,1923,1783
1771,1821,1815
1759,2047,1956
1770,1870,1889
1826,1702,1696
1939,1726,1762
1885,1810,1910
1822,1911,1953
1815,1841,1838
1886,1879,1760
1814,1841,1831
1806,1910,1849
1857,1968,1746
1887,1754,1783
1853,1657,1833
1796,1776,1838
1911,1919,1805
1879,1941,1792
1771,1739,1863
1840,1786,1921
1904,2013,1878
1853,1951,1790
1808,1635,1791
1813,1776,1855
1883,1878,1779
1922,1904,1769
1829,1872,1857
1843,1933,1910
1814,1745,1739
1808,1871,1808
1808,1935,1951
1867,1823,1933
1886,1728,1714
1839,1846,1773
1808,1859,1907
1838,1929,1909
1913,1733,1728
1956,1861,1751
1794,1763,1883
1701,1798,1842
1789,1847,1806
1902,2023,1840
1921,1932,1867
1817,1872,1874
1846,1994,1829
1869,1706,1787
1808,1666,1891
1775,1790,1870
1887,1783,1753
1920,1904,1804
1920,1929,1867
1776,1866,1886
1782,1959,1857
1938,2042,1812
1886,1678,1813
1757,1649,1776
1806,1775,1872
1885,1894,1831
1885,1958,1871
1839,1879,1843
1885,1691,1680
1793,1757,1755
1779,1940,1966
1775,1862,1879
1839,1755,1729
1866,1756,1799
1872,1840,1946
1858,1997,1808
1852,1924,1734
1798,1719,1760
1750,1737,1892
1767,1943,1883
1865,1921,1858
1910,1872,1839
1887,1694,1690
1870,1686,1769
1838,1744,1827
1744,1897,1839
1754,2038,1933
1851,1859,1839
