1787,1842,1757
1781,1845,1759
1838,1901,1862
1846,1905,1859
1828,1874,1794
1829,1887,1808
1824,1909,1843
1811,1826,1830
1792,1862,1763
1811,1834,1781
1845,1858,1862
1858,1923,1867
1838,1869,1801
1827,1872,1802
1840,1901,1860
1835,1879,1850
1803,1855,1776
1842,1888,1808
1872,1908,1885
1838,1870,1843
1856,1895,1817
1870,1956,1831
1837,1859,1835
1792,1807,1797
1783,1817,1748
1822,1865,1792
1869,1903,1871
1847,1874,1851
1814,1840,1779
1839,1895,1808
1868,1856,1859
1855,1853,1849
1837,1836,1803
1856,1886,1820
1847,1859,1861
1821,1797,1823
1806,1826,1765
1829,1842,1802
1856,1873,1870
1872,1910,1870
1885,1892,1847
1847,1851,1812
1823,1887,1830
1820,1808,1811
1830,1797,1776
1881,1858,1808
1935,1904,1889
1947,1871,1872
1916,1809,1779
1935,1825,1790
1978,1889,1857
2001,1856,1867
2016,1872,1825
2018,1867,1814
2035,1840,1869
2026,1820,1838
2013,1813,1776
2047,1841,1811
2083,1856,1869
2081,1842,1851
2077,1837,1792
2128,1885,1841
2098,1826,1853
2088,1819,1824
2099,1808,1776
2142,1804,1821
2165,1856,1886
2127,1857,1844
2092,1769,1767
2117,1856,1792
2163,1819,1868
2165,1855,1865
2130,1818,1796
2147,1859,1806
2176,1863,1871
2178,1871,1853
2105,1796,1755
2111,1796,1774
2149,1836,1850
2173,1849,1863
2159,1844,1801
2158,1853,1814
2175,1859,1872
2155,1825,1839
2142,1837,1788
2143,1807,1791
2171,1853,1872
2213,1894,1909
2102,1795,1750
2095,1782,1732
2151,1801,1841
2163,1819,1851
2141,1886,1786
2133,1825,1789
2186,1887,1885
2157,1846,1863
2110,1776,1773
2135,1839,1803
2211,1990,1920
2117,1843,1831
2064,1760,1737
2080,1789,1742
2128,1842,1848
2150,1859,1862
2096,1809,1774
2097,1823,1787
2118,1840,1856
2113,1829,1848
2113,1840,1808
2102,1830,1805
2122,1890,1868
2128,1840,1863
2079,1807,1778
2032,1757,1745
2069,1821,1827
2089,1812,1840
2111,1840,1823
2107,1841,1830
2076,1808,1842
2069,1806,1837
2064,1718,1786
2103,1847,1825
2107,1863,1878
2078,1830,1866
2030,1801,1767
2009,1776,1755
2064,1818,1845
2069,1806,1861
2045,1811,1807
2032,1847,1797
2077,1894,1872
2037,1858,1843
2027,1815,1798
2014,1790,1785
2041,1833,1858
2022,1771,1841
2010,1808,1781
2009,1837,1798
2033,1840,1872
2057,1846,1872
2003,1820,1803
1981,1819,1791
2014,1835,1856
2024,1835,1867
2011,1842,1819
1986,1833,1807
1989,1839,1855
1951,1791,1808
1953,1789,1763
2000,1834,1813
1982,1813,1841
1965,1811,1841
1968,1825,1803
1981,1835,1808
2000,1857,1875
1991,1840,1866
1956,1822,1790
1984,1850,1813
2000,1867,1882
1967,1837,1859
1951,1822,1793
1995,1868,1837
1997,1872,1886
1967,1843,1851
1925,1809,1763
1954,1834,1803
1963,1843,1852
1941,1832,1841
1956,1851,1811
1907,1814,1778
1930,1822,1833
1942,1825,1853
1936,1831,1811
1939,1845,1812
1963,1854,1872
1946,1840,1858
1935,1835,1808
1937,1853,1823
1946,1852,1881
1936,1841,1863
1929,1853,1815
1957,1887,1841
1963,1892,1886
1907,1822,1830
1859,1776,1744
1910,1820,1795
1953,1844,1863
1956,1855,1872
1938,1854,1826
1925,1842,1808
1936,1855,1858
1937,1840,1850
1927,1838,1798
1934,1844,1814
1967,1877,1889
1958,1866,1875
1931,1840,1797
1906,1825,1783
1933,1840,1846
1927,1830,1846
1906,1821,1785
1931,1851,1799
1967,1881,1875
1984,1893,1901
1935,1863,1811
1866,1798,1757
1904,1820,1815
1930,1830,1838
1915,1833,1788
1936,1856,1825
1953,1874,1886
1926,1857,1856
1887,1822,1775
1904,1845,1797
1956,1884,1882
1958,1881,1878
1879,1823,1779
1887,1836,1779
1904,1840,1840
1904,1824,1843
1887,1811,1787
1918,1839,1814
1965,1889,1904
1935,1857,1882
1872,1821,1778
1871,1823,1773
1923,1859,1872
1918,1857,1873
1882,1840,1799
1870,1830,1781
1901,1849,1851
1891,1836,1859
1885,1825,1801
1886,1850,1808
1902,1867,1861
1873,1847,1840
1863,1834,1786
1890,1855,1811
1904,1871,1875
1886,1858,1865
1881,1857,1810
1887,1872,1819
1875,1870,1857
1871,1851,1850
1863,1846,1794
1847,1825,1790
1900,1872,1881
1859,1834,1854
1803,1793,1759
1813,1813,1770
1857,1850,1844
1870,1855,1854
1856,1844,1791
1872,1859,1808
1890,1881,1883
1851,1843,1845
1831,1831,1792
1843,1847,1799
1874,1867,1871
1887,1872,1876
1834,1834,1794
1858,1872,1819
1862,1879,1865
1840,1851,1840
1822,1839,1774
1846,1855,1790
1872,1877,1861
1835,1840,1841
1792,1818,1775
1808,1839,1781
1847,1872,1865
1861,1883,1872
1833,1859,1803
1808,1833,1789
1828,1859,1856
1839,1871,1859
1824,1862,1803
1840,1894,1821
1847,1901,1872
1855,1913,1874
1808,1853,1787
1746,1808,1736
1798,1847,1822
1839,1871,1854
1835,1870,1805
1825,1877,1808
1811,1880,1846
1795,1856,1829
1790,1840,1776
1801,1871,1802
1834,1887,1869
1854,1904,1890
1788,1845,1781
1777,1822,1758
1799,1855,1872
1814,1869,1876
1791,1854,1747
1808,1869,1837
1839,1893,1869
1801,1850,1869
1777,1831,1767
1806,1857,1845
1821,1872,1847
1823,1869,1861
1824,1874,1787
1826,1900,1857
1790,1866,1794
1747,1823,1808
1753,1814,1750
1791,1851,1843
1846,1907,1875
1840,1911,1872
1766,1824,1749
1742,1807,1759
1762,1823,1828
1785,1850,1862
1758,1835,1775
1778,1853,1792
1807,1867,1866
1808,1867,1857
1790,1861,1805
1783,1867,1807
1783,1842,1840
1767,1817,1808
1761,1825,1761
1787,1860,1797
1801,1878,1849
1815,1895,1885
1791,1872,1796
1732,1807,1745
1750,1854,1779
1797,1877,1856
1738,1795,1750
1744,1808,1750
1797,1865,1858
1801,1867,1841
1767,1840,1779
1775,1844,1771
1794,1872,1869
1800,1878,1869
1762,1847,1771
1776,1857,1799
1797,1861,1859
1776,1841,1837
1758,1824,1797
1786,1866,1813
1819,1890,1891
1784,1838,1790
1754,1818,1762
1776,1840,1807
1758,1825,1830
1776,1840,1877
1754,1821,1797
1783,1844,1823
1797,1856,1834
1790,1840,1875
1764,1827,1763
1787,1847,1831
1810,1867,1886
1808,1854,1904
1761,1833,1793
1773,1839,1791
1792,1857,1863
1808,1872,1879
1791,1855,1808
1780,1841,1797
1751,1806,1825
1755,1808,1777
1770,1815,1798
1783,1835,1799
1811,1856,1875
1823,1872,1906
1742,1808,1790
1734,1808,1782
1787,1857,1859
1776,1834,1845
1771,1838,1803
1767,1854,1803
1785,1840,1856
1785,1830,1856
1777,1841,1824
1768,1823,1805
1760,1821,1854
1769,1824,1835
1750,1808,1794
1767,1824,1798
1787,1837,1808
1776,1826,1845
1786,1838,1803
1797,1843,1839
1769,1824,1831
1749,1809,1857
1747,1817,1793
1773,1840,1793
1817,1863,1869
1787,1823,1841
1749,1802,1771
1755,1811,1786
1808,1855,1871
1821,1863,1878
1762,1822,1779
1744,1821,1824
1788,1844,1889
1750,1795,1842
1749,1790,1779
1787,1841,1804
1833,1883,1923
1771,1822,1814
1708,1775,1775
1739,1803,1805
1799,1847,1890
1807,1840,1906
1783,1842,1814
1773,1833,1819
1776,1826,1885
1747,1799,1830
1741,1793,1808
1763,1830,1864
1757,1809,1840
1756,1807,1859
1750,1807,1818
1792,1853,1851
1792,1838,1792
1744,1789,1818
1744,1783,1776
1781,1822,1805
1808,1840,1857
1779,1825,1831
1775,1849,1823
1783,1835,1807
1779,1815,1849
1791,1824,1816
1806,1856,1837
1776,1821,1799
1762,1808,1834
1776,1811,1815
1779,1835,1808
1783,1837,1822
1781,1828,1840
1776,1821,1840
1783,1843,1808
1793,1842,1818
1802,1841,1867
1793,1837,1851
1775,1825,1806
1776,1835,1806
1802,1850,1861
1810,1863,1867
1814,1869,1830
1755,1808,1812
1774,1837,1881
1786,1839,1905
1758,1808,1791
1765,1836,1807
1803,1858,1872
1797,1849,1865
1753,1805,1770
1757,1821,1786
1808,1863,1854
1802,1863,1863
1738,1797,1766
1766,1824,1840
1811,1869,1857
1775,1839,1830
1744,1802,1755
1781,1834,1798
1829,1885,1895
1811,1851,1878
1756,1795,1776
1776,1831,1795
1826,1887,1874
1781,1840,1840
1751,1808,1770
1776,1837,1801
1823,1875,1887
1833,1891,1886
1765,1827,1785
1737,1813,1753
1781,1840,1837
1792,1840,1849
1759,1808,1774
1773,1825,1786
1807,1856,1859
1808,1859,1859
1777,1827,1782
1787,1847,1797
1794,1846,1850
1791,1838,1843
1776,1840,1791
1806,1864,1826
1840,1901,1887
1765,1855,1842
1723,1808,1747
1789,1825,1793
1872,1930,1904
1774,1872,1842
1698,1790,1744
1795,1810,1795
1828,1866,1875
1847,1847,1854
1795,1834,1763
1716,1809,1775
1838,1840,1854
1805,1844,1855
1826,1824,1804
1808,1809,1823
1874,1877,1885
1777,1878,1830
1796,1856,1760
1782,1898,1808
1843,1867,1871
1857,1882,1867
1803,1877,1774
1871,1935,1821
1824,1830,1791
1747,1831,1862
1741,1840,1824
1808,1845,1783
1849,1859,1828
1731,1891,1862
1700,1879,1814
1729,1875,1825
1754,1883,1861
1798,1891,1867
1795,1924,1852
1787,1908,1845
1808,1925,1885
1748,1854,1819
1739,1855,1748
1779,1872,1808
1840,1997,1920
1818,1901,1905
1787,1875,1806
1787,1863,1783
1787,1914,1875
1811,1956,1874
1762,1891,1777
1775,1898,1777
1840,2074,1900
1809,1943,1842
1765,1763,1777
1831,1819,1835
1846,1857,1872
1824,1847,1798
1767,1860,1718
1808,1931,1854
1878,1965,1952
1809,1855,1829
1761,1854,1673
1702,1841,1741
1759,1851,1872
1843,1895,1902
1774,1920,1821
1857,2094,1820
1763,1905,1831
1776,1710,1796
1789,1759,1777
1874,1892,1845
1876,1981,1903
1792,1872,1837
1813,1840,1773
1805,1898,1838
1933,1856,1878
1892,1873,1863
1873,1822,1754
1778,1788,1714
1789,1840,1839
1922,1931,1958
1883,1876,1855
1836,1858,1861
1895,1890,2160
1808,1817,1891
1760,1826,1560
1813,1855,1679
1887,1872,1865
1868,1897,1837
1797,1763,1722
1837,1786,1792
1992,1859,1886
1818,1827,1837
1795,1715,1741
1808,1744,1731
1855,1904,1824
1811,1873,1794
1809,1840,1753
1872,1890,1821
1890,1899,1875
1847,1898,1857
1839,1903,1815
1837,1913,1781
1861,1938,1849
1904,1933,1883
1814,1924,1744
1782,1934,1753
1825,1984,1915
1878,2028,1846
1840,1999,1744
1843,2010,1758
1874,2077,1860
1802,2003,1792
1824,1982,1712
1797,2023,1790
1840,2004,1862
1814,2001,1824
1831,2055,1780
1860,2096,1807
1808,2128,1872
1879,2097,1863
1872,2064,1776
1807,2112,1794
1887,2192,1890
1874,2193,1881
1891,2156,1789
1845,2173,1798
1840,2197,1872
1847,2214,1872
1887,2207,1808
1866,2237,1838
1856,2256,1887
1850,2189,1863
1840,2188,1792
1859,2251,1826
1846,2224,1856
1840,2197,1847
1840,2207,1818
1815,2238,1814
1861,2256,1882
1834,2206,1859
1839,2182,1790
1859,2226,1836
1872,2261,1873
1859,2526,1887
1836,2277,1801
1872,1957,1806
1842,1991,1853
1837,2082,1822
1850,2129,1782
1855,2183,1828
1910,2218,1915
1862,2183,1885
1797,2128,1791
1822,2160,1821
1840,2166,1877
1882,2167,1890
1893,2154,1846
1869,2162,1840
1824,2128,1856
1793,2097,1830
1760,2083,1779
1834,2122,1826
1872,2160,1920
1867,2109,1877
1791,2093,1801
1855,2134,1831
1882,2171,1919
1824,2085,1856
1783,2074,1778
1808,2065,1802
1840,2033,1872
1835,2043,1855
1828,2065,1820
1839,2068,1833
1875,2080,1904
1849,2065,1882
1814,2070,1808
1820,2074,1815
1854,2086,1888
1839,2043,1879
1779,1984,1776
1793,2035,1790
1851,2178,1892
1840,1989,1856
1813,1886,1797
1816,1927,1817
1829,1964,1872
1820,1983,1870
1819,1978,1819
1828,1984,1837
1846,2003,1916
1842,1978,1898
1831,1968,1805
1817,1987,1787
1828,1991,1841
1831,1968,1847
1847,1978,1837
1851,1984,1840
1825,1961,1861
1813,1933,1840
1809,1925,1791
1863,1978,1843
1871,1984,1904
1805,1920,1834
1787,1901,1763
1829,1931,1821
1865,1969,1904
1821,1914,1843
1778,1887,1764
1835,1951,1822
1855,1937,1892
1845,1904,1872
1823,1873,1811
1820,1904,1812
1840,1931,1872
1859,1943,1883
1814,1894,1792
1820,1872,1809
1849,1925,1889
1847,1905,1871
1842,1886,1808
1829,1864,1810
1841,1879,1860
1819,1867,1840
1810,1867,1801
1827,1904,1831
1862,1898,1902
1857,1859,1888
1828,1852,1799
1835,1871,1802
1840,1861,1851
1830,1863,1856
1808,1845,1793
1858,1891,1847
1862,1893,1894
1823,1845,1846
1789,1801,1770
1811,1823,1801
1860,1859,1883
1889,1887,1912
1809,1813,1801
1802,1831,1805
1851,1863,1887
1859,1856,1887
1822,1827,1811
1840,1856,1835
1856,1875,1885
1847,1855,1867
1840,1842,1824
1857,1858,1856
1837,1840,1875
1845,1840,1858
1831,1824,1788
1840,1833,1814
1885,1859,1904
1850,1820,1872
1808,1794,1783
1840,1840,1821
1855,1840,1886
1839,1831,1857
1831,1841,1804
1840,1821,1818
1869,1837,1884
1853,1826,1872
1843,1833,1824
1859,1845,1843
1863,1854,1891
1843,1823,1862
1809,1843,1791
1826,1917,1815
1853,1783,1888
1843,1726,1879
1808,1759,1791
1843,1815,1820
1856,1833,1872
1874,1843,1897
1837,1794,1808
1827,1794,1811
1852,1829,1871
1853,1842,1873
1817,1823,1795
1846,1814,1829
1857,1806,1872
1858,1817,1872
1863,1826,1841
1873,1823,1846
1838,1766,1849
1839,1787,1854
1861,1823,1840
1808,1807,1782
1819,1823,1823
1840,1807,1861
1841,1831,1818
1849,1851,1822
1851,1910,1853
1828,1695,1822
1834,1663,1785
1854,1753,1822
1848,1808,1898
1840,1823,1858
1851,1815,1821
1841,1776,1807
1837,1758,1838
1829,1769,1845
1811,1787,1807
1849,1840,1830
1863,1828,1899
1842,1791,1872
1803,1781,1779
1808,1771,1798
1833,1794,1860
1822,1765,1856
1826,1826,1806
1846,1776,1815
1827,1753,1863
1829,1862,1862
1818,1839,1794
1829,1665,1798
1854,1689,1856
1845,1779,1863
1840,1776,1809
1856,1744,1819
1867,1810,1887
1842,1794,1872
1829,1726,1809
1850,1765,1818
1870,1807,1889
1821,1786,1833
1785,1687,1751
1827,1745,1813
1869,1869,1903
1835,1813,1860
1814,1718,1776
1813,1750,1775
1851,1792,1840
1850,1757,1840
1818,1728,1790
1840,1734,1808
1872,1817,1876
1857,1803,1872
1837,1786,1808
1840,1761,1810
1867,1793,1887
1845,1808,1858
1819,1744,1789
1872,1824,1840
1867,1823,1871
1793,1728,1808
1792,1723,1765
1840,1808,1811
1884,1914,1892
1866,1830,1865
1823,1748,1761
1841,1721,1784
1859,1787,1857
1859,1840,1869
1840,1763,1794
1835,1738,1794
1850,1799,1865
1845,1766,1860
1838,1729,1797
1840,1751,1798
1856,1818,1851
1867,1856,1862
1871,1788,1808
1874,1799,1805
1867,1831,1842
1870,1840,1867
1835,1760,1770
1896,1893,1785
2103,2017,1863
1875,1555,1796
1879,1779,1764
1935,2081,1798
1942,2199,1911
1909,1337,1813
1938,1375,1673
1828,1712,1802
1776,1807,1970
1749,2007,1911
1665,1675,1738
1842,1661,1794
1863,1726,1776
1806,1691,1757
1974,2190,1744
1648,1441,1674
1479,1330,1857
1583,1675,1898
1616,2064,1821
1520,1852,1681
1502,1571,1706
1421,1281,1657
1402,1703,1763
1361,1399,1738
1489,1302,1752
1453,1562,1925
1494,1795,1728
1423,1529,1790
1495,1261,1815
1366,1260,1726
1271,1479,1730
1180,1355,1763
1199,1404,1759
1133,1509,1905
1290,1489,1759
1169,909,1596
1175,1418,1787
1228,1590,1776
1221,1006,1639
1196,1100,1665
1426,1452,1840
1230,1587,1846
1326,1507,1776
1436,921,1685
1275,944,1598
1040,1219,1814
987,1168,1777
1157,1179,1729
1292,1200,1758
1310,1342,1808
1349,1695,1735
1258,1131,1680
1149,861,1842
1276,1072,1843
1340,1248,1744
1353,1524,1774
1167,1100,1718
1102,917,1750
1198,1106,1712
1238,1382,1743
1313,1397,1814
1289,1361,1808
1289,1243,1759
1232,817,1709
1232,1088,1868
1374,1807,1863
1374,1101,1742
1348,1154,1787
1290,1152,1845
1360,934,1757
1488,1006,1603
1329,1257,1739
1438,1252,1822
1363,1191,1839
1250,1213,1776
1249,1252,1787
1361,1386,1870
1415,1183,1877
1456,1072,1743
1331,1072,1729
1303,1082,1821
1360,1184,1863
1370,1367,1822
1437,1399,1775
1386,1247,1858
1361,1062,1833
1387,929,1712
1471,879,1717
1527,1209,1914
1476,1361,1911
1615,1071,1662
1664,1168,1766
1758,1193,1875
1691,1245,1807
1170,1251,1902
1188,1392,1985
1360,1181,1902
1478,1237,1872
1475,1239,1791
1529,1229,1822
1493,1530,1847
1486,1346,1874
1445,1266,1741
1458,976,1723
1535,1222,1872
1593,1646,1889
1531,1387,1776
1520,1035,1840
1563,1168,1761
1627,1452,1810
1943,1478,1778
1667,1361,1763
1511,1122,1777
1617,1255,1793
1513,1483,1875
1456,1510,1973
1568,1371,1872
1511,1319,1807
1504,1562,1781
1554,1570,1787
1499,1296,1808
1559,1338,1808
1600,1615,1821
1597,1575,1808
1615,1600,1904
1574,1327,1840
1616,1570,1774
1688,1447,1794
1851,1391,1805
1669,1360,1827
1600,1535,1847
1666,1664,1840
1644,1566,1807
1731,1364,1763
1814,1517,1795
1711,1591,1815
1472,1566,1925
1512,1793,1957
1648,1663,1845
1711,1703,1859
1648,1492,1908
1622,1485,1808
1649,1491,1743
1674,1862,1826
1667,1595,1872
1652,1335,1719
1682,1692,1755
1821,2022,1826
1797,1571,1903
1731,1331,1821
1758,1754,1808
1753,1765,1842
1755,1520,1793
1931,1686,1773
1750,1681,1809
1631,1725,1842
1653,1879,1914
1780,1707,1876
1613,1809,1813
1571,1595,1759
1709,1639,1815
1803,1861,1851
1744,1810,1823
1717,1893,1893
1841,2288,1943
1748,1571,1865
1610,1213,1695
1699,1621,1743
1842,1936,1931
1835,1849,1903
1755,1711,1754
1834,1749,1791
1957,1802,1837
1908,1968,1803
1761,1912,1747
1741,1619,1742
1662,1781,1914
1745,1874,1956
1693,1959,1873
1787,1978,1840
1827,1846,1826
1755,1832,1850
1811,1914,1815
1807,1735,1841
1808,1866,1919
1817,1963,1901
1906,2308,1879
1771,1634,1667
1745,1482,1771
1821,1710,1877
1970,1982,1872
1910,1894,1827
1958,1904,1834
1951,1938,1825
1871,1868,1891
1721,1857,1775
1732,2030,1885
1861,2009,1920
1817,1869,1799
1883,1926,1892
1899,2074,1921
1789,2066,1786
1730,1963,1783
1759,1680,1797
1872,1830,1883
1861,1881,1888
1848,2013,1790
1874,1938,1813
1959,2005,1908
1885,1959,1887
1822,1942,1778
1891,1787,1791
1974,1776,1841
1931,1874,1808
1904,1952,1786
2007,2165,1904
1843,2140,1968
1938,1877,1942
1710,1749,1745
1707,1856,1773
1815,2169,1873
1898,2068,1902
1859,1815,1791
1840,1861,1787
1875,2022,1846
1903,2027,1870
1888,1952,1827
1903,1898,1808
1888,2009,1873
1920,2025,1856
1898,1934,1803
1968,1895,1779
2065,2036,1941
1914,2075,1936
1841,1945,1806
1925,1986,1826
1875,2226,2001
1874,1931,1904
1898,1882,1721
1859,1963,1791
1869,2039,1899
1843,1902,1831
1872,2023,1850
1902,2071,1878
1919,1980,1899
2001,1914,1895
1891,1939,1765
1981,1969,1787
1946,2037,1898
1906,2167,1904
1908,1933,1826
1954,1931,1777
1849,2016,1841
1893,2145,1937
1945,2099,1913
1877,2017,1841
1850,2102,1806
1840,1873,1811
1866,1866,1806
1971,2000,1818
1981,2159,1990
1904,2063,1904
1857,1962,1757
1971,1970,1794
2133,2090,1870
1926,1946,1826
1846,1936,1752
1967,2110,1815
1983,2309,1985
1877,1878,1904
1821,1790,1772
1845,2032,1777
1927,2260,1949
1875,2119,1867
1869,1904,1728
1852,1884,1803
1904,2109,1924
1936,2192,1936
1920,1977,1858
1981,2060,1811
1949,2090,1922
1971,1991,1823
1959,1962,1754
2085,1995,1834
1902,2047,1934
1869,2047,1905
1873,2091,1765
1856,2128,1842
1868,2070,1906
1887,2015,1897
1978,2101,1759
1929,2146,1856
1949,1909,1883
1908,2140,1878
1921,2093,1827
1900,2083,1850
1860,1903,1867
1904,1935,1843
1925,2110,1807
1904,2015,1811
1988,1968,1856
2000,2045,1855
1982,2141,1823
2031,2131,1734
1964,2079,1865
1871,2207,2003
1936,2065,1808
1860,1839,1744
1821,1863,1807
1862,2159,1890
1904,2114,1821
1975,2069,1908
1955,2255,1963
1916,2039,1813
1859,1901,1739
1990,1939,1806
2000,1984,1889
1874,2014,1797
1840,1988,1723
2011,2128,1826
2010,2176,1991
1959,2009,1844
1891,1856,1776
1823,1926,1770
1872,2066,1871
1920,2075,1857
1936,2160,1790
1860,2089,1791
1906,1952,1805
1987,2002,1814
1897,1969,1817
1837,1979,1779
1916,1984,1796
2006,2018,1895
1978,2059,1830
1926,2131,1808
1936,1894,1879
1871,2058,1890
1803,1971,1751
1875,1925,1765
1975,2127,1886
1968,2142,1901
1875,1712,1751
1831,1806,1712
1925,1994,1841
1968,2114,1929
1921,1935,1809
1936,1999,1836
1856,2018,1853
1840,2007,1866
1881,2056,1802
1946,2177,1847
1983,2166,1939
1904,1872,1863
1910,1774,1765
1920,1817,1878
1811,1999,1860
1894,2165,1843
2029,1963,1746
1952,1776,1713
1837,1932,1866
1908,2032,1927
1855,2032,1844
1877,1966,1744
2021,1995,1855
1943,2038,1903
1904,1811,1746
1853,1935,1776
1868,1950,1868
1866,2096,1936
1990,2021,1815
1998,1904,1787
1905,1925,1939
1770,1905,1825
1797,1923,1685
1895,1799,1718
1950,1991,1891
1955,2134,1869
1900,1827,1806
1834,1744,1747
1878,1918,1837
1999,1935,1866
1986,1856,1746
1984,2055,1819
1863,2132,1872
1859,1850,1869
1966,1862,1851
2010,1939,1874
1781,1969,1815
1727,1826,1770
1875,1822,1744
1972,1931,1791
1891,1776,1856
1837,1920,1872
1856,1943,1886
1847,1987,1809
1926,2006,1821
2034,2032,1781
1975,1924,1766
1872,1791,1904
1857,1787,1915
1938,1802,1881
1887,1852,1775
1920,2012,1853
2006,2024,1950
1879,1869,1796
1696,1774,1714
1787,1804,1821
2059,1910,1950
1915,1939,1841
1790,1936,1776
1808,1893,1753
1872,1767,1823
1936,1841,1743
2016,1987,1793
1901,1985,1830
1789,1879,1913
1889,2086,1852
1891,1659,1806
1882,1680,1814
2013,1908,1929
1844,2066,1859
1778,1906,1717
1831,1859,1803
1947,1793,1903
1878,1682,1805
1909,1776,1823
2067,1904,1770
1863,1920,1923
1973,2118,1919
1904,1669,1703
1714,1623,1776
1819,1863,1942
1872,1996,1922
1961,1899,1826
1824,1859,1745
1790,1733,1819
1840,1791,1834
1872,1847,1779
1963,2045,1791
1926,1920,1832
1856,1689,1827
1851,1819,1792
1888,1909,1794
1921,1714,1840
2030,1781,1819
1988,1969,1773
1964,2016,1887
1694,1700,1897
1690,1645,1831
1808,1721,1729
1945,1898,1833
1985,2070,1933
1901,1918,1829
1877,1961,1806
1964,1829,1803
1867,1599,1809
1812,1701,1839
1823,1792,1819
1998,1918,1899
1861,2035,1797
1765,2039,1845
1813,1714,1747
1886,1520,1707
2032,1713,1847
1856,1791,1819
1855,1863,1808
1906,2172,1897
1954,1744,1868
1909,1631,1842
1789,1691,1783
1813,1981,1808
1796,1936,1836
1859,1696,1879
1936,1689,1776
1867,1733,1746
1890,1878,1759
1732,1911,1819
1744,1872,1823
1868,1855,1837
1918,1849,1877
1981,1842,1840
1963,1680,1752
1813,1739,1861
1776,1858,1904
1815,1904,1881
1897,1849,1770
1920,1607,1719
1966,1623,1748
1937,1753,1790
1872,1885,1771
1817,1747,1787
1895,1809,1938
1902,1850,1935
1898,2021,1830
1808,1990,1757
1744,1774,1841
1799,1687,1827
1819,1630,1743
1840,1771,1781
1964,1890,1904
1897,1916,1909
1871,1920,1843
1878,1697,1801
1898,1666,1821
2031,1712,1767
2014,1775,1711
1836,1910,1822
1786,1886,1939
1797,1728,1955
1785,1817,1877
1908,1835,1735
2034,1722,1781
1811,1872,1915
1742,1815,1837
1775,1653,1697
1790,1676,1776
1798,1687,1835
1923,1841,1798
1939,2076,1837
1907,1855,1887
1815,1695,1817
1723,1671,1759
1840,1701,1822
2026,1976,1901
1867,1745,1823
1831,1777,1834
1925,1820,1827
1915,1809,1856
1823,1797,1856
1849,1796,1722
1874,1743,1725
1813,1808,1843
1872,1712,1787
1739,1776,1849
1823,1780,1803
1861,1693,1885
1921,1849,1907
1803,2320,1915
1742,1826,1789
1811,1378,1763
1891,1600,1802
1840,1757,1792
1853,1776,1822
1985,2127,1850
1873,1866,1776
1685,1535,1764
2042,1675,1749
1806,1616,1853
1648,1637,1872
1733,1743,1851
1858,1877,1840
2007,1956,1813
1867,2209,1856
1717,1719,1759
1741,1438,1767
1839,1586,1872
1902,1727,1894
1792,1871,1781
1785,2195,1789
1765,1631,1737
1814,1759,1818
1866,1818,1884
1842,1789,1856
1808,1810,1813
1829,1668,1750
1902,1745,1637
1895,1653,1779
2023,1578,1872
1872,1762,1873
1786,1785,1776
1776,1876,1855
1869,1654,1830
1824,1615,1792
1735,1727,1789
1840,1961,1821
1839,1942,1886
1998,1776,1829
1878,2123,1852
1775,1658,1790
1744,1517,1793
1818,1794,1819
1751,1765,1776
1829,1920,1805
1840,1717,1906
1948,1890,1885
1872,1756,1761
1935,1681,1755
1849,1602,1811
1808,1743,1856
1805,1801,1779
1969,1921,1802
1924,1953,1885
1776,1642,1862
1721,1691,1783
1872,1743,1812
1802,1731,1872
1872,1785,1918
1933,1904,1847
1862,2003,1797
1856,2145,1883
1806,1703,1857
1757,1394,1715
1791,1528,1718
1965,1990,1903
2023,2011,1907
1807,1822,1774
1839,1535,1710
1883,1802,1857
1770,2017,1926
1795,1584,1787
1814,1705,1806
1840,1895,1876
1872,1789,1922
2023,1873,1887
1887,1879,1760
1968,1911,1879
1872,1822,1926
1780,1839,1806
1839,1584,1729
1787,1683,1815
1909,1915,1878
1929,2257,1947
1841,2023,1838
1744,1535,1776
1815,1456,1750
1777,1676,1787
1923,1898,1882
1913,1871,1897
1916,1842,1842
1978,2015,1771
1815,1744,1772
1744,1630,1843
1792,1735,1786
1791,1891,1886
1840,1938,1899
1853,2038,1895
1771,1682,1813
1796,1904,1791
1829,1791,1776
1843,1715,1871
1873,1901,1926
1898,2005,1892
1857,1997,1839
1789,1698,1776
1809,1499,1735
1997,1921,1778
1921,1922,1791
1856,1646,1927
1980,1677,1836
1725,1801,1796
1744,1867,1879
1869,2019,1971
1999,2035,1840
1843,1738,1744
1694,1704,1783
1731,1712,1883
1840,1815,1904
1840,1975,1831
1814,1946,1837
1895,1923,1899
1869,1798,1825
1808,1837,1743
1837,1926,1791
1855,1761,1871
1857,1941,1898
1779,1744,1787
1843,1744,1808
1904,1696,1833
1853,1809,1858
1939,1879,1737
1858,1865,1789
1897,1871,1902
1891,1852,1887
1775,1773,1824
1687,1863,1829
1861,1959,1932
1890,1938,1935
1772,1883,1750
1772,1776,1744
1845,2003,1897
1873,1824,1871
1828,1872,1786
1840,1776,1779
1870,1808,1869
1915,1856,1856
1842,1893,1838
1834,1821,1838
1954,1983,1893
1978,1872,1821
1904,1609,1741
1810,1664,1726
1941,1856,1838
1902,1997,1950
1779,1997,1956
1817,1827,1808
1773,1795,1765
1771,1820,1817
1783,1847,1823
1883,1977,1867
1899,1872,1885
1815,1861,1826
1804,1792,1765
1856,1775,1769
1903,2245,1889
1915,1806,1811
1903,1779,1785
1854,1653,1854
1778,1699,1826
1872,1895,1750
1935,2031,1846
1972,1870,1846
1907,1757,1814
1706,1744,1824
1758,1761,1813
1827,1878,1807
1904,2122,1881
1925,1956,1901
1827,1835,1818
1861,1951,1812
1797,1911,1806
1817,1720,1814
1808,1733,1776
1840,1779,1773
1845,1895,1885
1829,1979,1876
1873,1959,1787
1936,1805,1739
1975,1887,1805
1951,1735,1807
1843,1813,1744
1910,1937,1871
1760,1876,1893
1691,1877,1802
1748,1828,1747
1872,1942,1822
1916,2064,1914
1828,1884,1872
1837,1802,1779
1879,1789,1789
1947,2041,1950
1834,2096,1802
1726,1677,1677
