1878,1390,1767
1891,1568,1892
1859,1524,1881
1887,1506,1791
1963,1623,1762
1873,1714,1858
1790,1371,1951
1809,1294,1765
1847,1466,1634
1895,1665,1754
1898,1663,1761
1873,1483,1840
2044,1753,1815
2006,1650,1773
1744,1461,2045
1708,1591,1942
1835,1601,1815
2026,1662,1808
1806,1666,1808
1719,1674,1822
1815,1807,1845
1871,1870,1814
1844,1643,1941
1790,1535,3655
1668,1666,1683
1599,1360,718
1622,1374,1285
1729,1529,1863
1812,1648,1931
1807,1693,1905
1789,1697,1791
1817,1766,1831
1863,1883,1829
1852,1747,1815
1781,1503,2070
1773,1535,1815
1761,1703,1817
1770,1786,1648
1776,1699,2128
1751,1659,1680
1786,1680,1680
1813,1726,1765
1808,1878,1843
1819,1827,1841
1802,1616,1835
1831,1706,1821
1836,1838,1817
1969,1935,1852
2032,1813,1907
1650,1643,2032
1609,1808,4095
1731,1879,4095
1799,1714,4095
1792,1693,2909
1743,1712,1585
1743,1765,1326
1813,1872,1651
1852,1951,1850
1794,1761,1872
1759,1719,1837
1805,1821,1819
1851,1947,1797
1825,1941,1826
1826,1969,2039
1744,1675,2006
1729,1655,1535
1754,1819,1811
1749,1941,1791
1719,1685,1899
1690,1619,1963
1687,1685,1424
1744,1814,1535
1869,1961,1788
1834,1860,1881
1590,1677,1842
1621,1701,1839
1781,1831,1825
1831,1818,1853
1797,1838,1829
1796,1904,1840
1819,1938,1818
1823,1791,1834
1776,1785,1843
1766,1867,1874
1794,1875,1831
1831,1938,1838
1835,1936,1773
1808,1870,1706
1820,1854,1713
1829,1922,1790
1840,1947,1745
1808,1898,1707
1815,1941,1767
1847,1939,1776
1840,2135,1729
1790,1914,1615
1793,1777,1646
1840,1924,1754
1824,1955,1731
1832,1962,1680
1955,2160,1677
1826,1719,1655
1675,1697,1667
1685,1837,1690
1776,1964,1807
1837,2032,1750
1818,1967,1649
1791,1926,1614
1856,1969,1744
1875,1994,1713
2043,2256,1591
1678,1904,1570
1558,1648,1600
1680,1829,1716
1792,1953,1719
1893,1940,1600
1877,1977,1623
1706,1969,1725
1728,2160,1750
1856,2019,1607
1826,1797,1535
1648,1758,1682
1667,1907,1774
1769,2014,1666
1841,2015,1679
1850,2206,1781
1798,1945,1675
1680,1747,1690
1689,1813,1660
1717,1929,1742
1782,2010,1742
1713,1904,1585
1690,1936,1685
1733,2187,1762
1730,2021,1631
1642,1855,1577
1632,1921,1645
1616,1941,1711
1584,1990,1723
1553,1968,1658
1611,2005,1617
1598,1977,1713
1531,2064,2320
1472,1938,2963
1589,1799,1968
1535,1920,1686
1456,2128,1707
1520,2011,1818
1407,1981,1840
1296,1953,1847
1280,1677,1830
1402,1830,1857
1471,1984,1826
1495,1959,1797
1565,2070,1826
1565,2027,1830
1576,1977,1797
1611,1937,1785
1349,2081,1835
1104,1978,1893
1212,1776,1835
1458,1869,1870
1513,1874,2015
1370,2000,2025
1360,2158,1643
1381,1687,1505
1300,1609,1673
1202,1806,1826
1355,2059,1846
1494,2079,1887
1377,1946,1879
1348,1918,1822
1439,1805,1809
1423,1761,1878
1397,1909,1889
1382,2095,1834
1397,1934,1862
1520,1825,1874
1663,2171,1865
1555,1949,1803
1402,1943,1856
1306,1862,1978
1379,1910,1786
1568,1872,1646
1612,1919,1742
1450,2037,1889
1436,2140,1863
1415,1785,1671
1506,1792,1712
1408,1949,1877
1516,2109,1895
1442,2135,1761
1481,2210,1795
1559,1727,1765
1505,1535,1776
1504,1776,1727
1625,2055,1783
1591,2109,1890
1705,2115,1830
1594,1824,1647
1454,1807,1738
1461,1874,1846
1520,2067,1795
1473,1934,1713
1509,1922,1712
1616,2025,1879
1657,2261,1919
1578,2203,1763
1508,1680,1619
1520,1617,1729
1580,1785,1808
1618,2137,1841
1683,2446,1903
1724,1791,1751
1599,1605,1620
1459,1726,1616
1437,1953,1805
1690,2027,1886
1693,1936,1776
1520,1889,1709
1629,1971,1806
1521,1937,1839
1615,1911,1793
1638,1899,1709
1675,1989,1747
1667,2253,1872
1633,1893,1779
1610,1879,1735
1647,1869,1685
1705,1952,1828
1672,1968,1775
1648,1926,1667
1583,1687,1682
1695,1696,1778
1695,1838,1767
1629,1905,1742
1586,1975,1823
1648,2217,1933
1806,1981,1833
1773,1663,1667
1701,1757,1731
1597,1862,1958
1562,1891,1936
1614,1929,1846
1617,1932,1821
1731,2094,1903
1722,2369,2064
1631,1703,1984
1623,1415,1553
1613,1527,2153
1535,1670,2746
1332,1561,3022
988,1392,3178
651,972,0
688,954,592
1087,1306,1886
1226,1559,2256
1325,1274,1616
1376,1251,1578
1461,1456,1747
1519,1578,1872
1507,1665,1827
1559,1698,1812
1535,1630,1818
1597,1697,1822
1712,1755,2011
1594,1914,4095
1045,1341,1450
962,823,549
1203,1098,1237
1462,1392,3119
1226,1353,1662
1267,1471,1215
1410,1792,1607
1563,1690,1840
1479,1285,2031
1481,1374,1850
1535,1611,1701
1578,1706,1803
1535,1718,1792
1603,1776,1821
1719,1779,1853
1702,1733,1838
1662,1774,1816
1759,1895,1822
1778,1898,1826
1843,1883,1826
1803,2101,1828
1699,1980,1829
1751,1814,1828
1753,1725,1826
1767,1772,1833
1755,1853,1831
1762,1872,1828
1789,1893,1827
1840,1993,1826
1941,2141,1831
1954,2109,1830
1750,1803,1829
1859,1818,1829
1734,1893,1830
1768,1975,1835
1863,2271,1830
1819,2113,1828
1841,1781,1831
1822,1824,1826
1857,1931,1825
1794,1968,1826
1861,2114,1830
1871,2096,1850
1886,1941,1759
1930,1936,1702
1856,2126,1732
1838,2022,1686
1907,1936,1679
1885,1970,1649
1851,1998,1667
1925,2069,1678
1856,2137,1664
1780,2024,1642
1876,2182,1698
1840,1825,1642
1906,1834,1631
1904,1983,1606
1915,2026,1621
1872,2042,1650
1893,2059,1617
1841,2017,1519
1888,2043,1581
1859,2113,1647
1844,1999,1596
1872,1940,1514
1863,2032,1591
1951,2179,1664
1909,2134,1597
1846,1859,1460
1937,1907,1590
1946,2070,1715
1878,1955,1581
1908,1982,1528
1885,1984,1555
1887,2107,1605
1904,2065,1535
1884,1812,1410
1873,1879,1471
1883,2016,1642
1921,2064,1634
1895,2014,1535
1845,1974,1518
1950,2006,1553
1949,2064,1535
1925,2004,1523
1891,2103,1579
1891,2147,1593
1932,1827,1522
1840,1780,1501
1873,1854,1518
1861,1966,1587
1907,2000,1561
1939,1956,1493
1957,1971,1562
1937,2046,1627
1995,2027,1627
1872,1845,1457
1934,1930,1523
1952,1937,1589
1961,1967,1558
1961,1999,1583
1845,2018,1641
1913,1982,1650
1903,2032,1574
1887,2023,1499
1884,1879,1483
1935,1855,1588
1947,1879,1594
1968,2033,1591
1954,2177,1603
1923,1813,1623
1900,1775,1578
1899,1911,1519
1968,1918,1566
1938,1925,1610
1927,1889,1606
1984,1947,1555
1995,1936,1573
1917,1951,1663
1905,1954,1671
1949,1973,1581
1889,1941,1594
1909,2017,1664
1919,2109,1664
1878,1825,1522
1915,1750,1575
1945,1822,1638
1984,1951,1664
1936,1941,1606
1907,2112,1615
1931,1936,1651
1937,1785,1655
1887,1791,1582
1930,1875,1590
2045,2007,1662
1955,1891,1621
1819,1830,1610
1837,1911,1639
1915,1919,1687
1956,2023,1695
1977,2023,1632
1938,1785,1586
1914,1845,1654
1904,1862,1689
1943,1857,1667
1961,1885,1648
1949,1898,1680
1872,1879,1632
1869,1984,1630
1948,1889,1685
1967,1943,1727
1942,1797,1680
1943,1774,1609
1982,1887,1680
1918,1925,1741
1874,1918,1682
1907,1875,1649
1967,1889,1693
1985,1955,1777
1918,2026,1755
1860,1776,1645
1919,1775,1637
1967,1867,1751
1933,1866,1690
1877,1905,1645
1926,2021,1727
1965,1906,1775
1898,1746,1729
1920,1787,1650
2101,1844,1718
1905,1870,1764
1854,1936,1791
1947,2021,1796
1922,1983,1739
1883,1851,1687
1872,1710,1715
1897,1730,1695
1911,1829,1697
1958,1936,1775
1968,1911,1803
1984,1885,1764
1984,1881,1731
1891,1822,1743
1840,1790,1763
1904,1867,1760
1968,1934,1809
1968,1984,1813
1951,2019,1782
1855,1814,1673
1856,1734,1741
1909,1819,1834
1953,1862,1821
1957,1906,1774
1938,1890,1783
1919,1849,1806
1919,1834,1770
1907,1865,1744
1997,1951,1817
1942,1971,1829
1917,1917,1756
1913,1818,1773
1867,1750,1763
1927,1816,1817
1959,1894,1862
1882,1814,1776
1887,1783,1791
1987,1917,1904
2029,1958,1901
1926,1825,1772
1872,1877,1787
1897,1841,1824
1879,1794,1781
1852,1825,1741
1872,1772,1744
1949,1855,1843
1994,1872,1811
1902,2031,1836
1879,1931,1851
1887,1728,1845
1891,1696,1781
1914,1776,1806
1952,1851,1906
1934,2033,1913
1856,1835,1778
1863,1779,1712
1893,1715,1808
1963,1776,1894
1939,1840,1874
1967,1840,1782
1984,1895,1809
1839,1840,1904
1823,1814,1925
1918,1911,1847
1923,1947,1845
1875,1872,1879
1875,1715,1811
1937,1776,1872
1923,1847,1856
1900,1916,1845
1865,1776,1821
1852,1791,1789
1925,1919,1873
1946,1827,1932
1890,1750,1858
1862,1793,1773
1918,1902,1863
1979,1901,1968
1919,1856,1925
1870,1847,1823
1906,1747,1830
2046,1901,1873
1979,1829,1894
1796,1966,1879
1755,1604,1862
1837,1661,1863
1918,1837,1879
1922,1874,1863
1936,1919,1872
1934,1831,1904
1893,1787,1919
1869,1897,1853
1847,1854,1840
1862,1776,1872
1897,1837,1879
1925,1936,1834
1931,1847,1840
1919,1808,1918
1873,1689,1889
1815,1717,1799
1862,1761,1870
1946,1890,1998
1863,1838,1936
1822,1831,1823
1938,2022,1939
1971,1998,1979
1814,1695,1805
1815,1729,1759
1903,1808,1876
1872,1775,1907
1840,1821,1858
1883,1959,1827
1940,1918,1894
1882,1722,1915
1856,1768,1887
1886,1837,1843
1926,1895,1891
1921,1903,1939
1927,2047,1938
1887,1744,1818
1898,1853,1878
1878,1776,1901
1866,1744,1875
1883,1792,1810
1947,1881,1886
1936,1927,1929
2032,1871,1872
1899,1705,1766
1779,1710,1882
1779,1818,1933
1811,1831,1893
1858,1936,1863
1913,2131,1905
1906,1839,1889
1854,1567,1843
1840,1613,1802
1877,1786,1859
1911,1899,1915
1908,1906,1879
1883,1984,1829
1941,2126,1930
1947,1681,1908
1898,1527,1826
1919,1686,1799
1795,1794,1826
1791,1840,1878
1834,1884,1942
1845,1878,1830
1862,1957,1857
1867,1844,1902
1853,1757,1854
1859,1862,1802
1899,1975,1857
1933,1930,1982
1910,1957,1931
1894,1699,1797
1913,1673,1787
1847,1725,1899
1890,1872,1921
1782,1841,1840
1792,1698,1808
1967,1838,1898
1947,1918,1913
1767,1767,1824
1845,1854,1876
1872,2004,2032
1915,1995,1953
1875,1593,1745
1885,1643,1786
1830,1771,1889
1835,1840,1872
1826,1841,1808
1893,1872,1855
1902,1996,1936
1881,1828,1899
1823,1690,1791
1826,1811,1840
1891,1904,1920
1933,1873,1886
1888,1904,1786
1821,1715,1814
1871,1770,1866
1885,1916,1913
1881,1754,1815
1820,1728,1799
1851,1872,1904
1890,1921,1953
1882,1936,1869
1894,1665,1808
1943,1723,1869
1870,1829,1886
1793,1891,1858
1824,1888,1870
1847,1840,1855
1814,1785,1780
1829,1938,1821
1867,2135,1924
1880,1738,1918
1950,1667,1847
1787,1616,1750
1788,1731,1819
1849,1882,1919
1889,1859,1904
1901,1803,1808
1829,1895,1842
1858,1808,1904
1846,2000,1889
1890,2032,1809
1915,1665,1810
1840,1731,1909
1824,1803,1894
1810,1731,1797
1872,1791,1855
1935,1892,1925
1878,2000,1891
1887,2031,1878
1900,1951,1904
1856,1712,1879
1808,1677,1817
1809,1746,1791
1856,1947,1845
1903,2033,1936
1886,1849,1873
1865,1711,1731
1894,1793,1829
1930,1888,1908
1904,1981,1926
1806,1845,1835
1791,1722,1857
1933,1920,2010
1894,1999,1907
1781,1675,1727
1844,1753,1829
1898,1894,1935
1872,2000,1894
1831,1933,1765
1872,1587,1787
1923,1742,1932
1854,1830,1894
1823,1923,1783
1904,1933,1871
2043,2043,1878
1854,1843,1927
1709,1726,1799
1779,1681,1802
1856,1829,1893
1918,1829,1919
1827,1849,1860
1789,1959,1870
1856,1840,1878
1834,1898,1840
1838,1943,1831
1894,1853,1850
1950,1787,1872
1823,1744,1888
1751,1794,1845
1872,1879,1808
1943,1923,1834
1895,1693,1840
1857,1853,1793
1910,1793,1798
1838,1821,1902
1760,1828,1923
1904,1887,1920
1833,2076,1923
1824,1824,1846
1845,1670,1781
1988,1821,1717
1889,1965,1827
1822,1910,1957
1941,1920,1885
1805,1919,1859
1858,1610,1817
1829,1755,1825
1776,1808,1803
1827,1919,1826
1803,2176,1936
1753,1664,1862
1920,1694,1788
1919,1810,1776
1855,1788,1854
1787,1856,1939
1767,2085,1938
1822,2141,1882
1850,1558,1754
2034,1583,1782
1862,1904,1831
1875,2113,1833
1755,1639,1822
1646,1593,1818
1792,1872,1844
1939,1987,1808
1994,2037,1847
2073,1629,1754
1725,1727,1865
1535,1759,1865
1759,1804,1870
1946,2446,1943
1816,1943,1837
1663,1277,1681
1745,1525,1822
1897,1969,1983
1791,1885,1809
1746,1872,1763
1802,1979,1839
1869,1798,1821
1887,1745,1751
1812,1693,1759
1936,1714,1831
1893,1776,1919
1850,1872,1879
1695,1871,1775
1728,2032,1902
1808,1946,1870
1858,1621,1796
1877,1674,1799
1801,1782,1802
1787,1834,1885
1799,1791,1872
1885,1939,1785
1933,2103,1919
1757,1943,1912
1649,1555,1813
1768,1662,1787
1904,1998,1840
1875,1764,1826
1898,1616,1828
1698,1645,1750
1756,1876,1808
1826,2179,1947
2039,1824,1766
1835,1599,1797
1651,1677,1853
1738,1815,1856
1813,2005,1839
1777,1803,1805
1789,1731,1851
1803,1757,1846
1769,1802,1846
1802,2064,1823
1793,1965,1841
1785,1671,1835
1832,1820,1883
1865,1904,1813
1759,1642,1759
1826,1809,1871
1968,1921,1871
1842,1735,1790
1701,1713,1783
1795,1905,1863
1877,1783,1853
1879,1773,1870
1829,2028,1840
1714,1778,1833
1787,1673,1830
1875,1886,1871
1823,1982,1889
1698,1680,1853
1712,1682,1798
1807,1911,1778
1891,2080,1831
1833,1893,1915
1869,1791,1856
1682,1501,1712
1733,1622,1775
1829,1857,1898
1831,1947,1886
1890,1975,1841
2042,1849,1824
1897,1692,1846
1732,1658,1808
1613,1759,1788
1868,1866,1909
1918,1855,1930
1715,1839,1871
1710,2000,1786
1799,2043,1819
1792,1727,1850
1776,1668,1834
1766,1729,1766
1808,1785,1785
1911,2006,1894
1926,2149,1883
1788,1469,1731
1842,1565,1777
1879,1808,1903
1796,1942,1909
1939,1936,1902
1744,1815,1801
1721,1711,1825
1791,1958,1921
1825,1849,1780
1851,1968,1730
1844,1658,1797
1732,1678,1904
1747,1889,1852
1776,1885,1840
1822,1788,1843
1797,1808,1846
1811,1984,1850
1861,2000,1865
1898,1936,1898
1872,1634,1878
1747,1585,1728
1713,1723,1742
1776,1962,1925
1968,2196,1877
2036,1757,1679
1744,1563,1814
1617,1699,1854
1803,1909,1904
1837,1856,1791
1789,1872,1881
1799,1903,1881
1852,1839,1850
1835,1979,1822
1712,1805,1751
1818,1814,1856
1904,1766,1946
1729,1767,1778
1710,1840,1751
1810,1970,1859
1911,2071,1895
1887,1782,1791
1844,1679,1735
1807,1836,1862
1840,1904,1888
1786,1777,1805
1776,1822,1806
1755,1790,1833
1853,1842,1865
1779,1843,1797
1772,1969,1792
1799,1878,1904
1891,1874,1822
1855,1831,1743
1783,1876,1808
1745,1819,1859
1764,1853,1917
1849,1955,1871
1876,1948,1777
1794,1887,1840
1747,1632,1818
1776,1680,1789
1760,1854,1804
1851,1959,1885
1869,1834,1824
1886,1821,1776
1784,1870,1819
1846,2163,1941
1840,1903,1947
1876,1846,1776
1818,1629,1778
1787,1713,1839
1728,1823,1827
1702,1872,1740
1872,2034,1834
1830,1822,1840
1749,1791,1872
1739,1809,1802
1808,1935,1838
1957,1988,1879
1808,1924,1813
1819,1822,1840
1813,2087,1969
1817,1734,1954
1765,1597,1712
1781,1701,1661
1872,1859,1783
1904,1877,1905
1885,2090,1955
1803,1879,1746
1727,1655,1747
1728,1747,1881
1855,1898,1887
1835,1873,1779
1791,1923,1919
1823,2057,1922
1808,1890,1888
1864,1920,1855
1875,1875,1810
1802,1744,1805
1792,1739,1898
1805,1790,1851
1839,1887,1831
1911,1964,1920
1856,1979,1875
1931,2421,1828
1840,1647,1649
1686,1375,1808
1809,1597,1905
1789,1808,1872
1799,1925,1833
1900,2022,1953
1901,1893,1872
1963,2112,1776
1967,1813,1915
1690,1680,1934
1648,1776,1845
1719,1856,1804
1933,2111,1953
1904,2034,1903
1791,1792,1837
1831,1975,1790
1872,1808,1809
1776,1660,1847
1727,1758,1873
1770,1971,1845
1829,1871,1840
1840,1851,1885
1872,2016,1904
2019,1995,1843
2005,1739,1730
1728,1767,1847
1765,1795,1796
1741,1731,1781
1787,1863,1790
1847,1971,1985
1770,1935,1901
1817,1978,1811
1819,1764,1777
1862,1901,1867
1815,2005,1919
1848,1813,1834
1841,1789,1804
1835,1872,1870
1813,1920,1860
1781,1818,1856
1859,1828,1833
1973,1840,1809
1857,1808,1892
1789,1905,1744
1847,1977,1787
1792,1781,2544
1762,1775,3447
1856,1883,2324
1835,1947,1838
1856,1942,2226
1776,1823,2349
1778,1717,1937
1847,1856,1728
1936,1975,1831
1872,1990,1781
1890,1801,1687
1807,1854,1705
1855,1926,1810
1727,1759,1747
1703,1698,1779
1899,1876,1807
1901,1904,1862
1789,1910,1935
1781,1766,2304
1910,1936,2223
1897,1977,1904
1763,1705,1728
1839,1863,1699
1910,1935,1758
1905,1916,1968
1762,1932,1853
1767,1804,1737
1845,1770,1677
1891,1802,1778
1830,1962,1885
1774,1917,1757
1765,1842,1743
1823,1793,1751
1825,1790,1781
1808,1872,1719
1959,1854,1733
1945,1789,1824
1794,1821,2293
1791,1870,2839
1909,2113,3026
1885,2078,3285
1819,1683,3086
1680,1581,3055
1723,1852,3408
1822,1914,4095
1771,1712,4095
1689,1965,2401
1667,1701,1865
1666,1638,1909
1643,1702,1225
1799,1765,1429
1808,1563,1802
1798,1643,1967
1691,1788,1847
1746,1798,1797
1775,1749,1818
1762,1807,1835
1795,1776,1835
1790,1723,1828
1743,1748,1827
1795,1858,1831
1880,2064,1837
1861,2095,1820
1771,1498,1824
1814,1535,1833
1891,1750,1830
1908,1855,1828
1842,1904,1827
1790,1882,1830
1742,1794,1828
1781,1834,1829
1875,1869,1829
1936,1887,1830
2012,2141,1826
1833,1911,1831
1826,1686,1834
1800,1841,1833
1830,1766,1826
1835,1664,1821
1904,1842,1965
1939,2073,2091
1777,1874,2061
1865,1746,1886
1936,1917,1920
1791,1906,2015
1762,1879,2025
1770,1778,1859
1871,1905,1867
2023,2097,1968
1876,1901,1964
1734,1680,1862
1745,1699,1850
1895,1957,2066
1955,1991,2303
1863,1951,3481
1787,1998,4095
1802,1716,4095
1865,1679,3311
2029,1931,1875
1953,1913,1438
1792,1829,1671
1842,1859,1754
1855,2001,1726
1820,1783,1727
1823,1904,1795
1871,1996,1811
1867,1734,1675
1771,1776,1662
1829,1978,1749
1853,1879,1744
1791,1783,1664
1833,1840,1702
1917,2126,1819
1824,1911,1774
1875,1769,1675
1968,1712,1633
1887,1815,1762
1891,2076,1818
1792,1808,1619
1851,1875,1708
1873,2060,1806
1917,1872,1822
1728,1813,1680
1758,1834,1649
1791,1738,1744
1883,1825,1744
1946,1904,1711
1914,2160,1743
1843,2032,1725
1788,1795,1697
1918,1649,1638
1809,1738,1680
1797,1928,1802
1868,2128,1840
1927,1901,1632
1887,2046,1727
1809,1687,1774
1798,1674,1725
1968,1957,1677
1865,1821,1750
1840,1840,1808
1911,1965,1677
2021,2011,1587
1820,1762,1621
1678,1673,1733
1767,1971,1799
1906,2259,1744
1876,1745,1647
1885,1503,1745
1840,1731,1725
1835,1838,1661
1899,1991,1753
1828,1869,1755
1779,1730,1687
1855,1968,1686
2037,1958,1664
1907,1816,1693
1626,1673,1719
1680,1744,1698
1846,1990,1698
1903,1914,1773
1862,1920,1790
1982,1938,1659
2023,2080,1716
1831,1733,1772
1761,2126,1791
1711,1582,1655
1822,1618,1697
1904,1921,1756
1975,1904,1701
1807,1878,1644
1749,1651,1721
2001,1818,1760
2151,2386,1810
1777,1856,1739
1645,1533,1723
1895,1759,1727
2133,1984,1584
1975,1967,1677
1557,1745,1766
1646,1683,1815
1865,1811,1791
2089,1994,1655
1951,2019,1789
1682,1746,1762
1742,1872,1737
1965,2240,1711
2001,1837,1665
1816,1535,1716
1887,1991,1810
1765,1921,1685
1853,1514,1649
1904,1641,1733
1872,1839,1824
1797,2018,1762
2027,1974,1703
1920,1679,1738
1871,1648,1739
1894,1754,1700
1879,1919,1707
1739,2128,1857
1685,1744,1741
1708,1607,1668
1811,1777,1739
1920,1989,1856
1919,2168,1808
1889,2000,1717
1721,1425,1616
1777,1508,1701
1810,2000,1811
1765,1872,1746
1799,1774,1742
1892,1814,1846
2015,1942,1758
2042,1790,1665
1920,1744,1653
1739,1712,1747
1601,1759,1787
1781,1892,1854
1840,1805,1794
1949,1804,1808
1968,1871,1776
1848,1953,1705
1738,1792,1712
1861,1881,1809
1797,1763,1786
1790,1852,1721
1747,1840,1731
1801,2021,1824
1720,1553,1754
1826,1530,1741
1922,1861,1850
1837,1764,1830
1840,2189,1846
1887,1776,1659
2016,1613,1649
2160,1805,1809
1809,1699,1805
1611,1709,1659
1614,1777,1767
1889,1869,1882
1895,2083,1891
1765,2253,1776
1729,1564,1737
1859,1511,1857
1833,1833,1817
1859,1781,1699
1887,2092,1741
1878,1953,1827
1779,1535,1747
1834,1744,1715
2009,2069,1799
1728,1616,1875
1703,1517,1793
1859,1780,1781
1849,2120,1897
1955,1905,1776
1905,1552,1624
1747,1655,1729
1661,1768,1856
1814,1935,1906
1920,2091,1958
1859,1920,1824
1747,1712,1680
1742,1744,1749
1792,1873,1837
1905,1904,1851
1881,1906,1809
1797,1591,1795
1757,1659,1777
1904,1881,1791
2135,2256,1862
1790,1671,1744
1661,1521,1791
1776,1655,1764
1823,2021,1887
1976,2251,1950
1899,1609,1763
1664,1456,1678
1699,1738,1750
1942,2064,1886
2111,2089,1902
1689,1655,1871
1582,1600,1799
1763,1821,1828
1872,2302,1860
1871,1936,1843
1825,1669,1744
1776,1650,1795
1827,1829,1776
1837,1616,1675
1979,1712,1664
1857,1830,1903
1914,1980,1936
1773,1926,1909
1623,1787,1803
1718,1749,1839
2017,2087,1897
1982,1867,1795
1776,1638,1803
1721,1700,1808
1794,1829,1764
1792,1870,1794
1826,1919,1776
1786,1728,1849
1757,1791,1831
1853,2131,1897
1873,2045,1837
1872,1830,1862
1915,1552,1855
1788,1602,1786
1821,1941,1838
1936,1984,1914
1965,1846,1789
1695,1609,1772
1776,1667,1761
1743,1903,1838
1732,1855,1872
1760,1725,1818
1838,1883,1826
1911,1910,1861
1873,1886,1885
1825,1926,1823
1776,1686,1791
1848,1796,1837
1817,1917,1904
1838,1924,1822
1959,2000,1907
1883,1975,1857
1783,1766,1782
1693,1518,1721
1765,1535,1723
1847,1760,1894
1962,1943,1889
1923,2053,1806
1854,1943,1774
1730,1883,1925
1694,1746,1895
1795,1708,1808
1913,1905,1774
1945,1905,1955
1813,1776,1916
1776,2082,1919
1701,1759,1778
1698,1575,1744
1781,1687,1805
1826,1827,1814
1855,1909,1878
1899,1937,1858
1879,1987,1789
1808,2129,1851
2085,2555,1980
1891,1534,1793
1619,1171,1714
1584,1486,1778
1728,1787,1827
1906,1919,1882
1895,1950,1921
1840,1943,1866
1869,1910,1842
1966,2479,1938
1840,1814,1712
1917,1324,1645
1709,1535,1803
1646,1808,1947
1718,1899,1923
1777,1899,1825
1874,1915,1799
1847,1930,1891
1840,1973,1926
1835,2096,1894
1920,2047,1830
1808,1558,1725
1703,1535,1745
1780,1785,1865
1808,1811,1851
1853,1840,1870
1867,1849,1835
1965,2047,1840
2032,1993,1777
1855,1806,1810
1701,1726,1871
1808,1902,1926
1774,1791,1872
1834,1776,1797
1870,1857,1787
1799,1951,1837
1787,1894,1869
1858,1844,1894
1892,2075,1854
1776,1808,1753
1776,1609,1822
1901,1746,1915
1971,1931,1865
1829,1870,1791
1808,1813,1776
1808,1710,1809
1955,1840,1875
1878,2064,1847
1886,2054,1876
1953,2034,1922
1783,1683,1823
1676,1497,1750
1801,1701,1776
1913,2062,1933
1797,1936,1903
1809,1904,1814
1791,1763,1813
1877,1904,1893
1845,1985,1898
1798,1778,1803
1821,1927,1813
1872,1854,1809
1935,1843,1851
1793,1733,1761
1872,1766,1818
2087,1991,1877
1713,1964,1885
1722,1731,1758
1776,1776,1767
1823,1774,1902
1874,2119,1995
1759,1855,1837
1817,1874,1808
1843,1767,1850
1872,1692,1822
1859,1814,1796
1869,1829,1820
1922,1847,1855
1943,2031,1793
1824,1878,1808
1822,1885,1777
1818,1840,1914
1751,1712,1858
1696,1653,1808
1749,1869,1817
1840,1939,1887
1924,1882,1901
1840,1951,1859
1872,2358,1892
1875,1953,1872
1755,1389,1740
1873,1615,1794
1931,1885,1863
1847,2356,1892
1793,1927,1817
1863,1601,1674
1783,1467,1827
1715,1700,1889
1806,1834,1822
1907,1885,1787
1840,1846,1811
1763,1984,1932
2063,2407,1936
1791,1799,1765
1710,1589,1763
1830,1797,1869
1792,1810,1916
1744,1814,1835
1776,1823,1809
1887,1975,1917
1887,2256,1865
1830,1993,1763
1757,1589,1711
1758,1535,1803
1843,1811,1885
1884,1787,1763
1975,1771,1744
2103,1847,1877
1811,2047,1931
1647,1931,1830
1747,1840,1856
1861,1909,1886
1851,1674,1753
1770,1776,1774
1808,1894,1919
1774,1899,1914
1805,1970,1863
1853,2008,1781
1826,1971,1862
1769,1681,1847
1792,1666,1791
1846,1690,1708
1856,1873,1806
1867,2128,1947
1934,2062,1867
1917,1648,1640
1713,1873,1855
2010,1821,1904
1850,1717,1771
1679,1771,1815
1744,1925,1959
1837,1883,1907
1908,2037,1830
2069,2309,1787
1778,1730,1757
1699,1533,1911
1756,1713,1904
1774,1771,1778
1942,1826,1748
1984,2013,1775
1722,2348,1967
1665,1838,1807
1807,1535,1744
1866,1655,1833
1776,1803,1833
1878,1951,1819
1981,1884,1765
1856,1913,1904
1854,1826,1891
1856,1888,1819
1792,1907,1760
1819,1738,1773
1757,1675,1842
1774,1871,1838
1883,2171,1904
2027,2045,1879
1875,1679,1776
1660,1707,1814
1731,1871,1906
1763,1796,1806
1803,1741,1757
1789,1834,1794
1910,2000,1849
1907,1947,1853
1867,1966,1837
1856,2000,1748
2001,1583,1675
1877,1613,1759
1631,1817,1934
1649,1840,1897
1779,1819,1826
1874,1875,1883
1840,1858,1893
1920,2047,1757
1933,2022,1808
1746,1835,1845
1745,1808,1824
1765,1761,1775
1803,1883,1839
1878,1983,1889
2021,2126,1859
1961,2106,1760
1761,1975,1890
1889,1413,1862
1814,1423,1721
1705,1795,1729
1808,2153,1822
1767,1929,1885
1773,1779,1877
1891,1621,1771
1917,1774,1743
1902,1958,1938
1755,1821,1893
1802,1808,1765
1807,1879,1751
1941,2135,1872
1879,2319,2087
1760,1702,1822
1741,1643,1678
1819,1766,1790
1840,2128,1895
1821,2140,1901
1755,1579,1750
1897,1600,1747
1865,1744,1773
1853,2109,1933
1879,1935,1918
1972,1650,1847
1984,1951,1815
1648,1986,1755
1668,1656,1773
1781,1687,1859
1788,1791,1881
1783,1841,1786
1818,2018,1809
1885,2029,1878
1862,1851,1824
1872,2101,1843
1834,1981,1860
2022,2138,1948
1951,1694,1831
1693,1568,1771
1594,1667,1725
1728,1877,1870
1909,2043,1957
1915,1744,1769
1808,1699,1720
1925,1783,1803
1808,1822,1843
1953,1836,1774
1862,1819,1822
1690,1891,1940
1840,2259,1959
1791,1855,1840
1777,1666,1714
1817,1814,1863
1743,1983,1888
1771,2003,1795
1821,1854,1772
1843,1835,1858
1794,1693,1843
1789,1913,1847
1820,1903,1860
1941,2029,1872
2062,1635,1671
1878,1645,1771
1735,1794,1773
1782,1801,1889
1683,1807,1877
1793,1899,1855
1879,1939,1855
1885,1902,1828
1829,1870,1829
1862,1970,1766
1835,1858,1770
1836,1838,1856
1734,1962,1872
1782,1837,1799
1947,1946,1892
1842,1887,1886
1801,2133,1887
1765,1876,1761
1837,1669,1762
1856,1493,1793
1908,1749,1833
1910,1894,1826
1965,1874,1776
1931,1925,1856
1842,1802,1883
1674,1761,1783
1710,1866,1847
