1893,1811,1888
1855,1771,1814
1827,1738,1776
1866,1761,1843
1902,1781,1872
1874,1758,1813
1818,1717,1751
1843,1765,1840
1885,1793,1883
1830,1733,1801
1841,1756,1793
1873,1783,1868
1902,1794,1895
1855,1744,1808
1829,1738,1776
1849,1762,1834
1856,1760,1858
1844,1751,1810
1856,1767,1808
1873,1781,1869
1877,1778,1872
1853,1763,1808
1861,1767,1792
1893,1790,1843
1874,1772,1859
1841,1766,1806
1843,1767,1803
1869,1778,1856
1875,1778,1856
1847,1773,1804
1858,1795,1762
1872,1822,1886
1883,1814,1892
1867,1797,1797
1840,1796,1795
1853,1801,1831
1843,1798,1807
1822,1774,1766
1821,1792,1789
1872,1840,1829
1893,1845,1883
1858,1815,1780
1834,1812,1802
1855,1838,1846
1855,1839,1840
1855,1835,1796
1852,1843,1778
1873,1872,1857
1887,1874,1872
1855,1852,1792
1846,1871,1803
1877,1895,1862
1887,1905,1866
1875,1903,1808
1843,1895,1751
1867,1946,1805
1856,1936,1854
1867,1941,1833
1829,1923,1765
1840,1939,1799
1865,1975,1831
1854,1982,1802
1840,1973,1776
1856,1983,1834
1871,1986,1849
1840,1983,1794
1856,2015,1815
1877,2032,1855
1873,2018,1858
1850,2014,1805
1843,2022,1806
1862,2064,1851
1865,2055,1863
1851,2030,1808
1852,2041,1823
1886,2080,1887
1903,2094,1904
1826,2010,1767
1840,2026,1805
1882,2067,1856
1857,2032,1839
1836,2024,1808
1840,2032,1810
1879,2064,1881
1884,2063,1911
1866,2070,1847
1842,2061,1830
1840,2053,1819
1844,2032,1873
1858,2039,1835
1849,2037,1823
1843,2037,1840
1845,2021,1812
1839,2010,1795
1846,2033,1802
1872,2064,1872
1893,2074,1907
1839,2027,1815
1840,2026,1803
1879,2061,1873
1885,2043,1884
1856,2030,1811
1840,2019,1797
1885,2054,1877
1878,2038,1877
1862,2015,1793
1865,2025,1818
1897,2038,1882
1875,2021,1872
1835,1984,1803
1859,2007,1807
1919,2070,1901
1897,2017,1889
1843,1969,1813
1819,1959,1791
1867,1990,1839
1904,2000,1875
1894,1983,1803
1864,1955,1813
1899,1984,1847
1925,1995,1893
1902,1974,1831
1887,1971,1817
1904,1984,1860
1911,1974,1863
1910,1955,1874
1916,1962,1811
1936,1968,1871
1943,1971,1881
1913,1948,1835
1941,1975,1842
1978,1997,1911
1920,1918,1861
1893,1890,1791
1935,1925,1873
1969,1967,1919
1984,1975,1837
1929,1931,1842
1922,1922,1808
1936,1917,1870
1951,1918,1894
1931,1908,1801
1936,1923,1828
1970,1942,1842
1977,1938,1891
1947,1907,1813
1954,1922,1805
2002,1954,1914
1993,1941,1872
1931,1890,1748
1918,1877,1789
1961,1909,1831
1973,1914,1898
1956,1904,1840
1957,1904,1831
1968,1904,1906
1968,1902,1875
1952,1875,1808
1936,1873,1803
1974,1902,1877
2006,1931,1916
1970,1904,1837
1935,1872,1777
1930,1858,1831
1929,1849,1854
1936,1851,1765
1950,1872,1863
1973,1900,1891
1970,1882,1891
1961,1859,1831
1968,1872,1807
1983,1921,1904
1970,1898,1890
1936,1841,1810
1937,1840,1808
1966,1875,1947
1947,1863,1853
1920,1841,1813
1924,1850,1776
1949,1876,1856
1951,1874,1876
1947,1866,1872
1968,1889,1866
1936,1871,1883
1905,1827,1855
1904,1819,1801
1920,1847,1869
1967,1984,1894
1975,1861,1911
1893,1720,1805
1903,1759,1779
1943,1827,1875
1959,1840,1902
1940,1840,1851
1930,1830,1829
1946,1850,1889
1938,1850,1897
1891,1806,1810
1871,1787,1777
1910,1820,1863
1924,1819,1872
1919,1818,1810
1923,1824,1808
1937,1855,1883
1909,1808,1867
1895,1792,1809
1920,1818,1815
1907,1818,1853
1918,1822,1863
1905,1814,1819
1904,1810,1809
1930,1851,1876
1919,1820,1875
1891,1790,1802
1888,1786,1787
1922,1822,1872
1923,1816,1875
1895,1833,1811
1887,1888,1803
1907,1777,1858
1898,1737,1867
1867,1742,1793
1877,1795,1802
1920,1820,1867
1814,1776,1851
1851,1771,1796
1876,1794,1807
1909,1824,1874
1936,1814,1879
1917,1798,1825
1841,1792,1813
1865,1808,1875
1867,1803,1872
1894,1775,1796
1877,1792,1808
1916,1814,1869
1929,1804,1872
1830,1773,1791
1875,1801,1801
1867,1825,1871
1872,1787,1854
1841,1759,1788
1837,1767,1776
1866,1796,1855
1882,1808,1873
1881,1819,1835
1854,1792,1805
1847,1775,1832
1869,1776,1850
1793,1743,1776
1856,1770,1785
1873,1808,1870
1838,1790,1862
1830,1769,1790
1847,1777,1792
1899,1817,1872
1859,1799,1858
1804,1775,1788
1844,1779,1791
1873,1806,1867
1871,1794,1867
1843,1770,1789
1834,1775,1778
1900,1791,1858
1839,1792,1867
1840,1779,1808
1888,1780,1803
1868,1807,1856
1862,1792,1856
1840,1773,1799
1841,1790,1798
1856,1805,1860
1834,1788,1847
1802,1767,1777
1791,1765,1766
1850,1803,1854
1819,1792,1856
1783,1764,1790
1827,1786,1789
1833,1792,1840
1887,1793,1840
1811,1787,1806
1849,1795,1801
1862,1810,1850
1791,1783,1830
1813,1776,1776
1838,1786,1778
1872,1810,1847
1815,1808,1853
1835,1840,1805
1821,1824,1787
1847,1919,1859
1875,1843,1876
1841,1664,1767
1814,1712,1767
1834,1785,1856
1793,1822,1847
1815,1874,1794
1818,1887,1789
1796,1714,1803
1808,1707,1823
1861,1835,1809
1863,2114,1809
1809,1927,1823
1758,1574,1817
1808,1570,1758
1816,1675,1762
1794,1755,1850
1786,1808,1866
1770,1838,1808
1846,1781,1789
1817,1773,1840
1721,1743,1824
1755,1776,1757
1791,1866,1783
1882,1783,1852
1761,1753,1844
1808,1767,1779
1782,1779,1750
1783,1838,1809
1777,1775,1813
1769,1766,1767
1781,1707,1754
1793,1729,1820
1789,1751,1833
1756,1760,1767
1777,1771,1773
1796,1783,1809
1783,1814,1824
1774,1791,1774
1781,1751,1775
1814,1756,1831
1760,1741,1819
1730,1786,1766
1762,1817,1760
1799,1740,1810
1734,1677,1801
1803,1683,1742
1744,1726,1747
1797,1757,1815
1791,1744,1803
1743,1737,1743
1812,1747,1760
1805,1777,1827
1847,1751,1811
1734,1727,1744
1790,1756,1748
1800,1769,1822
1771,1737,1814
1752,1714,1744
1791,1754,1770
1808,1775,1834
1763,1759,1795
1687,1777,1730
1751,1808,1758
1803,1817,1826
1758,1662,1805
1756,1642,1744
1746,1630,1727
1757,1714,1791
1774,1749,1795
1744,1701,1738
1771,1696,1749
1759,1698,1799
1757,1711,1797
1744,1712,1735
1838,1744,1753
1817,1747,1803
1785,1745,1811
1777,1722,1750
1755,1746,1747
1810,1815,1823
1761,1729,1808
1776,1661,1711
1717,1699,1739
1781,1766,1829
1763,1757,1815
1711,1746,1737
1732,1744,1733
1776,1787,1825
1779,1762,1814
1727,1677,1735
1728,1677,1739
1808,1738,1810
1774,1732,1794
1742,1699,1711
1776,1775,1744
1785,1831,1805
1755,1810,1794
1718,1641,1711
1747,1655,1725
1765,1698,1781
1743,1741,1791
1735,1808,1762
1746,1755,1741
1815,1875,1821
1779,1656,1808
1712,1584,1711
1715,1661,1714
1774,1746,1787
1787,1792,1764
1727,1744,1744
1712,1713,1741
1762,1758,1798
1778,1798,1795
1735,1753,1733
1745,1818,1745
1805,1879,1814
1735,1623,1744
1686,1585,1669
1725,1693,1716
1776,1767,1801
1780,1756,1791
1723,1722,1696
1713,1720,1680
1760,1773,1771
1764,1763,1771
1750,1743,1713
1776,1769,1724
1797,1885,1791
1775,1872,1790
1744,1635,1702
1758,1647,1709
1787,1733,1783
1782,1765,1787
1755,1762,1728
1782,1781,1733
1846,1825,1791
1758,1802,1781
1694,1691,1697
1730,1699,1700
1781,1744,1782
1778,1755,1792
1762,1759,1728
1746,1762,1699
1781,1934,1787
1794,1795,1801
1749,1620,1712
1746,1665,1702
1793,1757,1787
1792,1758,1791
1758,1744,1719
1743,1744,1704
1777,1771,1769
1795,1787,1778
1778,1772,1717
1776,1760,1728
1792,1787,1793
1781,1821,1793
1753,1794,1727
1789,1792,1745
1814,1783,1807
1808,1731,1790
1776,1733,1726
1739,1704,1683
1737,1719,1733
1744,1742,1757
1761,1760,1721
1778,1782,1737
1795,1799,1808
1794,1803,1808
1742,1765,1712
1760,1782,1723
1783,1798,1790
1776,1787,1785
1768,1787,1728
1772,1775,1725
1791,1774,1779
1793,1771,1786
1779,1781,1738
1787,1817,1750
1805,1809,1802
1799,1791,1792
1773,1755,1719
1779,1795,1725
1791,1808,1809
1801,1803,1820
1789,1789,1750
1786,1792,1735
1811,1861,1798
1776,1820,1776
1751,1751,1712
1782,1723,1730
1808,1742,1791
1814,1766,1808
1754,1738,1712
1778,1782,1712
1819,1826,1808
1808,1808,1792
1802,1869,1748
1797,1837,1737
1771,1745,1760
1753,1727,1757
1771,1754,1728
1782,1791,1739
1795,1813,1793
1803,1843,1796
1785,1839,1742
1776,1762,1725
1801,1791,1798
1805,1791,1794
1763,1758,1707
1747,1776,1721
1773,1795,1793
1777,1792,1791
1781,1789,1744
1798,1808,1749
1799,1822,1798
1789,1803,1782
1758,1783,1707
1776,1785,1726
1806,1808,1805
1803,1804,1810
1765,1766,1729
1769,1791,1726
1802,1823,1808
1805,1821,1812
1791,1794,1747
1803,1808,1744
1793,1809,1798
1793,1814,1798
1803,1836,1760
1801,1810,1744
1795,1797,1791
1745,1759,1750
1739,1756,1690
1778,1779,1729
1812,1808,1808
1808,1808,1807
1791,1798,1733
1781,1794,1719
1799,1806,1781
1808,1819,1797
1779,1814,1741
1779,1794,1734
1812,1798,1793
1829,1804,1806
1792,1776,1735
1794,1806,1734
1839,1872,1807
1819,1818,1792
1797,1763,1734
1777,1797,1711
1801,1837,1775
1808,1834,1781
1786,1773,1711
1782,1797,1711
1809,1833,1788
1834,1866,1821
1770,1786,1712
1787,1776,1710
1833,1817,1790
1821,1821,1785
1744,1753,1685
1756,1731,1702
1806,1838,1797
1815,1827,1806
1808,1807,1744
1808,1824,1746
1807,1810,1797
1803,1818,1792
1792,1791,1740
1797,1803,1744
1817,1781,1806
1818,1888,1811
1792,1823,1734
1785,1792,1727
1808,1794,1802
1819,1843,1813
1778,1786,1727
1781,1792,1728
1826,1820,1808
1855,1854,1843
1785,1805,1730
1752,1786,1707
1809,1783,1802
1813,1819,1804
1798,1794,1739
1828,1837,1762
1837,1819,1814
1824,1838,1814
1777,1787,1735
1781,1808,1729
1818,1825,1808
1826,1829,1823
1818,1814,1764
1806,1776,1754
1824,1825,1802
1833,1843,1803
1823,1815,1763
1792,1803,1745
1808,1838,1804
1822,1799,1829
1827,1869,1792
1819,1793,1761
1828,1840,1815
1802,1780,1801
1790,1797,1746
1805,1791,1759
1818,1793,1813
1815,1827,1819
1795,1822,1760
1808,1841,1754
1839,1879,1827
1835,1861,1840
1808,1841,1770
1812,1819,1769
1815,1825,1818
1808,1813,1819
1787,1806,1755
1812,1840,1762
1850,1870,1847
1847,1839,1839
1797,1802,1755
1790,1824,1756
1818,1807,1830
1828,1818,1833
1808,1824,1783
1841,1863,1810
1845,1858,1845
1807,1808,1808
1786,1808,1754
1811,1839,1779
1841,1869,1857
1855,1907,1858
1837,1845,1803
1808,1726,1779
1839,1867,1857
1835,1845,1846
1806,1808,1777
1827,1890,1811
1838,1857,1862
1824,1835,1856
1813,1833,1808
1823,1845,1811
1858,1874,1920
1826,1847,1849
1791,1835,1754
1819,1858,1785
1849,1883,1875
1845,1879,1883
1829,1849,1811
1827,1861,1805
1851,1899,1872
1820,1805,1840
1795,1781,1776
1831,1843,1809
1862,1863,1875
1847,1856,1857
1822,1885,1792
1839,1856,1827
1868,1910,1889
1849,1829,1867
1830,1855,1808
1830,1780,1813
1856,1850,1872
1815,1905,1850
1803,1802,1779
1838,1872,1807
1871,1897,1889
1851,1904,1865
1819,1835,1801
1834,1831,1815
1846,1898,1871
1846,1859,1871
1830,1794,1808
1842,1867,1818
1858,1840,1872
1853,1825,1861
1861,1865,1819
1811,1818,1786
1822,1835,1840
1838,1842,1853
1819,1837,1799
1845,1859,1810
1860,1871,1874
1846,1854,1875
1821,1855,1808
1846,1872,1821
1869,1869,1879
1839,1840,1855
1831,1746,1806
1838,1842,1808
1842,1863,1860
1847,1861,1863
1834,1872,1808
1840,1859,1815
1840,1856,1857
1835,1839,1851
1839,1904,1808
1871,1845,1844
1851,1823,1869
1841,1814,1850
1841,1844,1803
1842,1872,1814
1863,1873,1879
1863,1873,1879
1871,1763,1840
1864,1901,1831
1871,1869,1886
1833,1742,1853
1814,1823,1789
1845,1840,1809
1875,1879,1898
1871,1872,1895
1857,1853,1824
1873,1869,1840
1875,1872,1884
1856,1846,1866
1840,1827,1799
1855,1856,1821
1893,1895,1899
1911,1908,1921
1841,1843,1811
1814,1822,1785
1859,1855,1865
1871,1870,1878
1862,1855,1831
1856,1840,1825
1883,1872,1894
1872,1867,1891
1847,1841,1818
1843,1844,1819
1872,1877,1891
1878,1873,1901
1840,1839,1812
1840,1851,1828
1865,1870,1891
1872,1871,1891
1856,1849,1821
1858,1862,1833
1872,1872,1889
1886,1881,1895
1872,1872,1841
1811,1822,1787
1840,1840,1846
1859,1846,1866
1840,1821,1797
1850,1843,1819
1904,1905,1920
1875,1871,1887
1804,1808,1773
1831,1827,1792
1869,1863,1878
1862,1855,1873
1846,1849,1808
1853,1857,1823
1888,1887,1890
1879,1878,1879
1811,1810,1784
1815,1817,1796
1861,1842,1874
1875,1858,1891
1857,1851,1837
1841,1845,1818
1843,1851,1857
1855,1846,1861
1844,1839,1812
1860,1859,1824
1875,1872,1878
1875,1876,1882
1879,1881,1842
1885,1872,1841
1861,1856,1862
1857,1843,1856
1831,1829,1798
1843,1847,1819
1876,1875,1891
1866,1856,1877
1855,1854,1827
1871,1875,1838
1904,1915,1919
1856,1854,1868
1792,1791,1754
1835,1827,1791
1874,1871,1885
1882,1863,1892
1861,1846,1829
1869,1857,1836
1889,1877,1894
1887,1877,1891
1840,1839,1808
1840,1840,1811
1879,1870,1879
1873,1861,1874
1857,1858,1827
1866,1853,1835
1884,1866,1895
1894,1879,1902
1847,1830,1807
1851,1850,1812
1885,1917,1895
1869,1856,1877
1843,1822,1819
1850,1835,1829
1893,1892,1919
1872,1876,1897
1780,1794,1764
1801,1807,1777
1858,1847,1875
1867,1857,1886
1858,1869,1834
1867,1904,1840
1872,1866,1874
1862,1822,1872
1834,1820,1814
1847,1854,1837
1877,1888,1899
1872,1861,1883
1856,1840,1822
1859,1846,1829
1885,1887,1899
1901,1886,1904
1871,1850,1834
1839,1835,1811
1900,1895,1904
1869,1857,1881
1821,1819,1807
1849,1843,1829
1884,1869,1895
1858,1847,1874
1830,1827,1810
1838,1840,1815
1882,1872,1895
1890,1875,1901
1870,1863,1834
1851,1841,1823
1877,1870,1883
1881,1879,1890
1878,1878,1851
1861,1855,1831
1885,1885,1887
1877,1858,1879
1852,1840,1817
1863,1872,1836
1893,1910,1897
1885,1872,1878
1846,1822,1811
1855,1835,1815
1915,1901,1910
1871,1858,1872
1802,1808,1777
1831,1838,1807
1874,1871,1895
1895,1873,1897
1854,1860,1822
1872,1863,1823
1887,1863,1881
1872,1872,1877
1841,1843,1803
1858,1835,1818
1902,1882,1905
1895,1863,1891
1846,1824,1829
1858,1845,1802
1886,1878,1862
1907,1906,1911
1853,1855,1792
1839,1824,1815
1877,1907,1881
1879,1875,1893
1873,1806,1808
1857,1799,1791
1879,1840,1877
1881,1846,1889
1846,1840,1790
1891,1957,1867
1911,2006,1924
1846,1936,1827
1823,1815,1808
1854,1674,1780
1886,1747,1879
1883,1919,1869
1878,2090,1867
1872,2015,1834
1870,1680,1863
1853,1558,1840
1853,1827,1807
1897,2205,1837
1893,1851,1855
1874,1717,1868
1905,1899,1837
1963,1885,1818
1904,1692,1840
1865,1821,1870
1987,2161,1840
2117,2032,1797
1886,1516,1730
1685,1722,1855
1651,1659,1820
1745,1600,1857
1844,1826,1888
1861,1984,1887
1839,2093,1839
1925,1680,1907
1857,1521,1789
1786,1705,1712
1823,2146,1746
1843,1872,1742
1856,1417,1786
1837,1585,1792
1828,1597,1730
1867,1687,1773
1978,1840,1886
1968,1871,1815
1922,1727,1779
1865,1733,1776
1914,1721,1803
2193,1587,1741
1871,1591,1747
1615,1680,1831
1664,1567,1934
1754,1700,1869
1787,1647,1728
1739,1746,1809
1712,1761,1920
1676,1587,1829
1675,1519,1779
1645,1463,1759
1648,1431,1760
1712,1453,1880
1702,1707,1779
1641,1321,1711
1627,1204,1762
1664,1323,1783
1744,1411,1744
1715,1425,1840
1807,1392,1888
1764,1424,1918
1574,1535,1969
1596,1221,1759
1629,1168,1749
1597,1186,1699
1535,1307,1713
1611,1485,1818
1684,1503,1893
1734,1408,1931
1654,1179,1751
1635,1036,1739
1609,1108,1778
1629,1248,1853
1675,1254,1792
1770,1269,1786
1714,1301,1791
1665,1395,1936
1704,1306,1794
1651,1132,1758
1641,1219,1819
1727,1328,1771
1626,1231,1722
1575,1250,1821
1619,1272,1913
1695,1424,1937
1713,1505,1855
1661,1197,1755
1647,1248,1811
1643,1136,1783
1647,1322,1799
1680,1436,1843
1675,1279,1846
1669,1279,1868
1692,1275,1783
1680,1108,1760
1673,1185,1844
1681,1286,1850
1721,1355,1765
1808,1350,1767
1792,1454,1883
1787,1471,1901
1703,1271,1767
1589,1267,1831
1680,1360,1904
1677,1379,1835
1678,1557,1819
1712,1507,1881
1679,1289,1883
1690,1361,1863
1666,1303,1803
1663,1319,1719
1723,1535,1858
1731,1535,1906
1696,1408,1763
1725,1575,1776
1727,1291,1857
1753,1264,1845
1729,1386,1801
1776,1495,1861
1872,1553,1919
1793,1497,1911
1691,1443,1785
1767,1489,1820
1840,1526,1855
1766,1457,1857
1665,1495,1820
1686,1577,1836
1712,1525,1840
1739,1674,1851
1769,1522,1795
1793,1575,1822
1743,1520,1878
1693,1426,1843
1713,1435,1823
1795,1646,1893
1791,1613,1872
1815,1742,1882
1836,1586,1783
1745,1454,1789
1793,1505,1943
1773,1567,1937
1752,1609,1774
1829,1707,1857
1789,1666,1879
1718,1581,1787
1765,1617,1713
1805,1777,1858
1791,1680,1931
1782,1715,1824
1798,1695,1748
1803,1499,1813
1814,1680,1914
1827,1779,1869
1845,1702,1835
1776,1734,1872
1771,1712,1885
1798,1765,1827
1851,1531,1749
1807,1535,1823
1840,1761,1946
1897,1839,1897
1727,1733,1728
1729,1646,1755
1802,1659,1858
1883,1782,1856
1825,1634,1774
1855,1818,1872
1822,1776,1909
1743,1683,1871
1771,1680,1818
1849,1710,1831
1849,1717,1905
1859,1808,1914
1827,1771,1795
1796,1635,1743
1856,1873,1874
1852,1747,1863
1776,1584,1744
1815,1681,1795
1827,1741,1919
1875,1680,1901
1936,1789,1817
1886,1831,1825
1831,1787,1813
1755,1694,1827
1782,1689,1759
1855,1877,1781
1831,1867,1933
1881,1633,1896
1827,1645,1835
1855,1905,1890
1859,2002,1887
1833,1831,1825
1775,1600,1812
1872,1672,1816
1819,1733,1841
1840,1911,1866
1861,1751,1765
1776,1643,1762
1791,1711,1847
1872,1821,1875
1862,1829,1814
1935,1908,1811
1845,1905,1904
1842,1873,1903
1835,1846,1821
1808,1761,1818
1843,1755,1916
1836,1826,1851
1869,1774,1834
1906,1870,1887
1843,1871,1939
1833,1868,1929
1838,1840,1749
1888,1852,1777
1890,1824,1874
1853,1863,1865
1835,1793,1753
1835,1740,1777
1844,1817,1885
1882,1882,1893
1909,2032,1818
1925,1744,1776
1823,1779,1867
1818,1810,1947
1865,1872,1863
1918,1854,1798
1889,1833,1838
1838,1806,1850
1808,1850,1851
1841,2027,1861
1910,2125,1904
1894,1838,1847
1808,1685,1776
1751,1718,1787
1887,1851,1872
1858,1872,1875
1929,1941,1853
1951,1911,1813
1877,2066,1873
1885,1871,1855
1805,1647,1833
1803,1808,1828
2006,1957,1840
1931,1921,1809
1789,1840,1770
1830,1814,1823
1895,1987,1879
1899,1966,1898
1828,1862,1834
1834,1883,1827
1854,1950,1883
1834,1856,1873
1838,1887,1779
1883,2021,1801
1872,1919,1882
1993,2039,1956
1857,1867,1798
1864,1779,1792
1873,1812,1906
1842,1887,1865
1826,1930,1786
1851,1955,1811
2006,1920,1830
1877,1914,1883
1786,1920,1844
1808,1961,1776
1844,1954,1837
1840,1875,1867
1865,1927,1854
1872,1957,1860
1947,1886,1919
1893,1923,1872
1819,1983,1808
1853,2175,1813
1883,2116,1876
1917,1946,1921
1792,1702,1744
1837,1750,1741
1941,1885,1855
1922,1992,1895
1799,1922,1779
1835,1883,1806
1931,1938,1891
1957,2157,1939
1936,2182,1872
1863,1734,1754
1852,1776,1839
1840,1940,1877
1834,1973,1840
1879,1942,1862
1907,1924,1894
1950,2001,1898
1838,1968,1817
1808,1935,1773
1875,2110,1891
1918,2011,1842
1872,1873,1797
1841,1881,1777
1899,1984,1855
1904,1888,1843
1846,1817,1795
1872,1899,1831
1885,2017,1874
1941,2056,1875
1938,2006,1845
1851,1947,1831
1873,1968,1871
1845,1902,1840
1850,1894,1791
1905,1936,1799
1834,1968,1869
1858,2064,1903
1869,1968,1899
1854,1939,1837
1901,2000,1875
1878,2039,1831
1831,1933,1746
1813,1919,1771
1901,1838,1847
1875,1907,1847
1836,1968,1785
1850,1936,1810
1915,1995,1898
1879,1863,1840
1871,1994,1768
1869,1961,1787
1951,1904,1887
1919,1931,1958
1878,1941,1764
1860,1967,1734
1886,1994,1855
1879,2125,1919
1895,1883,1792
1862,1892,1783
1872,1983,1900
1838,1914,1833
1847,1845,1761
1830,1901,1792
1895,2080,1904
1951,2144,1888
1803,1945,1812
1890,1969,1895
1921,1858,1846
1855,1785,1774
1884,1862,1761
1966,2016,1861
1872,2000,1866
1822,1997,1796
1885,2021,1769
1959,1998,1801
1840,2019,1934
1757,1869,1870
1770,1840,1758
1952,2077,1808
1885,1934,1853
1818,1838,1834
1793,1899,1799
1840,1957,1814
1936,2077,1906
1955,2172,1895
1840,1942,1763
1807,1740,1742
1886,1871,1887
1904,1981,1883
1868,1936,1751
1812,2001,1796
1858,1907,1818
1968,1871,1813
1822,1862,1776
1814,1963,1839
1866,2017,1882
1883,1983,1873
1867,2019,1799
1841,1915,1793
1874,1887,1872
1858,1990,1850
1902,1856,1743
1838,1813,1824
1840,1980,1906
1856,1963,1863
1863,1986,1762
1845,2022,1821
1796,1799,1820
1827,1847,1822
1846,1904,1754
1920,1884,1797
1877,1920,1846
1914,1939,1882
1923,2030,1802
1812,2030,1778
1824,1936,1867
1921,1925,1859
1839,1839,1750
1839,1869,1808
1808,1861,1871
1850,1957,1842
1884,1970,1767
1872,2045,1801
1871,1947,1858
1866,1964,1857
1846,1859,1759
1872,1883,1783
1919,1815,1838
1856,1797,1818
1803,1875,1793
1875,2029,1863
1875,2032,1859
1919,1745,1759
1807,1821,1773
1829,2010,1861
1838,1903,1808
1848,1846,1802
1821,1897,1744
1989,1973,1812
1872,2013,1833
1826,1821,1822
1837,1757,1747
1808,1837,1783
1920,1793,1816
1869,1939,1854
1774,1969,1746
1814,1871,1751
1893,1936,1853
1841,1741,1790
1819,1735,1743
1870,2013,1811
1895,1963,1872
1899,1807,1814
1918,1813,1783
1873,1824,1749
1890,1971,1823
1873,2001,1813
1818,1751,1761
1869,1803,1792
1869,1856,1819
1826,1877,1849
1840,2006,1804
1835,1789,1775
1881,1874,1839
1825,1907,1833
1787,1821,1760
1875,1844,1806
1936,1903,1899
1808,1785,1761
1790,1799,1716
1904,2031,1793
1943,1826,1872
1914,1731,1808
1738,1813,1715
1775,1840,1781
1840,1823,1884
1871,1889,1847
1872,1844,1778
1844,1847,1803
1926,2080,1887
1879,1966,1870
1809,1842,1769
1811,1836,1765
1872,1819,1823
1893,1789,1757
1776,1791,1728
1791,1839,1791
1875,1841,1870
1887,1863,1823
1857,1899,1803
1895,2071,1857
1860,1873,1848
1830,1757,1785
1827,1834,1761
1879,1968,1873
1904,1797,1886
1818,1744,1754
1781,1814,1759
1830,1954,1829
1850,2041,1899
1810,1920,1836
1831,1799,1750
1821,1636,1731
1840,1746,1842
1819,1874,1831
1891,1953,1783
1879,1885,1792
1782,1802,1840
1873,2019,1904
1854,1808,1808
1853,1725,1727
1835,1803,1782
1855,1882,1834
1811,1895,1814
1786,1727,1778
1826,1837,1899
1882,1947,1904
1851,1855,1803
1840,1934,1808
1886,1914,1840
1909,1867,1808
1823,1897,1757
1838,1731,1793
1825,1703,1857
1776,1744,1856
1770,1830,1840
1874,1916,1809
1927,1911,1847
1806,1817,1837
1776,1805,1807
1843,1922,1839
1869,2015,1855
1830,1682,1813
1847,1693,1783
1855,1821,1811
1905,2017,1938
1867,1924,1879
1810,1721,1756
1859,1718,1815
1822,1933,1866
1809,1853,1861
1823,1820,1751
1821,1744,1745
1840,1767,1866
1837,1822,1847
1857,1872,1756
1822,1819,1717
1776,1801,1846
1762,1834,1894
1842,1811,1818
1849,1899,1840
1857,2043,1893
1799,2071,1854
1761,1754,1779
1821,1749,1815
1904,1862,1941
1817,1758,1814
1793,1757,1735
1838,1845,1797
1868,1887,1951
1910,1948,1877
1843,2027,1755
1910,1830,1810
1753,1682,1815
1787,1803,1810
1786,1780,1796
1790,1805,1831
1787,1814,1905
1808,1862,1873
1842,1915,1813
1914,2142,1894
1878,2001,1904
1799,1622,1818
1760,1692,1747
1777,1777,1791
1823,1876,1887
1903,1991,1933
1899,2000,1858
1841,1782,1771
1889,1744,1851
1835,1905,1847
1797,1893,1793
1781,1822,1820
1830,1837,1893
1819,1805,1922
1799,1833,1834
1843,1867,1823
1879,1988,1895
1902,1898,1906
1807,1925,1831
1842,2034,1843
1833,1840,1835
1797,1626,1822
1807,1760,1814
1819,1845,1825
1847,1906,1898
1823,1893,1889
1855,1923,1781
1875,2022,1782
1861,1856,1909
1766,1678,1887
1760,1737,1799
1863,1871,1851
1883,1921,1895
1819,1904,1872
1787,1895,1809
1867,1843,1808
1840,1846,1907
1829,1921,1897
1803,2010,1814
1845,2032,1868
1828,1703,1851
1815,1831,1842
1808,1778,1824
1807,1821,1829
1839,1783,1856
1872,1878,1901
1810,1920,1803
1806,1861,1794
1861,1929,1903
1869,1872,1883
1822,1754,1749
1862,1794,1786
1899,1868,1904
1833,1903,1904
1744,1951,1795
1778,1886,1804
1808,1741,1905
1872,1790,1886
1839,1909,1837
1808,1847,1824
1870,2032,1898
1872,1953,1936
1888,2062,1923
1807,1785,1814
1750,1655,1829
1808,1697,1814
1807,1756,1763
1840,1910,1839
1897,1904,1911
1846,1873,1835
1875,1946,1856
1886,1935,1856
1808,1938,1879
1766,1833,1891
1775,1806,1828
1891,1792,1822
1866,1915,1854
1777,1813,1810
1776,1808,1830
1810,1926,1872
1941,2144,1937
1894,1946,1873
1764,1627,1758
1781,1728,1840
1850,1898,1915
1839,2013,1887
1819,1849,1833
1820,1774,1821
1854,1818,1872
1863,1984,1850
1892,1806,1766
1962,1695,1820
1776,1799,1933
1733,1919,1899
1733,1863,1934
1861,2000,1877
1857,1852,1845
1805,1843,1858
1815,1949,1850
1845,2095,1903
1836,1852,1902
1876,1779,1872
1869,1859,1825
1803,1904,1808
1795,1773,1850
1840,1840,1846
1828,1792,1790
1805,1807,1824
1825,1859,1870
1830,1917,1861
1869,1930,1838
1904,1895,1926
1922,1898,1913
1819,1730,1856
1701,1713,1805
1787,1856,1813
1888,1918,1887
1892,1914,1897
1838,1891,1847
1761,1833,1835
1869,1903,1935
1869,1968,1888
1782,1713,1793
1754,1767,1807
1813,1950,1897
1831,1935,1856
1766,1754,1761
1819,1795,1806
1850,1793,1894
1881,1749,1874
1841,1824,1822
1841,1967,1830
1883,1919,1877
1811,1775,1872
1799,1799,1836
1814,1895,1843
1815,1883,1887
1866,1811,1849
1797,1833,1777
1819,1967,1856
1888,1983,1936
1815,1787,1851
1754,1727,1776
1825,1998,1843
1891,2018,1923
1799,1697,1802
1762,1681,1726
1838,1827,1825
1904,1938,1899
1851,1822,1861
1807,1818,1786
1855,1904,1808
1829,1868,1846
1820,1808,1872
1825,1868,1849
1808,1835,1850
1827,1859,1927
1833,1877,1851
1915,1985,1825
1843,1821,1757
1777,1842,1890
1798,1838,1889
1837,1770,1829
1894,1869,1815
1863,1983,1853
1729,1798,1787
1786,1786,1757
1861,1713,1750
1826,1890,1842
1810,1970,1835
1814,1746,1753
1856,1796,1816
1817,1808,1874
1837,1870,1861
1873,1919,1839
1818,1786,1840
1795,1843,1854
1805,1777,1808
1807,1809,1767
1846,1959,1811
1890,1940,1891
1835,1823,1831
1786,1762,1737
1867,1856,1786
1858,1755,1863
1968,1833,1919
