271,235,366
304,247,448
285,180,526
256,201,435
269,219,368
292,240,451
279,256,534
246,221,448
252,226,372
286,234,455
283,257,557
262,227,480
250,211,385
272,235,458
272,224,556
256,281,499
261,218,415
279,245,480
270,284,576
240,304,507
247,228,432
287,267,505
285,192,597
245,240,508
250,211,431
283,271,531
282,262,618
256,245,534
268,239,463
303,272,559
303,274,642
265,323,573
282,223,496
315,305,573
304,318,673
270,338,611
294,263,528
330,318,614
333,368,708
304,318,637
314,299,563
336,337,656
344,349,752
327,304,681
341,337,611
374,375,703
376,362,788
347,367,726
365,357,651
400,395,727
394,417,827
374,405,757
398,390,688
434,433,784
436,450,872
417,439,799
439,484,723
470,459,816
475,483,927
453,452,858
471,465,779
509,478,858
530,511,951
507,496,897
524,511,827
554,622,917
563,534,1015
555,527,945
575,550,880
602,591,974
605,603,1072
595,592,1002
623,588,930
650,625,1005
652,641,1110
631,623,1042
653,624,973
695,670,1079
707,694,1171
688,670,1095
693,671,1023
735,709,1114
737,741,1206
720,721,1157
736,721,1097
772,762,1165
768,777,1262
751,752,1189
759,753,1122
809,801,1207
811,818,1303
784,795,1232
800,797,1169
841,840,1260
849,865,1354
823,843,1277
839,848,1217
880,891,1312
878,922,1408
848,900,1332
862,900,1270
911,946,1359
903,963,1453
876,942,1391
899,940,1328
951,983,1441
951,1013,1533
924,986,1462
927,988,1391
960,1040,1487
961,1065,1594
944,1039,1523
954,1037,1446
987,1089,1535
986,1115,1648
969,1095,1584
989,1093,1506
1006,1130,1585
983,1147,1670
963,1118,1584
985,1119,1519
1008,1156,1598
1005,1179,1682
976,1158,1620
994,1152,1535
1022,1191,1623
1017,1215,1712
987,1188,1662
997,1185,1582
1035,1233,1659
1017,1254,1744
1002,1231,1667
1017,1232,1599
1049,1279,1680
1040,1300,1806
1023,1278,1837
1040,1284,1855
1073,1327,2000
1072,1348,2131
1039,1322,2110
1040,1316,2054
1074,1361,2160
1072,1391,2278
1037,1360,2226
1036,1357,2159
1072,1395,2254
1066,1424,2344
1021,1391,2269
1023,1392,2215
1065,1423,2288
1039,1425,2361
990,1395,2285
983,1382,2187
995,1395,2243
976,1398,2315
929,1360,2229
917,1351,2135
943,1381,2205
931,1395,2279
907,1371,2192
912,1361,2112
922,1397,2170
913,1411,2249
891,1386,2162
904,1379,2093
911,1424,2158
909,1441,2238
891,1423,2165
902,1424,2080
922,1453,2142
912,1469,2218
903,1457,2160
924,1467,2080
951,1506,2147
944,1529,2213
912,1510,2123
926,1508,2047
966,1559,2132
970,1584,2219
944,1577,2146
954,1575,2067
989,1619,2168
989,1647,2256
973,1630,2181
999,1643,2113
1049,1691,2202
1055,1728,2288
1031,1725,2209
1050,1727,2135
1088,1778,2220
1090,1814,2303
1070,1801,2233
1088,1810,2151
1136,1868,2245
1154,1904,2341
1136,1903,2261
1150,1911,2181
1186,1959,2256
1196,1991,2352
1182,1987,2286
1211,2005,2205
1255,2054,2283
1255,2086,2365
1232,2067,2306
1255,2087,2221
1296,2137,2295
1303,2160,2379
1287,2141,2305
1317,2160,2227
1363,2221,2303
1363,2247,2402
1344,2233,2325
1360,2239,2256
1411,2293,2349
1424,2323,2403
1403,2311,2362
1424,2322,2295
1456,2370,2371
1458,2387,2463
1447,2379,2395
1472,2384,2288
1515,2432,2415
1514,2449,2510
1497,2439,2441
1515,2448,2368
1535,2491,2435
1567,2517,2523
1535,2501,2435
1573,2512,2361
1614,2559,2438
1616,2585,2559
1602,2559,2481
1619,2559,2399
1659,2615,2466
1661,2641,2582
1650,2619,2510
1675,2621,2421
1715,2665,2499
1715,2693,2558
1707,2665,2507
1727,2666,2423
1763,2713,2495
1767,2733,2607
1753,2711,2510
1762,2710,2447
1805,2755,2501
1808,2770,2598
1781,2738,2505
1803,2743,2427
1845,2785,2525
1849,2797,2592
1831,2768,2494
1851,2758,2364
1904,2802,2470
1892,2815,2529
1872,2785,2467
1894,2784,2384
1922,2823,2467
1920,2827,2528
1905,2799,2416
1917,2791,2351
1959,2837,2443
1966,2848,2523
1935,2805,2423
1951,2791,2347
1997,2833,2406
1997,2853,2500
1980,2815,2438
1990,2807,2337
2014,2837,2413
2027,2843,2486
1999,2806,2399
2003,2791,2309
2045,2830,2393
2059,2837,2508
2031,2806,2386
2046,2791,2286
2091,2827,2350
2082,2838,2432
2062,2807,2353
2087,2800,2317
2126,2817,2343
2111,2834,2399
2090,2809,2337
2112,2800,2276
2141,2832,2301
2134,2841,2410
2112,2803,2320
2128,2803,2207
2163,2834,2292
2160,2836,2347
2142,2800,2256
2154,2800,2179
2186,2826,2250
2187,2832,2320
2159,2801,2256
2171,2783,2139
2206,2827,2237
2198,2831,2304
2181,2799,2227
2199,2784,2140
2231,2813,2211
2233,2818,2267
2211,2795,2186
2213,2771,2110
2251,2800,2155
2255,2810,2227
2225,2782,2146
2240,2765,2061
2277,2787,2159
2267,2789,2216
2242,2754,2128
2256,2735,2000
2295,2774,2087
2288,2785,2138
2261,2741,2111
2274,2727,1972
2308,2752,2085
2309,2768,2160
2288,2733,2096
2288,2717,1981
2320,2753,2067
2317,2757,2133
2302,2721,2047
2314,2703,1968
2343,2732,2066
2335,2748,2113
2307,2708,2023
2317,2698,1945
2350,2720,2014
2350,2725,2106
2319,2688,2015
2322,2682,1919
2364,2709,2002
2368,2708,2053
2331,2673,1968
2342,2670,1936
2375,2692,1968
2372,2703,2061
2346,2671,1954
2353,2663,1920
2384,2702,1977
2383,2704,2034
2353,2661,1911
2363,2647,1882
2384,2677,1939
2383,2697,2027
2351,2659,1923
2357,2649,1863
2389,2678,1844
2384,2691,1973
2362,2657,1945
2370,2651,1839
2386,2675,1903
2373,2683,1990
2351,2640,1899
2354,2629,1840
2384,2656,1887
2378,2663,1955
2346,2629,1878
2347,2623,1794
2368,2641,1873
2352,2639,1886
2320,2611,1842
2327,2608,1756
2362,2638,1837
2348,2635,1885
2321,2614,1834
2320,2597,1737
2341,2621,1776
2325,2624,1869
2299,2590,1798
2309,2581,1731
2340,2608,1790
2333,2617,1847
2293,2559,1792
2301,2551,1735
2317,2578,1771
2295,2582,1834
2279,2543,1767
2295,2537,1679
2320,2559,1777
2304,2559,1859
2269,2530,1758
2266,2515,1680
2301,2543,1772
2288,2548,1872
2249,2511,1779
2262,2493,1712
2283,2513,1814
2271,2509,1922
2241,2473,1891
2249,2448,1855
2263,2478,1975
2253,2471,2095
2225,2434,2043
2235,2419,1985
2256,2434,2080
2247,2437,2171
2226,2400,2110
2230,2384,2033
2256,2410,2137
2243,2416,2243
2211,2366,2191
2221,2352,2115
2237,2367,2179
2227,2367,2256
2195,2331,2192
2209,2309,2112
2230,2326,2192
2214,2327,2275
2238,2287,2195
2229,2281,2118
2235,2295,2202
2223,2295,2287
2247,2257,2209
2242,2254,2122
2224,2269,2199
2242,2256,2275
2203,2213,2195
2203,2203,2119
2277,2231,2192
2224,2225,2265
2195,2178,2190
2209,2161,2107
2219,2186,2187
2250,2189,2273
2239,2150,2192
2219,2128,2105
2219,2146,2163
2204,2153,2244
2219,2113,2178
2232,2098,2096
2256,2122,2160
2252,2122,2242
2234,2090,2162
2226,2068,2079
2279,2093,2147
2256,2086,2240
2235,2054,2174
2247,2037,2097
2263,2064,2160
2282,2065,2224
2233,2015,2145
2206,2000,2077
2301,2019,2153
2316,2023,2217
2253,1987,2137
2241,1968,2061
2288,1997,2138
2287,2001,2221
2219,1968,2146
2273,1947,2064
2336,1968,2130
2297,1975,2207
2237,1943,2130
2275,1931,2041
2289,1943,2112
2294,1951,2183
2249,1907,2118
2288,1899,2033
2311,1929,2117
2311,1930,2183
2320,1897,2101
2305,1887,2032
2384,1915,2128
2333,1910,2201
2307,1874,2111
2298,1862,2015
2303,1887,2094
2319,1889,2157
2295,1854,2089
2283,1841,2032
2374,1873,2102
2320,1879,2181
2333,1840,2096
2353,1825,2002
2382,1855,2081
2355,1869,2165
2337,1829,2095
2391,1813,1999
2416,1841,2071
2421,1850,2161
2368,1819,2092
2377,1809,1994
2407,1833,2065
2406,1844,2169
2386,1821,2097
2399,1808,2007
2423,1834,2080
2418,1835,2158
2394,1797,2077
2416,1787,1989
2448,1820,2074
2442,1834,2158
2410,1806,2079
2450,1799,2000
2493,1824,2070
2426,1840,2172
2394,1811,2098
2409,1803,2021
2511,1830,2087
2471,1831,2174
2459,1803,2099
2480,1793,2014
2547,1824,2085
2528,1823,2160
2465,1799,2099
2487,1795,2019
2518,1834,2099
2527,1838,2178
2481,1806,2091
2494,1792,2006
2542,1827,2090
2544,1840,2176
2509,1808,2113
2518,1798,2025
2513,1828,2099
2582,1839,2182
2581,1811,2112
2498,1791,2019
2533,1826,2094
2551,1835,2176
2531,1808,2106
2544,1797,2018
2559,1830,2099
2592,1840,2185
2618,1808,2099
2548,1807,2023
2559,1833,2107
2559,1843,2192
2591,1823,2123
2555,1809,2030
2559,1837,2107
2559,1845,2177
2612,1815,2106
2528,1812,2025
2608,1843,2099
2589,1850,2176
2556,1813,2106
2607,1808,2031
2621,1839,2115
2608,1849,2192
2559,1820,2114
2580,1807,2019
2611,1840,2100
2627,1854,2192
2605,1817,2112
2581,1813,2039
2633,1852,2127
2621,1853,2206
2590,1826,2112
2649,1820,2030
2590,1856,2121
2621,1869,2199
2608,1834,2121
2588,1831,2033
2690,1857,2109
2629,1859,2181
2641,1840,2118
2629,1841,2060
2605,1869,2130
2589,1875,2199
2559,1845,2119
2608,1840,2035
2611,1872,2121
2607,1872,2191
2559,1851,2121
2586,1847,2045
2649,1898,2128
2619,1907,2202
2559,1872,2112
2559,1853,2032
2603,1889,2113
2604,1902,2185
2559,1877,2113
2592,1875,2054
2613,1907,2131
2609,1920,2202
2581,1883,2123
2581,1885,2043
2598,1910,2117
2608,1922,2198
2583,1893,2123
2586,1885,2033
2605,1907,2110
2597,1922,2197
2559,1901,2127
2585,1892,2032
2597,1923,2101
2585,1936,2182
2555,1915,2126
2559,1907,2057
2602,1936,2128
2587,1946,2197
2547,1917,2110
2559,1917,2020
2593,1943,2109
2586,1955,2191
2546,1925,2117
2546,1911,2031
2559,1951,2107
2559,1959,2187
2541,1933,2114
2548,1918,2020
2559,1946,2094
2559,1955,2181
2533,1934,2109
2535,1930,2031
2559,1966,2103
2556,1968,2192
2519,1933,2111
2539,1933,2032
2554,1961,2099
2547,1971,2178
2526,1947,2112
2530,1939,2027
2549,1970,2096
2540,1980,2173
2511,1947,2107
2512,1938,2014
2543,1968,2086
2535,1981,2165
2503,1958,2094
2512,1949,2001
2542,1981,2089
2526,1987,2160
2487,1958,2087
2507,1957,2016
2532,1985,2096
2522,1986,2174
2487,1959,2095
2485,1959,1997
2511,1991,2079
2502,1995,2165
2477,1968,2090
2486,1965,2015
2509,1990,2090
2499,2000,2167
2473,1975,2095
2475,1968,1998
2496,1995,2079
2501,2003,2165
2465,1978,2090
2471,1975,2000
2503,2007,2096
2495,2021,2176
2463,1989,2087
2460,1979,1994
2478,2007,2069
2481,2032,2161
2467,2000,2108
2470,1984,2015
2495,2016,2086
2478,2027,2159
2447,1989,2068
2450,1985,1991
2480,2019,2087
2474,2032,2165
2443,1999,2083
2435,1990,1994
2471,2023,2085
2466,2035,2166
2429,2007,2080
2430,2000,1982
2454,2029,2061
2450,2038,2160
2427,2013,2095
2427,2003,2001
2457,2035,2079
2444,2045,2159
2416,2012,2077
2425,2002,1983
2447,2043,2079
2435,2059,2155
2399,2028,2077
2403,2022,1985
2431,2054,2066
2427,2057,2138
2399,2027,2079
2405,2027,2000
2422,2059,2069
2416,2064,2149
2391,2035,2076
2393,2017,1981
2421,2046,2064
2416,2065,2149
2382,2041,2084
2381,2032,1997
2403,2064,2063
2387,2067,2128
2375,2037,2055
2387,2032,1984
2417,2064,2059
2406,2068,2148
2366,2037,2069
2364,2032,1981
2394,2064,2042
2384,2079,2128
2358,2062,2064
2369,2042,1984
2385,2076,2060
2377,2079,2126
2351,2045,2034
2350,2032,1965
2384,2077,2064
2383,2084,2146
2343,2043,2064
2343,2032,1977
2371,2067,2047
2357,2077,2122
2331,2032,2045
2336,2031,1974
2359,2064,2060
2353,2078,2133
2318,2047,2047
2335,2037,1968
2355,2070,2040
2347,2083,2128
2320,2059,2044
2329,2042,1971
2351,2074,2058
2346,2080,2122
2309,1994,2044
2311,2093,1968
2334,2043,2045
2333,2081,2129
2306,2095,2054
2310,2093,1974
2331,2063,2053
2322,2128,2122
2288,2082,2047
2303,2055,1980
2330,2112,2057
2314,2101,2126
2287,2032,2032
2290,2071,1953
2326,2075,2039
2315,2079,2126
2288,2045,2045
2291,2015,1965
2311,2112,2026
2294,2099,2109
2273,2066,2032
2282,2042,1953
2309,2082,2032
2294,2087,2116
2273,2062,2035
2276,1998,1959
2302,2087,2032
2273,2083,2110
2245,2059,2028
2264,2064,1953
2299,2096,2028
2278,2090,2114
2246,2059,2035
2256,2043,1968
2278,2042,2039
2262,2078,2112
2227,2043,2021
2252,2035,1958
2276,2035,2030
2262,2079,2116
2228,2047,2032
2228,2038,1938
2262,2108,2021
2256,2090,2118
2227,2039,2054
2230,2032,1988
2257,2065,2078
2250,2093,2176
2209,2042,2114
2224,2034,2047
2237,2087,2121
2240,2018,2209
2205,2003,2139
2218,2032,2079
2243,2105,2157
2226,2078,2249
2195,2061,2171
2205,2000,2102
2224,2094,2178
2226,2053,2266
2190,2025,2191
2193,2007,2106
2229,2013,2176
2213,2064,2262
2178,2031,2205
2182,2065,2124
2207,2063,2193
2211,2085,2279
2179,2075,2193
2179,2029,2112
2203,2115,2183
2192,2070,2267
2161,2027,2187
2174,2011,2101
2199,2043,2163
2191,2064,2255
2160,2041,2179
2171,2031,2098
2193,2078,2162
2190,2073,2239
2161,2035,2167
2167,2009,2091
2191,2066,2163
2179,2073,2245
2150,2031,2158
2155,2038,2079
2180,2047,2147
2171,2053,2215
2143,1959,2141
2157,2030,2058
2186,2064,2132
2174,2081,2222
2145,1995,2141
2144,2029,2047
2175,2060,2128
2166,2061,2203
2140,2032,2121
2153,2067,2055
2167,2065,2130
2163,2101,2213
2127,2026,2123
2131,2005,2030
2166,2057,2122
2160,2062,2192
2123,2025,2111
2133,2025,2037
2171,2053,2114
2151,2064,2185
2118,2000,2096
2128,2000,2006
2160,2032,2094
2150,2021,2178
2128,1991,2103
2127,2043,2005
2147,2019,2080
2145,2045,2163
2123,2022,2095
2130,2058,2002
2152,1999,2065
2139,2119,2139
2106,2022,2075
2122,2085,2000
2151,2035,2076
2143,2031,2145
2108,2022,2063
2112,2054,1968
2159,2042,2061
2153,2064,2144
2117,2027,2065
2126,2059,1982
2148,2053,2034
2131,2034,2129
2112,1993,2062
2109,1986,1967
2145,2055,2044
2128,2103,2125
2101,2020,2034
2102,2007,1953
2137,2015,2026
2128,2113,2128
2105,2033,2053
2112,2013,1966
2135,2037,2032
2127,2064,2110
2101,1966,2027
2101,2015,1936
2127,2042,2019
2126,2057,2109
2096,2016,2027
2108,2077,1939
2128,2038,2015
2125,2058,2112
2082,2000,2016
2095,2043,1932
2127,2033,2020
2119,2132,2101
2091,2000,2012
2096,2103,1936
2122,2059,2001
2118,2055,2089
2085,2026,2007
2096,2027,1935
2126,2053,2012
2116,2085,2093
2092,2032,1995
2098,2026,1925
2119,2055,2002
2112,2057,2079
2091,2031,1990
2103,2023,1923
2118,2045,2000
2112,2059,2078
2082,2018,1999
2097,2006,1933
2119,2039,2000
2110,2058,2065
2067,2011,1973
2085,2013,1917
2111,2053,2000
2106,2053,2074
2079,2021,1982
2082,2006,1903
2110,2042,1986
2109,2047,2081
2079,2018,1984
2081,2009,1903
2109,2042,1978
2098,2046,2063
2074,2010,1981
2085,2018,1914
2112,2058,1983
2096,2062,2060
2064,2015,1972
2075,2007,1898
2102,2039,1976
2096,2047,2058
2059,2015,1979
2070,2010,1904
2099,2034,1978
2096,2056,2063
2065,2015,1989
2071,2014,1920
2105,2041,1994
2095,2047,2064
2064,2018,1981
2064,2007,1901
2093,2044,1979
2092,2054,2066
2067,2023,1989
2074,2011,1905
2098,2037,1970
2093,2044,2035
2064,2016,1965
2065,2013,1901
2101,2046,1981
2107,2059,2077
2066,2026,1984
2053,2005,1904
2085,2034,1968
2083,2041,2038
2061,2010,1966
2074,2001,1900
2108,2043,1985
2089,2063,2064
2061,2024,1973
2067,2015,1882
2096,2029,1965
2096,2041,2055
2064,2016,1977
2069,2014,1914
2096,2035,1974
2094,2055,2067
2061,2022,1981
2064,2009,1903
2097,2034,1974
2096,2052,2063
2069,2018,1979
2080,2017,1905
2096,2046,1983
2093,2045,2057
2071,2022,1984
2079,2013,1907
2101,2038,1974
2096,2055,2064
2064,2022,1984
2073,2013,1914
2096,2043,1985
2087,2046,2064
2042,2017,1978
2064,2007,1903
2099,2037,1984
2091,2038,2065
2063,2018,1991
2069,2021,1909
2089,2044,1979
2076,2055,2059
2064,2021,1970
2080,2019,1913
2101,2054,1989
2093,2054,2066
2062,2019,1984
2080,2013,1917
2103,2042,1987
2096,2057,2070
2061,2017,1985
2070,2005,1917
2096,2032,1988
2091,2039,2070
2055,2015,1984
2069,2010,1910
2096,2033,1994
2095,2045,2079
2078,2016,1990
2084,2003,1914
2097,2035,2000
2085,2040,2080
2058,2014,1982
2069,2000,1904
2102,2034,2002
2101,2053,2096
2068,2021,2001
2075,2009,1919
2094,2041,1979
2087,2056,2074
2067,2021,2000
2073,2016,1920
2097,2039,2000
2091,2042,2096
2044,2009,1997
2059,2002,1917
2101,2043,2010
2101,2053,2093
2064,2012,1997
2065,2002,1935
2093,2034,2009
2074,2042,2081
2046,2018,1991
2061,2016,1918
2096,2055,1995
2087,2064,2092
2066,2021,2001
2062,2013,1918
2079,2041,1995
2086,2055,2091
2059,2023,2007
2070,2007,1922
2098,2033,2001
2089,2044,2074
2047,2010,2008
2064,2006,1931
2095,2045,2000
2083,2046,2071
2059,2016,2003
2075,2018,1935
2097,2045,2005
2085,2043,2055
2053,2015,1968
2073,2011,1952
2096,2045,1967
2081,2041,2064
2044,2010,2016
2056,2000,1891
2084,2034,2001
2084,2039,2099
2051,2011,1965
2064,2005,1895
2098,2045,1965
2091,2045,2110
2055,2011,2015
2061,2002,1914
2092,2039,2002
2091,2046,2112
2058,2007,1966
2064,2001,1907
2081,2027,1984
2068,2043,2073
2047,2015,1996
2078,2007,1927
2095,2032,1966
2081,2031,2077
2062,2002,1978
2071,2007,1940
2090,2034,2015
2091,2054,2086
2063,2015,2023
2069,2002,1931
2093,2032,1991
2082,2037,2069
2059,2007,1968
2064,2005,1909
2090,2032,1969
2083,2029,2065
2051,1999,1982
2063,1999,1911
2079,2027,1999
2081,2038,2079
2063,2012,2003
2065,2003,1920
2080,2027,1993
2071,2032,2068
2064,2019,1999
2071,2001,1952
2093,2029,1952
2076,2031,2064
2043,2000,1985
2065,1997,1922
2096,2029,2021
2077,2038,2055
2047,2004,2023
2063,1996,1895
2092,2032,2042
2086,2043,2061
2047,2000,1975
2059,1997,1911
2084,2025,2003
2074,2032,2032
2037,1999,2005
2060,1997,1930
2091,2031,1986
2069,2032,2069
2043,2000,1982
2060,2000,1923
2090,2031,2010
2080,2032,2087
2047,2001,1984
2047,1995,1907
2081,2026,1997
2083,2037,2071
2044,2001,1984
2055,1990,1906
2085,2026,1983
2078,2035,2071
2041,2005,1994
2055,1995,1904
2079,2021,1982
2064,2022,2065
2041,2002,1993
2061,1990,1909
2082,2021,1965
2067,2031,2066
2035,1993,1973
2047,1986,1923
2087,2021,2015
2064,2031,2141
2038,2003,1987
2033,1990,1872
2075,2026,2020
2065,2032,2015
2035,1994,1987
2054,1990,1875
2087,2030,1999
2071,2031,2079
2033,1995,2009
2054,1985,1911
2078,2019,1979
2059,2022,2055
2032,1993,1987
2042,1983,1883
2066,2021,1958
2069,2029,2086
2039,1998,1985
2035,1984,1901
2069,2016,2000
2063,2027,2082
2032,1998,1986
2045,1989,1874
2068,2019,1976
2061,2021,2034
2019,1987,1998
2033,1978,1910
2066,2009,1962
2069,2013,2087
2039,1987,1952
2043,1984,1920
2073,2019,2037
2073,2021,2026
2045,1987,1968
2057,1981,1939
2074,2011,1997
2067,2019,2063
2033,1999,1984
2054,1987,1902
2076,2013,1970
2073,2017,2060
2034,1986,1957
2043,1969,1881
2075,2010,1968
2067,2022,2061
2046,1994,2015
2056,1989,1902
2079,2015,1999
2069,2019,2023
2032,1985,1961
2042,1983,1889
2083,2010,1981
2078,2021,2057
2045,1989,1974
2041,1985,1904
2059,2001,1957
2055,2010,2042
2039,1986,1971
2059,1982,1910
2075,2015,1970
2055,2013,2058
2029,1981,1936
2044,1981,1901
2084,2009,2039
2065,2021,2057
2029,1984,1998
2042,1979,1966
2075,2016,1993
2059,2010,2013
2031,1984,1971
2043,1971,1855
2070,2009,1984
2059,2013,2074
2023,1981,1971
2038,1982,1907
2077,2001,1973
2064,2006,2054
2039,1980,1970
2055,1981,1904
2075,2004,1977
2063,2015,2046
2035,1985,1975
2041,1979,1904
2065,2005,1980
2064,2010,2047
2033,1975,1967
2039,1979,1905
2067,2006,1987
2047,2017,2059
2029,1991,1970
2043,1985,1914
2065,2003,1984
2045,2003,2058
2017,1982,1969
2033,1969,1904
2061,2002,1983
2043,2007,2064
2022,1968,1970
2034,1967,1901
2067,2000,1979
2064,2005,2064
2017,1978,1973
2038,1967,1895
2079,2005,1982
2091,2019,2065
2013,1974,1973
2038,1967,1895
2063,2000,1970
2041,2007,2047
2041,1977,1973
2043,1968,1897
2071,2000,1975
2087,2005,2062
2054,1979,1973
2036,1968,1892
2010,1995,1971
2038,2000,2045
2047,1975,1967
2033,1971,1904
2065,2003,1984
2036,2001,2043
2015,1971,1956
2030,1968,1888
2105,2003,1984
2086,2006,2063
2032,1977,1970
2062,1966,1904
2067,1993,1971
2057,1994,2035
2029,1963,1953
2032,1965,1893
2077,2002,1987
2039,2000,2063
2011,1973,1968
2080,1973,1904
2046,2000,1978
2055,2000,2058
2018,1973,1968
2026,1963,1886
2064,1994,1965
2089,1997,2043
2003,1969,1959
2032,1969,1894
2045,1995,1965
2047,2000,2037
2032,1975,1959
2039,1971,1885
2093,2001,1970
2040,2003,2047
1993,1979,1974
2027,1968,1895
2064,1985,1959
1984,1996,2031
2053,1966,1952
1989,1968,1895
2087,1995,1966
2066,2000,2027
1968,1969,1960
2001,1967,1904
2075,1996,1982
2035,2010,2032
1996,1975,1953
2018,1975,1901
2070,1998,1982
2057,2003,2055
2019,1968,1962
2034,1963,1890
2045,1987,1971
2027,1995,2038
2037,1964,1953
2007,1966,1888
2037,1999,1964
2023,1999,2036
2009,1970,1957
2034,1968,1887
2045,1999,1964
2041,1993,2039
2015,1968,1952
2021,1965,1889
2053,1993,1973
2032,1994,2044
2019,1968,1967
2033,1959,1885
2057,1985,1966
2031,1995,2034
2027,1965,1949
1990,1965,1887
2083,1986,1968
2001,1990,2031
1968,1965,1955
2006,1959,1895
2066,2000,1985
2041,2000,2043
2003,1958,1940
2074,1955,1891
2053,1997,1981
2039,1995,2055
2011,1949,1946
2015,1958,1876
2044,1995,1968
2042,1999,2052
2010,1968,1953
2016,1958,1875
2042,1984,1963
2029,1994,2032
2005,1964,1938
1989,1963,1885
2077,1997,1984
2096,1999,2046
2013,1968,1961
2065,1961,1880
2047,1985,1955
2022,1985,2035
2064,1950,1946
2003,1951,1881
2085,1988,1968
2054,1990,2031
1967,1952,1953
2071,1945,1886
2013,1978,1969
2063,1986,2037
1985,1957,1953
2033,1959,1885
2015,1996,1973
2032,1993,2043
2000,1962,1942
2009,1953,1872
2035,1986,1956
2031,1991,2021
2010,1968,1955
2019,1961,1894
2035,1989,1968
2029,1991,2035
2014,1967,1947
2015,1963,1886
2007,1995,1973
2035,2000,2043
2000,1961,1955
2004,1956,1894
2036,1990,2000
2029,1998,2079
2031,1968,1994
2000,1959,1921
2038,1998,2000
2042,2000,2081
1990,1966,1983
1982,1963,1915
2000,1984,2004
2016,1992,2082
1983,1971,2000
1994,1963,1921
2011,1987,1991
2000,1994,2061
2029,1965,1976
2058,1959,1906
2035,1995,1989
2001,1993,2066
1978,1955,1969
2013,1943,1905
2039,1983,1974
2039,1993,2060
2002,1969,1981
1999,1951,1904
2016,1979,1963
2003,1985,2038
1985,1957,1959
2003,1957,1891
2028,1978,1965
2017,1984,2035
1991,1957,1941
2000,1951,1879
2023,1980,1966
2006,1983,2027
1993,1956,1943
2010,1953,1875
2031,1982,1965
2007,1978,2017
1982,1942,1927
1988,1939,1861
2025,1973,1950
2029,1985,2031
1998,1957,1947
1995,1951,1870
2031,1981,1946
2022,1971,2010
1999,1949,1921
2000,1940,1851
2018,1975,1942
2011,1981,2007
1986,1953,1925
2000,1943,1849
2007,1977,1925
2015,1982,2006
2000,1953,1918
2003,1952,1857
2026,1979,1937
2001,1984,1989
1977,1956,1918
1995,1959,1865
2019,1981,1942
2010,1984,2000
1974,1949,1904
1995,1947,1834
2027,1977,1925
2010,1985,1983
1986,1953,1898
2000,1957,1845
2030,1985,1933
2015,1985,1986
1984,1953,1900
1997,1958,1838
2021,1984,1920
2006,1989,1982
1970,1955,1887
1994,1951,1825
2029,1983,1910
2015,1977,1985
1982,1947,1895
1981,1937,1830
2000,1981,1907
2005,1989,1975
1989,1959,1902
1997,1943,1830
2006,1972,1913
1998,1979,1971
1971,1962,1895
1991,1957,1830
2017,1989,1907
2014,1984,1981
1981,1957,1897
1991,1950,1830
2012,1977,1915
2001,1991,1984
1979,1968,1897
1996,1965,1837
2022,1987,1902
2002,1994,1984
1979,1965,1899
1998,1963,1840
2015,1984,1922
2010,1989,1986
1984,1963,1903
1997,1963,1832
2011,1990,1915
2000,1999,1981
1971,1956,1902
1989,1949,1827
2017,1987,1919
2013,2000,1996
1984,1968,1903
1995,1968,1825
2011,1987,1917
2005,1995,1997
1985,1963,1913
1995,1967,1837
2014,1990,1915
2000,1989,1984
1977,1967,1902
1989,1965,1833
2009,1986,1910
2002,1995,1987
1984,1963,1904
1993,1972,1840
2019,2000,1929
2001,2001,1986
1979,1967,1897
1997,1962,1836
2012,1987,1920
2001,2000,1987
1983,1962,1893
1992,1961,1820
2017,2000,1936
2008,2000,2007
1983,1973,1911
2000,1969,1840
2034,2001,1929
2014,2003,1987
1984,1968,1907
2002,1964,1844
2025,1996,1937
2011,2003,2011
1989,1981,1925
1997,1970,1854
2021,2000,1932
2003,2002,2004
1994,1974,1921
2003,1965,1845
2030,2001,1933
2006,2010,2015
1978,1975,1918
2003,1972,1851
2035,2011,1951
2026,2014,2015
2002,1982,1921
2011,1976,1851
2031,2002,1945
2018,2003,2006
1991,1974,1911
2000,1973,1854
2032,2000,1936
2016,2007,2011
1986,1969,1907
2000,1966,1840
2016,2000,1927
2023,2007,2013
2000,1975,1920
2009,1975,1856
2035,2007,1952
2020,2004,2011
1993,1975,1914
2000,1969,1850
2027,1999,1935
2016,2036,2003
1979,1993,1914
1989,1954,1846
2019,1965,1938
2011,1983,2005
1975,2022,1911
1997,2009,1857
2031,2027,1961
2011,2003,2014
1987,2000,1922
2003,2006,1855
2032,2021,1937
2011,2022,2011
1983,1968,1922
2000,1947,1851
2026,2061,1951
2011,2018,2018
1981,2000,1920
2000,2001,1867
2031,2046,1954
2023,2013,2029
2000,1968,1939
2000,1968,1866
2029,2005,1956
2017,1971,2019
1988,2010,1914
2011,1997,1861
2031,1984,1958
2017,2001,2031
1991,1974,1933
2014,1971,1861
2034,1986,1941
2027,2018,2031
2003,1991,1951
2011,1983,1885
2032,2000,1957
2023,2032,2021
2000,1987,1936
2006,1978,1867
2030,2003,1956
2017,1983,2027
2000,2000,1939
2019,1968,1886
2038,2016,1973
2017,2014,2031
1998,1979,1929
2010,1975,1879
2037,2005,1980
2019,2027,2035
1999,1975,1937
2013,1961,1877
2031,2000,1965
2005,2036,2027
1985,1990,1930
2013,1991,1872
2046,2019,1962
2031,1984,2027
1984,1947,1929
2000,2007,1869
2037,2027,1968
2031,2033,2036
1990,1977,1936
2003,1984,1869
