2045,2171,2006
2063,2160,1962
2087,2175,2045
2091,2172,2096
2064,2123,2007
2067,2102,1975
2098,2123,2074
2087,2109,2112
2071,2060,2005
2084,2058,1951
2145,2108,2081
2163,2106,2138
2068,1990,1927
2080,1995,1895
2095,2002,2010
2047,1998,2096
2037,1959,1983
2075,1968,1925
2103,2078,2031
2096,2151,2085
2055,1851,1954
2075,1775,1906
2115,1904,2014
2096,1901,2036
2023,1836,1885
2079,1856,1861
2416,2022,2035
2517,2012,2096
1904,1788,1890
1744,1738,1884
1907,1855,1975
2029,1900,2022
2066,1893,1947
2090,1943,1883
2074,1858,1962
2032,1804,2011
2041,1805,1936
2085,1851,1906
2087,1872,1997
2081,1886,2029
2275,2005,2103
2139,1882,1920
1916,1776,1843
1929,1811,1911
2008,1822,1877
2064,1819,1857
2081,1859,1978
2042,1904,2018
2034,1869,1930
2073,1867,1892
2086,1894,1987
2046,1885,2021
2025,1851,1908
2039,1856,1856
2081,1890,1962
2064,1888,2027
2039,1866,1941
2195,1974,1995
2151,1923,2014
1953,1798,1913
1935,1805,1840
2015,1854,1867
2071,1904,2000
2064,1892,2000
2023,1859,1887
2037,1872,1878
2059,1898,1981
2053,1893,2101
2033,1857,2077
2032,1859,1814
2053,1890,1861
2028,1878,1942
2003,1847,1870
2019,1856,1854
2039,1891,1949
2015,1895,2006
1987,1865,1919
2012,1871,1833
2029,1903,1914
2018,1894,1970
1997,1867,1883
2010,1872,1859
2026,1895,1959
2008,1883,1975
1996,1850,1872
2007,1867,1835
2030,1906,1942
2014,1900,1995
1999,1863,1888
2006,1865,1827
2021,1885,1907
2007,1879,1967
2005,1856,1874
2022,1861,1840
2031,1889,1943
2021,1898,1995
2007,1867,1885
2025,1869,1840
2045,1899,1920
2025,1886,1965
1990,1850,1863
2007,1860,1827
2037,1902,1940
2019,1899,1983
2000,1867,1883
2019,1872,1845
2044,1915,1934
2024,1908,1970
1998,1853,1867
2018,1840,1815
2032,1863,1894
2003,1851,1943
1987,1840,1867
2025,1867,1840
2043,1897,1921
2013,1895,1950
1984,1843,1845
2007,1842,1807
2023,1881,1897
2000,1872,1940
1991,1829,1845
2011,1840,1803
2027,1879,1926
2000,1875,1967
2000,1847,1855
2025,1851,1817
2044,1884,1906
2000,1883,1931
1983,1837,1827
2010,1838,1792
2032,1875,1904
2017,1887,1945
1974,1838,1825
1989,1858,1767
2025,1887,1904
2016,1859,1955
1987,1830,1846
2000,1839,1798
2032,1882,1889
2016,1872,1909
1991,1831,1810
2003,1840,1808
2034,1890,1906
2009,1887,1939
1975,1853,1831
2015,1871,1802
2032,1884,1882
2002,1874,1936
1991,1845,1845
2021,1841,1809
2045,1895,1898
2019,1888,1937
2000,1872,1840
2030,1869,1807
2055,1898,2038
2031,1856,2253
2013,1835,2139
2021,1875,1958
2047,1894,1896
2033,1897,1909
2016,1841,1828
2037,1907,1790
2034,1914,1863
2023,1876,1930
2011,1856,1851
2041,1865,1813
2063,1936,1904
2033,1855,1946
2013,1923,1847
2031,1943,1804
2032,1952,1872
2015,1915,1917
2033,1905,1853
2075,1966,1840
2073,1967,1917
2029,1914,1936
2014,1912,1850
2036,1872,1807
2062,1927,1911
2041,1947,1963
2017,1930,1865
2032,1945,1810
2059,1991,1906
2055,2032,1975
2033,1904,1867
2053,1938,1831
2064,1966,1917
2029,1971,1963
2031,1955,1872
2047,2009,1840
2071,2019,1925
2033,1982,1951
2016,1957,1843
2033,1943,1814
2059,1974,1915
2029,1967,1947
2000,1967,1841
2025,1956,1808
2071,2019,1936
2047,2013,1974
2011,1979,1862
2016,1977,1818
2039,2005,1911
2034,2059,1956
2013,2002,1863
2021,2000,1805
2022,1990,1889
2015,1990,1940
2000,1933,1853
2009,1987,1823
2027,1984,1910
2016,1986,1957
1987,1962,1857
2010,1931,1813
2027,1987,1897
1995,1993,1935
1978,1985,1856
1998,2013,1813
2000,2027,1889
1978,2000,1929
1968,1969,1844
1996,1970,1783
2011,2023,1884
2002,2032,1966
1979,1962,1857
1970,1929,1792
1990,2001,1899
1978,2091,1936
1954,1963,1827
1958,1905,1777
1979,1959,1866
1955,1984,1905
1937,1953,1808
1968,1975,1804
1999,2000,1897
1968,2046,1926
1936,1979,1822
1954,1962,1788
1966,1968,1872
1936,1904,1907
1922,1935,1807
1958,2000,1789
1985,2013,1890
1938,2000,1898
1929,1923,1824
1967,2017,1827
1985,1982,1907
1947,2000,1920
1927,1982,1831
1947,1999,1795
1968,2018,1884
1954,2014,1917
1935,1982,1837
1950,1983,1793
1953,2002,1866
1915,1983,1904
1910,1969,1839
1972,1987,1835
1987,2021,1911
1961,2063,1941
1933,1968,1840
1953,1898,1799
1967,1997,1883
1938,1978,1923
1911,2030,1831
1921,1945,1787
1958,1986,1901
1963,2006,1957
1950,2032,1872
1953,1955,1837
1968,1981,1903
1942,2000,1934
1923,1917,1853
1947,1987,1808
1968,1995,1903
1950,2007,1936
1929,1952,1839
1936,1984,1806
1946,1959,1893
1930,1925,1936
1920,1981,1854
1938,2000,2010
1968,2007,2231
1941,2007,2032
1910,1936,1808
1915,1921,1744
1951,2000,1863
1940,2000,1949
1935,2014,1862
1940,1958,1813
1951,2002,1895
1937,1984,1942
1921,1919,1850
1937,1873,1806
1943,1981,1879
1921,2006,1920
1934,1970,1847
1956,1954,1842
1967,1984,1927
1935,2062,1943
1907,2000,1849
1931,1954,1819
1963,2006,1905
1936,2027,1941
1912,1966,1845
1931,2003,1811
1950,1922,1914
1937,1933,1968
1921,1968,1863
1938,1995,1820
1953,1979,1926
1936,2047,1966
1915,1982,1872
1931,1977,1838
1953,2009,1923
1941,1989,1957
1931,1966,1871
1939,1968,1837
1959,2000,1917
1946,1985,1964
1927,1951,1886
1936,1955,1837
1952,1973,1906
1934,1979,1962
1925,1938,1878
1946,1968,1855
1973,1979,1933
1950,1979,1966
1923,1950,1870
1951,1973,1847
1979,1984,1938
1961,1984,1982
1933,1942,1885
1943,1962,1846
1959,1987,1920
1939,1969,1947
1930,1950,1890
1965,1963,1871
1968,1983,1947
1946,1968,1977
1933,1972,1881
1953,1943,1840
1969,1967,1924
1950,1971,1974
1943,1968,1894
1968,1966,1871
1983,1968,1955
1962,1964,1978
1937,1963,1893
1968,1970,1881
1990,1994,1953
1963,1981,1985
1936,1943,1906
1963,1957,1869
1978,1997,1948
1964,2025,1983
1938,1975,1903
1957,1930,1857
1982,1985,1950
1959,1987,1983
1943,1960,1899
1981,1971,1882
2000,1998,1964
1983,1990,2002
1952,1971,1920
1968,1970,1873
1985,1996,1953
1969,1997,1995
1948,1958,1904
1959,1963,1855
1991,1993,1943
1991,2003,2011
1968,1985,1936
1984,1999,1904
1990,1989,1959
1979,1987,1983
1965,1961,1923
1983,1961,1899
2001,2000,1958
1983,2000,1991
1965,1974,1920
1982,1980,1890
1998,2000,1957
1989,2002,1989
1975,1985,1913
1983,1972,1872
1999,1994,1938
1983,1998,1984
1979,1984,1921
1999,1983,1894
2015,1985,1965
1995,1987,1994
1978,1984,1909
1983,1965,1865
1983,1974,1937
1974,1990,1981
1984,1995,1946
2002,1986,1900
2015,1985,1956
2000,1974,2000
1982,1975,1927
1989,1982,1870
2009,2000,1931
1983,2000,2007
1965,1968,1943
1981,1953,1890
1998,1946,1967
1984,1956,1999
1968,1972,1914
1970,1975,1858
2017,1990,1959
2012,1978,2016
1987,1953,1939
2005,1963,1909
2036,2001,1983
2015,2000,2022
1987,1957,1936
2002,1946,1890
2015,1968,1962
1996,1984,2022
1975,1968,1943
2009,1956,1905
2031,1962,1977
2000,1959,2006
1978,1914,1927
2000,1947,1903
2047,1994,1985
2032,1985,2025
2003,1968,1962
2011,1968,1907
2032,1963,1933
2010,1984,1969
1983,1982,1946
2017,1941,1938
2047,1947,1989
2031,1962,2000
1995,1951,1941
2003,1924,1904
2017,1951,1933
2005,1967,1980
2011,1984,1967
2032,1951,1936
2058,1962,1980
2031,1971,1998
2015,1974,1943
2029,1967,1921
2057,1969,1975
2037,1962,2002
2010,1962,1957
2026,1962,1933
2064,1943,1980
2042,1963,1996
2027,1987,1956
2033,1983,1921
2061,1954,1968
2033,1944,1996
2001,1949,1947
2016,1954,1914
2030,1949,1937
2044,1949,2009
2064,1974,1999
2073,1966,1947
2085,1914,1968
2042,1941,1983
2019,1968,1968
2047,1967,1942
2087,1968,1984
2068,1965,1968
2042,1946,1968
2064,1943,1877
2079,1983,1939
2064,1984,1985
2043,1942,1973
2073,1949,1983
2094,1968,1941
2071,1965,1996
2054,1951,1965
2070,1922,1957
2087,1975,1976
2082,1986,1989
2055,1941,1963
2070,1939,1936
2091,1970,1975
2075,1971,2000
2051,1957,1977
2065,1958,1938
2096,1965,1980
2082,1968,1994
2064,1973,1983
2067,1958,1938
2079,1946,1985
2071,1942,1958
2047,1936,1970
2058,1939,1930
2080,1953,1969
2078,1947,1953
2058,1945,1959
2075,1942,1938
2092,1952,2005
2069,1968,2013
2042,1958,1939
2061,1938,1920
2069,1956,1965
2069,1945,1987
2042,1919,1938
2046,1936,1937
2067,1938,1973
2059,1943,2000
2039,1949,1925
2054,1951,1927
2075,1947,1968
2064,1927,1968
2037,1936,1934
2065,1936,1932
2079,1939,1946
2064,1941,1935
2035,1937,1922
2045,1936,1901
2077,1921,1975
2063,1909,1994
2039,1943,1955
2039,1947,1909
2064,1931,1933
2047,1930,1974
2031,1930,1906
2039,1935,1895
2064,1934,1943
2047,1917,1981
2031,1926,1873
2033,1911,1883
2058,1922,1966
2042,1930,1968
2018,1914,1884
2023,1908,1876
2043,1920,1970
2039,1920,1957
2017,1904,1915
2031,1945,1894
2038,1936,1947
2032,1935,1950
2015,1905,1908
2022,1905,1909
2043,1920,1942
2035,1911,1949
2001,1902,1891
2015,1901,1893
2032,1910,1939
2026,1914,1914
2004,1905,1904
2018,1904,1903
2033,1919,1958
2026,1923,1947
2002,1921,1914
2002,1920,1904
2017,1943,1931
2010,1920,1947
1997,1907,1901
2006,1917,1878
2015,1937,1939
2005,1931,1948
1991,1915,1885
1999,1926,1926
2015,1933,1935
2008,1934,1949
1989,1919,1877
1995,1936,1895
2015,1957,1938
2014,1936,1947
2000,1935,1901
2002,1926,1895
2013,1942,1970
2006,1955,1963
1990,1931,1890
1999,1927,1904
2016,1932,1920
2011,1938,1984
1988,1922,1893
1999,1962,1881
2000,1966,1914
1996,1960,1922
1986,1942,1913
1999,1936,1881
2011,1946,1929
1998,1950,1901
1987,1957,1924
1989,1950,1894
2000,1936,1980
1994,1936,1921
1984,1927,1911
1985,1940,1901
2003,1950,1936
1991,1945,1936
1980,1936,1886
1979,1931,1886
2000,1943,1893
1994,1946,1927
1977,1939,1884
1984,1946,1890
1995,1950,1983
1990,1946,1911
1977,1959,1936
1984,1975,1899
1986,1974,1906
1985,1954,1936
1971,1936,1889
1983,1954,1888
1990,1968,1961
1991,1979,1934
1978,1927,1878
1985,1963,1930
1997,1982,1934
1994,1968,1918
1971,1970,1872
1979,1961,1870
1989,1957,1936
1988,1968,1915
1981,1963,1906
1983,1968,1872
1997,1975,1907
1983,1959,1921
1966,1954,1927
1971,1975,1885
1986,1973,1938
1979,1972,1936
1967,1961,1926
1967,1965,1872
1979,1971,1920
1975,1970,1934
1968,1949,1891
1975,1954,1889
1984,1974,1936
1969,1969,1931
1959,1961,1877
1971,1967,1897
1991,1987,1950
1985,1985,1950
1967,1969,1892
1969,1984,1898
1989,1987,1936
1984,1979,1935
1968,1959,1885
1972,1966,1892
1997,1993,1951
1988,1995,1939
1973,1975,1904
1978,1983,1915
1994,2001,1945
1983,2000,1950
1966,1981,1893
1974,1979,1887
1991,1984,1946
1979,1983,1941
1961,1958,1895
1979,1968,1900
1997,1986,1953
1985,1971,1948
1967,1957,1899
1998,1984,1907
1935,2000,1946
1998,1997,1939
1959,1967,1900
1984,1955,1898
2000,1983,1947
1971,1983,1953
1991,1968,1902
1963,1969,1909
2019,1993,1954
2000,1973,1947
1932,1970,1890
1955,1981,1895
2026,1993,1957
1986,1983,1968
1994,1979,1907
2026,1971,1910
1984,1999,1959
1963,1999,1954
1965,1983,1904
1976,1977,1904
1999,1994,1959
2017,1978,1962
1997,1975,1910
1984,2007,1920
2032,1997,1966
2033,1991,1969
1958,1977,1920
2000,1990,1923
2000,1993,1969
1999,1995,1961
1979,1989,1910
2025,1984,1922
2015,1986,1977
1997,1979,1966
1967,1966,1904
1987,1974,1916
2005,1990,1968
2003,1984,1967
1984,1978,1911
1957,1994,1923
2005,2022,1968
1995,1996,1955
1972,1968,1920
1990,1994,1936
2011,2000,1983
2003,2000,1982
1989,1985,1919
2017,1985,1927
1991,2002,1983
2003,1993,1969
2017,1968,1921
2027,1983,1926
2015,2013,1981
2023,2000,1967
2008,1967,1907
1969,1973,1921
2019,1999,1975
2007,2013,1968
2021,1978,1911
2017,1975,1920
1969,2007,1977
1968,1986,1968
1979,1963,1919
1985,2003,1921
2017,2015,1973
2009,1994,1966
1971,1975,1921
1959,1979,1929
2069,2003,1971
2032,2000,1966
1995,1984,1920
1990,1985,1922
2014,1990,1973
2005,1995,1968
1995,1989,1915
2000,2000,1922
2032,2007,1975
2017,1994,1979
1986,1966,1917
1999,1975,1919
2029,2003,1983
2013,1995,1968
1994,1967,1921
2021,1991,1929
1983,2011,1981
1982,1975,1968
1975,1959,1915
2000,1986,1933
2000,1991,1978
2017,1991,1975
2000,1970,1923
2035,1985,1931
2017,2001,1986
2005,2002,1984
1998,1969,1927
2002,1981,1935
2011,2003,1978
2017,1991,1970
1998,1975,1936
2010,1982,1943
2014,2001,1983
2023,1995,1973
1999,1983,1925
1997,1970,1936
1987,1990,1987
2021,1990,1982
2042,1975,1905
2032,1995,1923
2032,2010,1985
1953,1995,1969
1958,1962,1926
2028,1966,1944
2087,1987,2000
2020,2001,1953
1963,1974,1892
1987,1983,1922
1994,2000,1985
2003,1999,1971
2030,1978,1919
2014,1995,1926
2079,2001,1978
1983,1997,1975
2065,1991,1920
2014,2002,1930
2035,2018,1978
2029,2000,1972
2000,1984,1926
2010,2015,1930
2041,2037,1984
2019,2031,1975
2007,1969,1915
2013,1974,1933
2007,1997,1984
2036,2015,1971
2011,1996,1919
2032,2007,1936
2058,2035,1981
2034,2023,1980
2011,2007,1936
2026,2007,1934
1968,2032,1990
2043,2017,1988
2018,2002,1936
2023,2001,1927
2007,2030,1977
2029,2058,1979
2036,2007,1931
2032,2000,1936
1994,2019,1975
2037,2015,1969
2013,2001,1920
2014,2027,1938
1970,2035,1985
2096,2020,1973
2021,1999,1932
1919,2017,1950
2033,2032,1994
2021,2003,1973
2018,1994,1920
2031,2005,1934
2053,2037,1990
2039,2032,1982
2022,1991,1924
2026,2010,1936
2057,2026,1984
2041,2023,1974
2017,2003,1927
2033,2000,1949
2047,2062,1984
2032,2039,1981
2021,2020,1923
2032,2004,1939
2041,2033,1982
2043,2022,1969
2010,2000,1912
2020,2023,1930
2044,2031,1980
2032,2002,1971
2018,2005,1922
2030,2032,1935
2045,2057,1981
2037,2037,1968
2017,2001,1908
2025,2001,1929
2044,2031,1981
2029,2027,1967
2015,2000,1911
2021,1995,1924
2042,2025,1983
2043,2015,1971
2023,2001,1922
2032,2021,1926
2042,2031,1973
2032,2017,1966
2017,2000,1919
2032,2023,1935
2061,2041,1978
2033,2015,1968
2013,2000,1918
2031,2010,1931
2032,2026,1971
2029,2000,1955
2005,1989,1919
2022,1999,1934
2037,2032,1978
2026,2019,1963
2006,1993,1907
2011,2000,1918
2031,2018,1970
2026,2005,1953
2014,1983,1909
2013,2001,1924
2033,2011,1977
2023,2001,1963
2000,1984,1905
2020,1995,1920
2038,2015,1973
2021,2002,1968
2001,1987,1918
2011,1998,1921
2031,2010,1971
2023,2000,1969
2000,1968,1915
2005,2000,1919
2025,2019,1973
2021,1993,1961
2000,1984,1907
2013,1999,1930
2031,2023,1983
2029,1995,1959
2010,1971,1911
2011,1988,1934
2027,2000,1985
2025,1978,1973
2003,1993,1919
2018,2000,1929
2032,2006,1968
2028,2012,1966
2007,1998,1920
2022,1973,1923
2033,1995,1973
2030,1982,1949
2012,1969,1902
2021,1975,1923
2037,1993,1975
2030,1994,1965
2007,1979,1907
2021,1991,1921
2032,2000,1971
2027,1985,1957
2000,1989,1904
2016,1993,1925
2031,1991,1969
2021,1985,1958
2007,1970,1905
2018,1993,1923
2032,2003,1981
2027,1995,1968
2006,1969,1906
2014,1990,1920
2039,2013,1967
2032,1970,1943
2011,1954,1913
2006,1970,1935
2031,2021,1974
2019,2017,1963
2003,1966,1911
2017,1979,1923
2031,1995,1965
2027,1982,1954
2003,1968,1904
2019,1981,1923
2039,1997,1973
2023,1989,1954
2005,1998,1907
2010,1954,1914
2031,1973,1963
2017,1961,1943
2004,1954,1904
2011,1970,1914
2032,1990,1964
2018,1979,1953
2004,1967,1899
2007,1983,1917
2024,2000,1968
2017,1995,1955
2000,1969,1900
2003,1978,1914
2021,1988,1966
2009,1986,1943
2000,1968,1892
2013,1982,1915
2032,1984,1963
2015,1968,1950
2000,1953,1900
2005,1981,1903
2023,2001,1956
2019,1979,1947
2000,1968,1904
2003,1982,1916
2019,1993,1957
2014,1985,1947
1995,1984,1894
2001,1990,1913
2018,1983,1967
2007,1978,1946
1985,1968,1893
2002,1968,1911
2021,1998,1953
2009,1971,1941
1990,1957,1898
2000,1981,1915
2015,1991,1966
2000,2019,1942
1990,1945,1894
1999,1967,1904
2019,1997,1949
2016,2020,1947
1991,1964,1906
1995,1979,1909
2007,1933,1953
2005,1978,1950
1991,1989,1900
2000,1936,1907
2016,1985,1961
2009,1958,1949
1993,1968,1888
1997,1968,1898
2015,2000,1963
2011,1984,1949
1987,1930,1890
1999,1955,1902
2015,1997,1951
2000,1972,1941
1984,1939,1904
2000,1993,1909
2013,1984,1955
2007,1953,1937
1994,1974,1895
2005,1942,1917
2021,1999,1962
2009,1968,1942
1993,1972,1887
2000,1919,1904
2017,2007,1950
2013,1967,1945
1989,1939,1890
2002,1978,1905
2022,1997,1961
2011,1965,1953
1994,1948,1890
2003,1973,1911
2021,2003,1957
2007,1970,1933
1990,1931,1889
2000,1970,1909
2030,1975,1962
2019,1966,1940
1994,1946,1904
2009,1982,1919
2026,1959,1961
2000,1969,1936
1993,2005,1889
2003,1993,1907
2017,1983,1952
2004,1967,1943
1991,1945,1899
1998,1979,1909
2021,2025,1958
2005,1972,1942
1993,1992,1899
2000,1948,1911
2012,1978,1957
2006,1936,1945
1987,1923,1893
1994,1982,1910
2007,1990,1953
2001,1977,1936
1984,1968,1901
2000,1984,1921
2023,2015,1958
2007,1969,1931
1991,1967,1889
2000,1974,1905
2021,1968,1959
2005,1985,1941
1982,1951,1893
1991,1945,1904
2011,1951,1948
2000,1955,1936
1984,1952,1880
1993,1965,1905
2007,1984,1957
2005,1938,1939
1984,1939,1875
1990,1964,1904
2007,1983,1957
1995,1943,1937
1979,1903,1887
1991,1965,1909
2000,2032,1957
1991,1840,1936
1973,1983,1889
1990,1970,1901
2005,1979,1945
1995,1947,1941
1974,1950,1901
1984,1965,1907
2005,2000,1954
1997,1984,1940
1973,1962,1898
1980,1936,1903
2001,1954,1949
1998,1947,1938
1982,1919,1893
1987,1936,1902
2003,1999,1949
1986,1978,1932
1969,1915,1882
1981,1959,1904
2000,1968,1959
1985,1999,1941
1968,1892,1887
1971,1946,1902
2000,1986,1958
1983,1946,1936
1967,1921,1879
1974,1954,1906
1985,1975,1957
1985,1960,1941
1969,1978,1899
1981,1931,1913
2000,2031,1951
1984,1984,1934
1967,1862,1888
1975,1968,1907
1989,1973,1947
1984,1941,1926
1973,1936,1872
1982,2000,1899
2000,1983,1959
1984,1970,1936
1968,1943,1882
1975,1966,1903
1993,1974,1948
1984,2000,1936
1967,1959,1884
1970,1967,1897
1987,1968,1939
1972,1952,1927
1959,1935,1875
1968,1953,1901
1993,1975,1942
1985,1969,1936
1962,1955,1876
1967,1911,1897
1979,1940,1938
1980,1962,1924
1962,1922,1876
1967,1936,1889
1983,1958,1931
1970,1958,1915
1954,1907,1871
1968,1936,1896
1984,1952,1939
1968,1943,1920
1953,1928,1872
1969,1917,1893
1982,1971,1942
1967,1947,1917
1947,1922,1863
1965,1937,1883
1981,1968,1936
1970,1951,1909
1945,1915,1862
1953,1949,1875
1970,1973,1934
1967,1975,1910
1937,1920,1856
1949,1926,1872
1978,1961,1927
1968,1942,1902
1948,1929,1866
1962,1946,1881
1982,1967,1933
1964,1947,1903
1943,1937,1853
1943,1956,1871
1967,1978,1927
1953,1967,1914
1937,1936,1866
1953,1936,1878
1972,1955,1924
1955,1941,1901
1936,1932,1856
1953,1952,1875
1975,1971,1921
1963,1959,1907
1945,1941,1860
1958,1963,1871
1978,1968,1923
1967,1964,1904
1949,1966,1856
1963,1969,1878
1969,1957,1917
1955,1925,1903
1939,1925,1856
1948,1957,1875
1963,1973,1921
1953,1943,1906
1938,1933,1862
1951,1955,1872
1968,1973,1922
1955,1952,1907
1942,1939,1861
1950,1970,1873
1968,1975,1931
1958,1958,1906
1939,1942,1871
1951,1926,1873
1968,1931,1919
1959,1946,1905
1940,1937,1871
1954,1965,1885
1968,1978,1925
1958,1952,1910
1950,1933,1872
1962,1957,1891
1979,1985,1933
1967,1957,1915
1946,1936,1859
1957,1959,1889
1978,1973,1936
1963,1949,1911
1942,1932,1868
1959,1957,1885
1969,1989,1930
1962,1969,1908
1942,1934,1862
1948,1941,1882
1966,1974,1930
1955,1965,1914
1936,1940,1855
1939,1959,1884
1968,1963,1927
1957,1959,1905
1942,1952,1857
1957,1959,1881
1971,1969,1919
1957,1953,1910
1940,1947,1865
1951,1963,1881
1973,1974,1935
1962,1963,1911
1948,1955,1873
1954,1945,1899
1973,1967,1943
1963,1968,1920
1942,1945,1871
1950,1955,1885
1958,1973,1932
1953,1953,1911
1934,1947,1865
1943,1954,1886
1971,1989,1927
1952,1968,1913
1944,1956,1872
1963,1975,1888
1981,1986,1947
1966,1981,1920
1946,1929,1857
1957,1943,1882
1970,1966,1924
1967,1953,1907
1947,1943,1872
1957,1975,1891
1970,1972,1934
1968,1968,1917
1953,1959,1867
1966,1968,1889
1980,1989,1941
1967,1996,1917
1941,1943,1875
1961,1963,1905
1975,1971,1956
1957,1958,1913
1939,1945,1857
1952,1959,1895
1969,1986,1943
1958,1966,1920
1939,1946,1870
1957,1968,1882
1980,2013,1941
1968,1986,1923
1952,1958,1867
1963,1972,1881
1977,1983,1926
1968,1965,1920
1945,1955,1876
1957,1982,1898
1981,1996,1942
1973,1983,1926
1951,1961,1872
1966,1986,1898
1972,2001,1941
1959,1962,1926
1953,1960,1876
1968,2000,1901
1978,1993,1939
1968,1983,1921
1952,1963,1873
1962,1970,1901
1972,1984,1937
1956,1968,1929
1945,1966,1866
1963,1978,1883
1974,1989,1937
1961,1982,1922
1942,1952,1877
1967,1968,1898
1982,2000,1941
1963,1968,1921
1936,1965,1873
1951,1970,1889
1973,1981,1923
1963,1953,1941
1943,1939,1840
1966,1963,1880
1974,1984,1936
1959,1966,1903
1941,1949,1840
1963,1981,1885
1985,2009,1907
1967,1989,1913
1946,1946,1863
1958,1965,1932
1984,1991,1919
1974,1984,1911
1948,1968,1877
1955,1958,1869
1975,1978,1986
1966,1970,1904
1950,1967,1840
1967,1974,1906
1983,1987,1943
1973,1969,1938
1957,1961,1882
1967,1975,1897
1986,2003,1978
1969,1984,1927
1953,1973,1878
1963,1978,1905
1981,1971,1946
1968,1968,1934
1958,1963,1877
1968,1985,1910
1986,2000,1983
1982,1981,1930
1956,1979,1917
1970,2010,1910
1987,1999,1966
1968,1981,1936
1959,1968,1869
1982,1971,1905
1991,1993,1959
1979,1975,1916
1965,1968,1882
1974,1994,1920
1993,2011,1959
1981,1999,1943
1968,1975,1882
1981,2021,1945
1991,2002,1936
1986,1975,1949
1968,1962,1863
1987,1987,1936
2005,2018,1936
1994,2000,1937
1973,1973,1905
1985,1992,1920
2000,1999,1973
1981,1981,1940
1968,1989,1924
1975,1995,1952
1995,1998,1968
1984,1985,1945
1968,1974,1863
1982,1994,1891
2000,2018,1965
1985,1984,1962
1978,1969,1902
1987,2000,1949
2001,2022,1945
1986,2000,1968
1969,1968,1924
1984,1973,1925
2000,1995,1952
1984,1986,1935
1968,1941,1882
1985,1979,1895
1998,2000,1961
1984,1977,1942
1974,1971,1887
1983,1984,1947
2000,1995,1955
1991,1994,1941
1975,1982,1903
1985,1984,1917
2000,1991,1966
1989,1985,1945
1972,1967,1913
1987,1990,1906
2002,2001,1968
1986,1968,1925
1978,1958,1910
1989,1994,1898
2011,2018,1942
2005,1997,1946
1987,1990,1827
1995,2014,1924
2012,2014,1963
2000,1989,1937
1978,1983,1895
1989,2000,1918
2004,2032,1968
1995,2003,1947
1984,1970,1905
1990,1997,1926
2011,2010,1942
1996,1996,1958
1971,1982,1894
1981,2000,1967
2000,2021,1969
1991,2001,1946
1979,1984,1913
1995,2000,1938
2004,2015,1979
1990,1995,1936
1974,1997,1942
1994,2007,1938
2006,2002,1990
1993,1999,1920
1983,2002,1938
2000,2010,1935
2002,2010,1997
1989,1995,1968
1981,1987,1909
1997,2009,1920
2013,2027,1941
2000,1999,1938
1978,1985,1876
1990,2002,1915
2013,2020,2006
1998,2007,1984
1977,2000,1899
1986,1980,1837
2003,1999,1954
1990,1989,1970
1971,1978,1900
1983,1995,1886
1986,2003,1941
1973,1988,1921
1955,1967,1875
1970,1989,1904
1984,1994,1969
1968,1984,1918
1951,1968,1869
1972,1984,1892
1984,2003,1958
1969,1985,1919
1952,1958,1865
1970,1983,1898
1987,2000,1953
1973,1978,1897
1959,1968,1846
1971,1980,1904
1984,1998,1939
1971,1971,1911
1941,1955,1875
1962,1984,1878
1981,2006,1935
1972,1982,1955
1955,1953,1871
1967,1970,1879
1979,1984,1941
1968,1978,1917
1957,1953,1872
1968,1975,1809
1981,1988,1958
1971,1973,1917
1953,1978,1870
1967,1986,1898
1979,1984,1936
1965,1977,1920
1953,1970,1875
1968,1990,1903
1994,2005,1949
1982,2001,1922
1970,1975,1876
1984,1977,1904
1989,1995,1939
1979,1983,1922
1970,1974,1887
1986,1979,1916
2000,2000,1958
1990,1989,1931
1971,1971,1885
1996,1988,1911
2000,2000,1957
1986,1987,1935
1975,1970,1889
1987,1994,1909
2001,2007,1956
1995,1991,1933
1982,1970,1891
1999,2027,1920
2047,2026,1962
2020,1985,1937
1990,1968,1903
2005,2002,1925
1977,2028,1968
1987,2001,1942
1995,1986,1903
1995,2009,1925
2043,2021,1971
2002,2015,1950
2013,1979,1908
2007,2000,1925
2006,2016,1967
1983,2010,1949
1961,2000,1911
1994,2005,1920
1997,2009,1963
1958,2002,1947
1994,1998,1906
1997,2029,1934
2032,2032,1975
2015,2032,1945
1997,1998,1905
2012,2018,1926
2057,2027,1975
1973,2005,1957
2021,2006,1919
2033,2030,1946
2022,2031,1985
2015,1999,1961
1991,1983,1917
2002,2017,1935
1998,2032,1973
2017,2002,1951
2000,1997,1916
2010,2046,1937
2019,2047,1982
2007,2025,1966
1993,2000,1919
2014,2018,1940
2029,2019,1977
2021,2013,1953
2026,2000,1914
2016,2007,1941
2025,2025,1990
2018,2007,1966
2000,1994,1919
2009,2006,1941
2028,2033,1986
2059,2022,1963
2003,2017,1917
1994,2045,1937
2008,2027,1975
1968,2010,1954
2025,1997,1911
2018,2010,1941
2020,2032,1981
2042,2027,1957
2000,1997,1915
2064,1985,1944
2071,2021,1979
2041,2018,1952
2027,2019,1910
2047,2019,1937
2018,2023,1985
2015,1999,1959
2010,1989,1915
2037,2007,1941
2044,2033,1991
2030,2015,1968
2032,2000,1918
2031,2019,1947
2020,2044,1991
2030,2026,1966
2023,2022,1917
2028,2029,1939
2047,2034,1989
2031,2013,1966
2022,1984,1914
2031,2010,1937
2043,2034,1985
2031,2021,1968
2014,2007,1927
2027,2033,1950
2047,2032,1991
2058,2037,1962
1972,2009,1919
2045,2032,1953
2047,2047,1996
2010,2033,1968
2006,2018,1926
2036,2035,1952
2039,2069,2000
2032,2017,1970
2014,1988,1920
2032,2010,1950
2035,2032,2001
2038,2021,1964
2021,2027,1921
2033,2060,1951
2047,2054,1991
2037,2032,1968
2032,2016,1924
2032,2023,1943
2047,2030,1993
2031,2042,1968
2009,2026,1913
2032,2032,1942
2118,2032,1987
1991,2011,1971
2007,2021,1921
2022,2031,1943
2043,2046,1984
2033,2031,1960
1998,2012,1919
2035,2035,1946
2019,2042,1991
2097,2033,1968
2043,2010,1921
2055,2029,1946
2102,2023,1987
2113,2009,1957
1994,1999,1914
2082,2022,1946
2062,2042,1989
2103,2026,1953
