1985,1995,1825
2063,2029,1973
2030,2002,1967
1972,1953,1808
2002,1966,1818
2065,2015,1982
2030,1990,1977
1965,1947,1808
2000,1972,1808
2060,2011,1968
2031,1979,1962
1977,1953,1811
2001,1984,1820
2064,2013,1967
2029,1981,1969
1969,1948,1819
2000,1975,1814
2053,2003,1963
2023,1981,1962
1973,1950,1814
1998,1986,1813
2057,2011,1952
2032,1978,1955
1982,1941,1818
2000,1975,1817
2055,2012,1968
2014,1974,1967
1966,1939,1808
1994,1979,1815
2046,2015,1974
2011,1983,1965
1955,1933,1809
1985,1968,1818
2045,2010,1969
2021,1959,1965
1973,1936,1808
1995,1959,1821
2055,1994,1975
2025,1962,1968
1971,1927,1805
1991,1969,1808
2062,2002,1968
2035,1983,1982
1979,1936,1816
2000,1966,1815
2045,2002,1964
2026,1978,1971
1979,1936,1817
2000,1967,1813
2058,2006,1968
2026,1990,1966
1967,1933,1804
1985,1949,1808
2042,1986,1957
2020,1966,1959
1962,1922,1819
1995,1962,1815
2063,2005,1979
2031,1974,1979
1971,1930,1814
1991,1968,1821
2054,1997,1975
2016,1943,1963
1950,1926,1811
1985,1979,1826
2058,1987,1974
2031,1955,1968
1968,1920,1824
2000,1959,1830
2062,1998,1981
2029,1963,1972
1968,1927,1808
1997,1947,1811
2060,2000,1979
2026,1972,1982
1978,1935,1827
2000,1958,1823
2053,1986,1968
2013,1957,1972
1948,1923,1808
1975,1968,1822
2058,2004,1978
2029,1968,1985
1969,1936,1825
1983,1944,1803
2045,1968,1962
2021,1965,1984
1943,1932,1841
1983,1964,1833
2054,1984,1984
2018,1956,1978
1961,1926,1824
1988,1959,1827
2057,1994,1983
2023,1961,1983
1962,1922,1818
1987,1950,1823
2046,1979,1969
2018,1965,1985
1969,1927,1835
1994,1958,1821
2047,2001,1970
2030,1961,1995
1968,1920,1847
1991,1948,1844
2047,1988,1987
2026,1965,1985
1972,1922,1839
1989,1948,1836
2043,1980,1983
2023,1949,1990
1975,1926,1849
2000,1959,1847
2062,1994,1988
2027,1938,1984
1972,1931,1830
2000,1962,1826
2061,1991,1981
2030,1950,2005
1968,1957,1850
1991,1950,1826
2038,2000,1963
2030,2013,1994
1982,1927,1856
2000,1947,1847
2057,1976,1984
2028,1940,1986
1968,1923,1829
1997,1973,1825
2062,1994,1995
2031,1968,2011
1971,1921,1840
1993,1957,1840
2057,1986,1991
2021,1965,1998
1966,1931,1840
1994,1949,1829
2059,1989,1985
2029,1947,1995
1967,1916,1840
1999,2003,1829
2066,2005,1994
2024,1962,2001
1971,1951,1841
1999,1937,1838
2065,2005,1980
2032,1967,2000
1968,1967,1845
1984,1946,1840
2055,2004,1987
2031,1968,1999
1968,1925,1838
1984,1952,1820
2039,2015,1984
2027,1967,1999
1968,1939,1846
1993,1943,1839
2053,1984,1983
2030,1963,1995
1970,1930,1837
1995,1965,1835
2064,1987,1997
2029,1968,1997
1966,1904,1851
1991,1959,1843
2047,1943,1983
2031,1937,1990
1969,1917,1847
1991,1959,1838
2041,1983,1979
2020,1990,1994
1974,1920,1854
1999,1987,1842
2059,1978,1985
2034,1979,1985
1981,1936,1845
1990,1934,1840
2059,2005,1987
2033,1970,2000
1980,1913,1839
2001,1936,1837
2061,1996,1979
2028,1959,1988
1971,1936,1827
1994,1954,1830
2057,2031,1983
2027,1976,2000
1970,1935,1853
1998,1959,1841
2066,2000,1990
2038,1970,1995
1971,1948,1845
2000,1973,1840
2060,2000,1993
2032,1962,1995
1965,1934,1842
1984,1964,1835
2062,1987,1990
2043,1874,2000
1971,1914,1840
1987,2016,1829
2063,2011,1989
2047,1957,2013
1987,1937,1857
2001,1968,1840
2060,2015,1982
2030,1965,1995
1982,1936,1850
1999,1952,1840
2047,2000,1993
2028,1968,2005
1971,1923,1851
1983,1953,1843
2053,1997,2001
2032,1971,2003
1978,1952,1845
1996,1968,1833
2047,1968,1991
2023,1967,2004
1965,1944,1843
1991,1926,1825
2064,1918,1983
2025,1984,2007
1962,1899,1849
1985,1951,1835
2047,2014,1985
2019,1967,2002
1968,1931,1856
1993,1933,1841
2047,1968,1985
2031,1984,2014
1969,1942,1858
1989,1936,1837
2039,1981,1984
2017,1984,2006
1973,1991,1869
1991,1967,1827
2045,2000,1973
2032,1968,1999
1968,1985,1871
1987,1972,1857
2058,2005,1996
2033,1968,2001
1982,1930,1859
2002,1968,1848
2055,2079,2000
2027,1954,2006
1965,1949,1844
1994,1967,1834
2063,2011,1969
2037,2039,2005
1975,1950,1867
1993,1968,1839
2042,2015,1982
2030,1972,2014
1984,1938,1882
2007,1983,1856
2058,2021,1984
2030,1968,1999
1971,1936,1853
1998,1979,1840
2059,1987,1989
2030,1964,2014
1968,2010,1854
1992,1984,1840
2065,2027,1986
2032,1893,2005
1979,1999,1858
1999,1965,1858
2053,2096,2007
2030,1995,2009
1969,1953,1851
1991,1975,1837
2055,2014,1984
2032,1999,2013
1971,1957,1859
1991,1971,1840
2053,2010,1986
2032,1987,2010
1975,1959,1851
1997,2016,1844
2053,2012,1997
2021,1979,2007
1955,1938,1841
1988,1968,1839
2045,2010,1999
2031,1990,2022
1965,1951,1862
1977,1980,1840
2057,2025,1999
2032,1995,2020
1978,1954,1865
1988,1971,1842
2045,2015,1991
2029,2000,2021
1969,1958,1873
1986,1975,1855
2052,2007,1994
2027,1986,2007
1980,1956,1866
1995,1983,1861
2047,2017,2001
2027,1979,2007
1973,1943,1860
1989,1977,1849
2047,2008,1995
2021,1991,2011
1967,1961,1871
1990,1984,1849
2061,2010,1973
2038,1989,2011
1975,1950,1869
1997,1973,1846
2054,2016,1985
2032,1991,2011
1970,1964,1872
1996,1982,1847
2053,2003,1981
2033,1984,2013
1973,1945,1874
1984,1966,1842
2043,2014,1987
2022,1998,2014
1963,1958,1862
1981,1973,1840
2047,2003,1986
2036,1984,2019
1979,1945,1872
1997,1971,1847
2054,2011,1984
2035,1984,2013
1972,1947,1871
1999,1968,1855
2053,1994,2007
2035,1978,2021
1981,1937,1847
1987,1974,1824
2053,2005,1993
2032,1984,2029
1983,1951,1872
1999,1967,1844
2061,1993,1985
2035,1968,2009
1978,1929,1861
1996,1953,1840
2046,1999,1978
2034,1969,2015
1973,1935,1863
1987,1950,1839
2053,1999,1984
2033,1959,2007
1985,1920,1863
1994,1961,1841
2054,2001,2001
2032,1974,2015
1975,1936,1866
1988,1952,1850
2046,2001,1999
2029,1984,2023
1963,1934,1855
1978,1968,1842
2053,1999,2000
2029,1968,2025
1968,1931,1869
1982,1957,1838
2044,1995,1982
2028,1978,2012
1968,1932,1861
1988,1949,1827
2052,1991,1982
2035,1974,2013
1973,1946,1865
1987,1968,1847
2043,2003,1989
2022,1977,2010
1968,1949,1857
1985,1968,1830
2044,2000,1981
2034,1984,2015
1968,1951,1862
1981,1971,1844
2042,2000,1996
2019,1977,2013
1957,1937,1869
1981,1971,1850
2033,2010,1991
2021,1986,2012
1969,1936,1853
1975,1952,1823
2029,1990,1984
2017,1978,2014
1962,1945,1868
1984,1971,1840
2042,1999,1985
2019,1975,2009
1959,1935,1849
1984,1954,1829
2043,1990,1982
2026,1976,2007
1965,1933,1862
1981,1953,1840
2047,1984,1991
2025,1968,2020
1968,1931,1856
1983,2012,1828
2039,2000,1975
2029,1970,2005
1968,1927,1872
1987,1966,1841
2054,1995,1979
2034,1968,2005
1968,1929,1861
1979,1953,1839
2055,2003,1994
2029,1978,2023
1966,1935,1863
1987,1955,1842
2055,1994,1984
2029,1968,1999
1968,1934,1857
1985,1959,1840
2037,2003,1982
2023,1980,2025
1968,1936,1871
1985,1951,1839
2047,1994,1985
2031,1969,2002
1961,1935,1850
1980,1959,1826
2039,2013,1984
2031,1984,2012
1965,1939,1851
1970,1963,1838
2041,2000,1991
2023,1973,2022
1963,1936,1859
1973,1968,1828
2043,2010,1982
2037,1999,2032
1978,1950,1875
1985,1962,1840
2047,1995,1982
2030,1971,2015
1967,1942,1863
1989,1973,1839
2047,2000,1973
2036,1979,2012
1982,1936,1864
1985,1959,1809
2041,1991,1961
2032,1971,2022
1968,1950,1872
1984,1968,1846
2047,2002,1981
2041,1976,2013
1978,1935,1856
1984,1955,1824
2047,2002,1969
2032,1990,2013
1970,1947,1860
1993,1966,1835
2045,2000,1967
2027,1974,1996
1979,1935,1845
1982,1968,1814
2039,2006,1980
2032,1995,2017
1978,1950,1856
1989,1968,1827
2054,2015,1987
2036,1999,2016
1984,1957,1862
1987,1969,1829
2047,2013,1970
2032,1998,2000
1968,1947,1840
1989,1968,1825
2054,2006,1983
2032,1983,2015
1972,1953,1862
1982,1972,1824
2042,2010,1970
2032,1983,2007
1968,1937,1858
1978,1955,1823
2035,2007,1984
2021,1984,2018
1962,1939,1855
1979,1963,1829
2042,2003,1971
2032,1987,2000
1964,1942,1849
1979,1968,1829
2034,2000,1974
2024,1982,2000
1973,1928,1853
1978,1955,1820
2032,2001,1965
2015,1983,2000
1957,1934,1847
1968,1965,1827
2031,2010,1975
2018,1975,2001
1951,1939,1838
1967,1958,1813
2029,2000,1953
2006,1970,1984
1937,1935,1830
1956,1954,1803
2021,1987,1943
2005,1970,1986
1945,1947,1844
1947,1948,1799
2001,1988,1950
1989,1966,1975
1930,1925,1836
1947,1943,1793
1995,1981,1918
1981,1966,1975
1927,1922,1832
1933,1947,1781
1991,1984,1921
1968,1950,1962
1904,1899,1812
1925,1923,1781
1980,1974,1922
1965,1941,1953
1904,1904,1799
1917,1923,1775
1979,1968,1919
1963,1938,1947
1891,1892,1793
1907,1922,1762
1968,1969,1919
1949,1947,1945
1886,1895,1795
1888,1911,1760
1950,1949,1899
1936,1926,1939
1872,1888,1789
1887,1904,1737
1930,1947,1869
1920,1911,1920
1861,1872,1776
1870,1889,1738
1922,1933,1877
1905,1907,1904
1856,1874,1754
1851,1903,1740
1904,1933,1878
1898,1898,1905
1825,1852,1743
1837,1874,1712
1904,1920,1866
1892,1894,1903
1815,1839,1730
1820,1856,1691
1877,1892,1840
1872,1871,1886
1803,1838,1724
1812,1854,1689
1872,1885,1834
1853,1851,1861
1785,1808,1710
1797,1825,1657
1853,1863,1811
1849,1854,1861
1775,1809,1697
1774,1829,1650
1834,1856,1778
1823,1837,1814
1764,1799,1682
1766,1812,1655
1815,1847,1794
1803,1827,1821
1735,1781,1654
1739,1794,1621
1796,1834,1777
1789,1808,1808
1729,1765,1654
1738,1791,1619
1789,1819,1759
1767,1794,1783
1710,1755,1632
1719,1770,1590
1766,1806,1728
1757,1783,1758
1683,1744,1616
1681,1756,1584
1747,1792,1728
1735,1773,1769
1664,1721,1598
1664,1729,1535
1722,1772,1709
1712,1747,1745
1643,1702,1586
1647,1723,1523
1706,1759,1669
1696,1744,1717
1629,1694,1555
1631,1700,1514
1695,1733,1653
1674,1703,1690
1601,1665,1535
1605,1682,1489
1661,1716,1647
1649,1693,1687
1590,1648,1526
1590,1666,1471
1648,1706,1623
1634,1674,1671
1574,1627,1504
1581,1648,1456
1642,1689,1606
1618,1665,1648
1555,1615,1483
1557,1633,1449
1613,1665,1597
1597,1643,1631
1556,1599,1461
1526,1616,1423
1627,1651,1579
1616,1630,1620
1507,1589,1455
1532,1606,1409
1570,1645,1535
1566,1616,1597
1506,1566,1439
1499,1584,1408
1571,1635,1558
1569,1602,1591
1487,1556,1426
1467,1578,1385
1571,1613,1521
1506,1588,1571
1409,1535,1399
1472,1566,1379
1521,1602,1529
1568,1584,1569
1455,1526,1403
1465,1535,1356
1511,1589,1491
1501,1567,1535
1425,1507,1391
1413,1521,1340
1489,1565,1473
1479,1535,1535
1392,1501,1386
1439,1514,1335
1486,1563,1472
1475,1535,1517
1402,1484,1361
1408,1501,1317
1463,1535,1465
1461,1518,1511
1411,1459,1351
1390,1488,1312
1466,1534,1463
1445,1513,1511
1370,1454,1344
1342,1466,1289
1449,1515,1425
1417,1494,1478
1363,1449,1333
1360,1472,1287
1423,1501,1436
1408,1482,1479
1345,1427,1323
1346,1439,1263
1441,1479,1414
1386,1456,1472
1294,1410,1311
1321,1425,1257
1351,1474,1401
1393,1450,1455
1346,1397,1302
1348,1419,1244
1395,1462,1392
1425,1442,1451
1300,1406,1307
1279,1419,1245
1335,1457,1374
1377,1430,1425
1299,1374,1290
1283,1392,1251
1350,1455,1392
1351,1439,1438
1281,1383,1275
1318,1392,1220
1322,1431,1370
1365,1418,1424
1330,1370,1271
1291,1391,1211
1301,1436,1354
1329,1407,1411
1264,1361,1264
1267,1392,1226
1339,1424,1365
1335,1410,1424
1265,1374,1276
1264,1380,1219
1328,1421,1360
1329,1406,1421
1263,1358,1269
1232,1371,1223
1346,1424,1360
1281,1410,1419
1143,1360,1273
1244,1381,1219
1274,1424,1366
1325,1411,1422
1255,1361,1275
1271,1379,1223
1234,1426,1360
1360,1409,1424
1275,1363,1271
1232,1391,1232
1315,1437,1389
1306,1419,1434
1244,1366,1275
1247,1389,1228
1307,1425,1376
1300,1417,1428
1248,1374,1285
1260,1403,1254
1325,1446,1398
1303,1423,1444
1238,1380,1287
1295,1401,1251
1247,1445,1403
1280,1424,1451
1264,1379,1297
1223,1408,1248
1323,1450,1392
1379,1431,1455
1258,1393,1305
1219,1414,1259
1259,1471,1420
1333,1453,1481
1216,1407,1317
1239,1441,1266
1342,1486,1424
1350,1468,1485
1252,1424,1327
1266,1442,1275
1296,1495,1424
1333,1483,1477
1263,1453,1355
1283,1476,1321
1392,1525,1456
1307,1517,1503
1267,1466,1349
1272,1490,1313
1342,1535,1456
1334,1531,1514
1263,1489,1362
1276,1507,1309
1342,1535,1456
1335,1558,1535
1269,1522,1404
1295,1535,1344
1354,1599,1470
1343,1600,1535
1279,1569,1410
1287,1585,1365
1367,1634,1507
1359,1635,1559
1268,1595,1411
1283,1617,1365
1379,1683,1524
1389,1664,1578
1265,1616,1411
1263,1648,1380
1414,1715,1535
1381,1707,1599
1296,1664,1443
1323,1705,1395
1381,1750,1535
1361,1738,1600
1317,1700,1447
1330,1735,1413
1406,1791,1569
1399,1776,1626
1330,1744,1472
1346,1776,1426
1406,1825,1584
1408,1823,1641
1348,1783,1489
1355,1806,1440
1409,1859,1593
1411,1852,1657
1358,1818,1501
1365,1843,1454
1435,1897,1621
1427,1883,1681
1364,1851,1525
1366,1873,1472
1435,1925,1630
1447,1920,1696
1390,1873,1535
1386,1899,1487
1461,1953,1645
1456,1946,1713
1394,1905,1564
1392,1923,1509
1457,1968,1663
1460,1963,1715
1405,1920,1568
1412,1936,1520
1484,1985,1673
1477,1971,1733
1411,1927,1598
1424,1955,1535
1498,2000,1687
1506,1988,1756
1438,1961,1616
1447,1968,1569
1507,2011,1713
1513,1989,1777
1450,1958,1634
1461,1984,1579
1520,2020,1714
1525,2000,1782
1467,1963,1642
1483,1990,1591
1535,2033,1743
1530,2013,1808
1473,1972,1664
1491,1995,1610
1563,2035,1752
1557,2036,1815
1491,2001,1685
1517,2016,1645
1584,2062,1784
1585,2040,1841
1519,1994,1691
1520,2013,1651
1595,2062,1793
1598,2043,1855
1534,1983,1695
1535,2002,1664
1615,2059,1822
1616,2043,1879
1535,2000,1742
1557,2010,1682
1622,2060,1822
1633,2054,1893
1571,2006,1746
1584,2011,1696
1648,2065,1840
1646,2047,1901
1586,2006,1760
1599,2019,1712
1665,2070,1858
1670,2055,1915
1600,2002,1780
1615,2015,1738
1686,2077,1882
1699,2064,1951
1629,2009,1806
1629,2022,1739
1699,2074,1883
1709,2063,1959
1647,2015,1819
1650,2026,1754
1705,2066,1888
1712,2054,1964
1657,2009,1825
1665,2023,1779
1728,2069,1915
1715,2047,1967
1662,2015,1839
1680,2039,1799
1758,2078,1937
1756,2055,1995
1677,2000,1843
1690,2021,1795
1767,2074,1937
1764,2047,2000
1703,1995,1862
1706,2017,1808
1771,2068,1936
1776,2059,2001
1713,2011,1867
1734,2032,1822
1801,2074,1970
1797,2042,2017
1728,1997,1872
1744,2016,1821
1806,2057,1966
1806,2036,2029
1744,2005,1881
1765,2023,1840
1823,2062,1983
1811,2042,2045
1756,1995,1901
1759,2012,1840
1837,2058,1981
1835,2054,2057
1773,2000,1907
1782,2003,1847
1840,2047,1978
1840,2032,2047
1782,1984,1917
1789,2002,1863
1863,2042,2000
1867,2033,2067
1806,1986,1919
1802,2000,1856
1874,2055,2010
1883,2032,2084
1826,1984,1922
1823,2000,1866
1894,2038,2013
1897,2032,2093
1833,1984,1950
1829,1989,1889
1889,2037,2026
1894,2020,2099
1837,1965,1951
1840,1979,1904
1920,2032,2059
1924,2023,2134
1855,1976,1977
1851,1991,1909
1914,2035,2042
1919,2019,2109
1867,1973,1967
1870,1989,1924
1938,2032,2069
1940,2013,2131
1874,1967,1995
1875,1984,1935
1942,2047,2089
1958,2001,2160
1904,1953,2009
1904,1966,1945
1963,2061,2093
1954,1983,2159
1903,2000,2019
1904,1954,1968
1970,1975,2108
1971,1994,2171
1910,1992,2029
1909,1981,1968
1983,2012,2115
1993,2030,2192
1929,1974,2059
1935,1957,1983
1981,1993,2113
1990,1965,2192
1936,1983,2065
1939,1968,1997
1999,1978,2141
2006,2000,2205
1936,1994,2064
1936,1951,2011
2006,2003,2160
2014,1998,2222
1946,1931,2077
1958,1973,2011
2022,1990,2160
2032,2005,2243
1971,1984,2105
1968,1962,2027
2033,1967,2163
2041,1996,2246
1977,1940,2107
1969,1967,2032
2031,2003,2169
2045,1994,2237
1977,1952,2096
1977,1966,2032
2043,2011,2172
2046,1997,2251
1987,1950,2112
1990,1975,2059
2063,2011,2186
2065,2000,2253
1998,1925,2095
1990,1965,2036
2060,2013,2187
2077,1987,2257
2002,1965,2113
2000,1964,2029
2067,2004,2160
2073,1989,2245
2010,1919,2128
2006,1936,2054
2077,2011,2178
2093,1987,2245
2027,1975,2105
2033,1942,2045
2096,2031,2169
2101,1969,2238
2028,1903,2106
2029,1983,2032
2096,2064,2171
2103,1991,2251
2039,1957,2103
2041,1958,2020
2106,2015,2155
2099,1974,2222
2036,1981,2083
2035,1959,2015
2107,2000,2161
2111,2012,2240
2032,1987,2095
2035,1959,2014
2112,1999,2151
2113,1990,2226
2063,1947,2083
2066,1963,2021
2126,2007,2158
2125,1995,2223
2070,1947,2089
2073,1959,2013
2128,2000,2151
2139,1987,2215
2077,1951,2069
2069,1948,2013
2133,2032,2153
2145,2003,2228
2085,1954,2094
2081,1963,2007
2141,2003,2130
2151,2097,2221
2085,1965,2094
2082,1954,2010
2145,2009,2134
2154,1999,2205
2096,1962,2065
2099,1964,1995
2160,2010,2130
2159,1998,2194
2095,1943,2047
2096,1961,1975
2160,2002,2118
2163,2000,2185
2099,1912,2032
2106,1955,1973
2161,1989,2127
2166,2014,2202
2101,1967,2064
2106,1984,1986
2169,2035,2120
2174,2074,2188
2111,1904,2038
2113,1986,1968
2179,2017,2103
2179,1951,2174
2117,1968,2033
2129,1905,1979
2192,2042,2110
2193,1936,2178
2128,1984,2031
2128,2005,1957
2192,1989,2099
2205,1985,2171
2128,1979,2027
2131,1943,1965
2201,2109,2105
2198,2037,2175
2128,1968,2019
2113,2002,1937
2202,2039,2090
2223,2043,2177
2147,1952,2017
2135,2042,1942
2205,2033,2079
2210,2036,2145
2149,1977,1994
2151,2003,1936
2209,2080,2090
2217,2046,2162
2152,1993,2010
2159,2010,1936
2223,2031,2075
2229,2047,2157
2155,1998,2011
2154,2005,1935
2220,2082,2071
2231,2032,2150
2169,2061,2015
2165,1978,1942
2224,2146,2073
2225,2017,2150
2166,2013,2013
2174,2055,1947
2239,2047,2074
2235,2078,2139
2167,1904,2002
2170,2032,1936
2245,2086,2067
2253,2095,2150
2189,2014,2023
2172,2018,1938
2233,2080,2070
2247,2070,2155
2187,2018,2009
2192,2032,1936
2247,2081,2066
2253,2064,2151
2186,2015,2016
2193,2033,1936
2255,2088,2063
2265,2081,2147
2201,2029,2011
2191,2032,1931
2256,2081,2067
2266,2078,2159
2214,2032,2010
2198,2053,1935
2263,2096,2070
2273,2085,2141
2215,2027,2002
2209,2052,1937
2274,2102,2070
2272,2093,2142
2208,2043,2007
2222,2055,1935
2286,2101,2064
2282,2095,2157
2221,2038,2015
2220,2045,1934
2286,2096,2075
2289,2097,2159
2217,2055,2010
2227,2065,1947
2287,2115,2089
2287,2098,2160
2224,2045,2013
2229,2063,1951
2297,2109,2083
2307,2103,2160
2239,2062,2014
2233,2074,1943
2290,2123,2083
2299,2111,2164
2239,2076,2015
2237,2085,1936
2292,2122,2064
2291,2117,2158
2237,2061,2019
2247,2081,1958
2314,2128,2090
2315,2121,2170
2243,2065,2027
2241,2083,1946
2302,2130,2077
2314,2112,2161
2244,2061,2011
2242,2086,1939
2309,2129,2096
2317,2122,2167
2245,2064,2013
2240,2079,1935
2320,2128,2087
2334,2126,2177
2263,2076,2037
2253,2093,1958
2321,2128,2092
2323,2102,2162
2256,2064,2021
2254,2082,1951
2320,2128,2087
2329,2112,2169
2259,2067,2032
2258,2086,1953
2333,2128,2093
2346,2131,2175
2270,2081,2029
2263,2098,1944
2327,2143,2096
2342,2129,2171
2279,2096,2032
2278,2110,1953
2326,2149,2087
2342,2125,2154
2285,2082,2029
2278,2096,1963
2336,2143,2092
2347,2144,2178
2283,2096,2044
2272,2109,1956
2336,2143,2079
2338,2130,2165
2278,2098,2030
2273,2112,1957
2332,2157,2086
2337,2144,2173
2283,2096,2032
2275,2099,1948
2338,2149,2079
2347,2143,2169
2297,2103,2037
2289,2116,1951
2350,2161,2097
2357,2161,2189
2289,2110,2045
2284,2111,1943
2345,2153,2070
2352,2143,2177
2290,2098,2053
2287,2109,1954
2348,2160,2081
2350,2147,2162
2288,2103,2036
2283,2105,1955
2347,2160,2083
2350,2152,2163
2287,2107,2031
2274,2112,1950
2336,2160,2085
2350,2147,2171
2283,2096,2030
2271,2102,1947
2333,2155,2081
2343,2146,2166
2282,2103,2027
2283,2110,1953
2338,2153,2082
2352,2142,2161
2288,2099,2033
2281,2111,1959
2339,2143,2081
2346,2144,2160
2288,2107,2030
2288,2113,1953
2353,2161,2097
2352,2145,2176
2291,2096,2027
2282,2105,1951
2343,2151,2081
2352,2153,2167
2288,2102,2037
2277,2108,1956
2335,2143,2075
2347,2137,2157
2288,2097,2035
2278,2100,1954
2339,2143,2079
2352,2142,2166
2283,2089,2038
2274,2106,1949
2345,2146,2085
2355,2143,2176
2282,2086,2035
2273,2096,1950
2343,2153,2079
2358,2147,2165
2287,2098,2031
2271,2107,1946
2325,2143,2067
2341,2139,2160
2279,2095,2030
2273,2110,1950
2349,2141,2064
2343,2138,2154
2274,2089,2032
2267,2099,1940
2329,2143,2062
2348,2139,2148
2276,2103,2018
2259,2096,1936
2324,2139,2069
2338,2123,2159
2277,2085,2016
2258,2099,1930
2320,2142,2064
2333,2130,2155
2272,2083,2015
2256,2091,1930
2309,2128,2047
2333,2133,2145
2281,2087,2021
2271,2091,1948
2323,2134,2066
2334,2128,2154
2265,2080,2019
2254,2087,1923
2314,2129,2058
2323,2118,2153
2254,2070,2019
2254,2075,1930
2317,2135,2042
2323,2129,2131
2258,2081,2013
2253,2086,1937
2318,2128,2064
2320,2117,2142
2255,2064,2002
2236,2074,1915
2304,2121,2032
2313,2116,2135
2258,2065,2006
2240,2073,1924
2295,2123,2042
2311,2113,2133
2245,2069,1999
2231,2081,1913
2307,2126,2038
2325,2120,2141
2250,2062,1998
2230,2070,1911
2288,2117,2047
2305,2111,2146
2242,2055,1997
2231,2067,1910
2291,2123,2038
2303,2114,2138
2235,2064,1986
2224,2066,1913
2288,2118,2054
2302,2112,2132
2240,2064,2003
2224,2066,1910
2275,2113,2029
2288,2107,2119
2224,2062,1990
2222,2070,1914
2278,2110,2035
2293,2101,2128
2229,2063,1986
2224,2064,1910
2263,2112,2028
2285,2103,2128
2227,2055,1998
2221,2064,1909
2276,2107,2027
2288,2109,2118
2223,2046,1975
2213,2063,1893
2282,2112,2032
2285,2106,2128
2219,2045,1984
2206,2045,1897
2265,2101,2028
2278,2093,2113
2215,2057,1982
2205,2063,1901
2267,2099,2015
2284,2103,2134
2224,2057,1991
2205,2055,1894
2256,2102,2014
2273,2094,2113
2199,2035,1984
2191,2037,1891
2254,2093,2014
2281,2091,2112
2207,2039,1975
2191,2045,1889
2247,2105,2010
2262,2091,2110
2195,2038,1978
2187,2038,1893
2243,2086,2016
2265,2084,2116
2205,2031,1986
2192,2054,1901
2247,2096,2014
2253,2091,2112
2193,2032,1984
2182,2033,1894
2238,2081,2009
2252,2079,2099
2192,2029,1966
2175,2031,1882
2224,2081,2000
2242,2080,2096
2185,2030,1971
2163,2029,1888
2219,2092,2005
2230,2086,2107
2177,2032,1968
2160,2039,1876
2222,2080,1990
2242,2071,2086
2182,2030,1963
2171,2037,1881
2237,2087,2000
2249,2073,2096
2176,2028,1971
2158,2026,1872
2220,2067,1986
2243,2074,2094
2182,2019,1969
2156,2028,1867
2209,2074,1984
2224,2078,2096
2162,2027,1963
2155,2038,1871
2209,2085,1993
2224,2075,2096
2155,2021,1962
2146,2018,1862
2207,2083,1984
2225,2065,2089
2154,2027,1956
2141,2033,1859
2195,2080,1968
2219,2082,2079
2159,2031,1939
2143,2033,1866
2197,2079,1985
2210,2077,2081
2146,2029,1953
2143,2031,1863
2205,2078,1978
2216,2078,2082
2144,2019,1947
2129,2021,1845
2189,2067,1962
2208,2061,2067
2144,2011,1941
2135,2014,1849
2179,2063,1968
2193,2061,2074
2141,2010,1945
2132,2018,1856
2193,2071,1967
2202,2058,2059
2129,2002,1921
2127,2015,1856
2187,2064,1975
2196,2064,2082
2134,2009,1953
2117,2001,1856
2176,2055,1970
2186,2057,2068
2121,2001,1949
2113,2015,1853
2177,2064,1959
2187,2059,2065
2128,2002,1941
2103,2002,1842
2156,2058,1953
2179,2055,2064
2124,2014,1942
2165,2016,1857
2155,2062,1962
2176,2055,2062
2085,2006,1946
2087,2016,1856
2169,2059,1963
2192,2059,2057
2128,2001,1935
2118,2010,1845
2152,2065,1953
2165,2055,2055
2101,2004,1936
2113,2015,1851
2143,2059,1965
2130,2043,2061
2061,1997,1935
2102,2000,1834
2160,2055,1962
2182,2058,2066
2100,2010,1938
2096,2006,1841
2138,2044,1950
2150,2045,2045
2096,2001,1931
2087,2001,1831
2148,2055,1939
2150,2043,2036
2074,1999,1919
2058,2000,1826
2129,2058,1938
2147,2047,2055
2086,2000,1933
2076,2005,1834
2146,2053,1949
2161,2037,2046
2109,1997,1913
2065,1992,1811
2127,2032,1927
2144,2037,2047
2081,2007,1936
2071,2000,1837
2134,2047,1943
2191,2039,2039
2063,1996,1923
2065,2000,1823
2160,2037,1946
2159,2038,2046
2094,1989,1922
2061,1987,1821
2115,2031,1927
2171,2032,2028
2021,1990,1907
2099,1995,1824
2112,2032,1943
2178,2042,2053
2033,1997,1922
2063,1995,1820
2070,2037,1934
2117,2041,2042
2059,1987,1924
2109,1985,1821
2124,2037,1923
2160,2033,2032
2054,1993,1925
2090,2000,1821
2141,2037,1930
2113,2035,2021
2072,1989,1933
2061,1985,1842
2105,2032,1941
2105,2032,2034
2026,1984,1907
2014,1975,1808
2118,2022,1937
2118,2025,2053
2065,1981,1924
2026,1987,1821
2093,2032,1931
2114,2020,2032
2055,1984,1926
2033,1995,1839
2096,2034,1933
2110,2032,2019
2045,1983,1904
2034,1991,1830
2098,2032,1939
2110,2034,2041
2033,1978,1910
2003,1982,1808
2062,2037,1918
2112,2047,2062
2043,1990,1942
2022,1989,1825
2122,2032,1931
2112,2034,2031
2045,1987,1931
2075,1983,1833
2027,2032,1936
2078,2027,2032
2017,1981,1909
2014,1984,1825
2087,2030,1934
2102,2032,2036
2031,1990,1919
2014,1980,1818
2077,2032,1926
2095,2029,2029
2037,1974,1910
2041,1984,1814
2046,2032,1933
2128,2034,2033
2014,1981,1920
1978,1987,1823
2065,2032,1936
2101,2032,2033
2026,1983,1919
2017,1993,1823
2138,2027,1926
2065,2035,2031
2083,1989,1915
1987,1994,1827
2037,2029,1936
2093,2019,2038
1987,1968,1909
1971,1974,1809
2032,2028,1921
2039,2029,2038
2032,1991,1931
2029,1987,1827
2071,2038,1935
2114,2035,2043
2029,1981,1921
2010,1984,1825
2069,2023,1923
2074,2027,2035
2091,1977,1917
1989,1985,1808
2047,2029,1920
2122,2028,2035
2007,1981,1931
1988,1989,1830
2054,2031,1937
2075,2035,2045
2029,1984,1916
1982,1984,1811
2053,2030,1927
2075,2032,2038
2007,1981,1921
1981,1985,1813
2064,2027,1923
2032,2030,2018
2015,1984,1905
1959,1985,1810
2034,2032,1935
2109,2030,2046
2006,1972,1922
1988,1971,1818
2035,2021,1922
2123,2023,2041
1930,1975,1918
1967,1979,1808
2047,2029,1935
