2074,1997,1999
2045,2004,1925
2029,1953,1863
2045,1967,1930
2037,1965,1963
2028,1953,1929
2034,1963,1900
2063,1985,1936
2061,1997,1971
2042,1977,1931
2034,1968,1911
2043,1992,1936
2046,2000,1974
2033,2002,1971
2032,1981,1884
2079,2013,1940
2039,1978,1965
2000,1973,1887
2047,1983,1968
2064,1953,1940
2043,2002,2003
2003,1979,1978
2002,1931,1840
2017,1942,1899
2029,1959,1969
2025,1957,1936
2029,1968,1980
2035,1995,1951
2054,2005,2046
2038,1989,1924
2021,1976,1920
2005,1968,1930
2022,1996,1983
2028,2017,1966
1995,1947,1903
2002,1969,1936
2018,2002,1984
2014,2014,1974
2016,2000,1927
2015,1981,1943
2026,2007,1971
1991,1981,1939
1981,1969,1903
2007,2006,1959
2046,1982,2015
2000,1981,1942
1982,1971,1915
2005,1984,1881
2017,1935,1997
1974,2014,1909
1967,2003,1902
1987,1978,1908
2015,1993,1995
2023,2000,1945
2027,2047,1927
1991,2000,1914
2002,1950,1967
1987,1934,1927
1990,1927,1946
2032,1931,1983
2021,1993,1986
2000,2027,1961
1999,2016,1919
1983,1989,1919
2000,1997,1982
2007,2009,1961
2002,2025,1933
2011,2000,1941
2010,1987,1969
1997,1979,1942
1995,1991,1918
2019,2023,1959
2033,2027,1982
2001,2001,1931
1999,1994,1915
2021,2018,1958
2035,2035,2003
2047,2041,1982
2010,1971,1931
1979,1982,1903
1994,2007,1939
2000,2006,1938
2015,2019,1926
2032,2073,1978
2035,2038,1990
2017,1982,1935
1987,1955,1886
2012,1999,1938
2033,2027,1991
2023,2010,1949
2015,2001,1910
2055,2015,1947
2031,2023,1986
2059,2007,1952
2016,2007,1918
2076,2043,1978
2079,2087,2010
2057,2096,1979
1975,1936,1873
1989,1936,1904
2032,1983,1961
2058,2000,1949
1975,1968,1920
2027,2066,1963
2029,2032,1964
1998,1983,1927
1986,1991,1905
1984,2020,1952
2065,2035,1991
2046,2007,1953
2025,1989,1911
2019,2000,1942
2043,2022,1987
2002,1999,1920
2000,2005,1900
2039,1984,1981
2047,2042,1991
1968,1975,1883
1989,1957,1862
2007,1990,1921
2028,2064,2000
2029,1991,1941
1988,1894,1893
2014,1980,1936
1990,2010,1968
2023,2032,1953
2032,1992,1909
2000,1981,1925
2028,2011,1969
2028,2000,1950
2010,1968,1897
2012,1993,1923
2069,2047,1988
2003,2014,1939
1971,1971,1897
2003,2030,1947
2035,2042,2001
2002,2009,1933
1991,1947,1868
2014,1979,1926
2035,1999,1983
1997,1985,1926
1957,1979,1896
2003,2033,1951
2030,2046,1995
1997,1977,1919
1959,1977,1883
2032,2023,1931
2011,2012,1966
2005,1991,1930
2032,1986,1897
2018,2011,1936
2027,2031,1978
2037,2045,1955
2001,2002,1899
1969,1984,1920
2032,1995,1967
2036,2000,1933
1994,1986,1887
2022,1999,1934
2038,2021,1985
2028,2056,1947
2033,2047,1906
1969,1973,1895
2011,1991,1951
1975,1991,1932
2015,1978,1885
2006,2010,1925
2010,2014,1965
2000,1987,1930
2000,1986,1904
2013,2009,1951
2011,1993,1967
1997,1975,1928
2000,1978,1904
2016,2006,1948
2018,2007,1984
1975,1987,1923
1936,1969,1885
2074,1987,1936
2025,2012,1987
1946,1983,1948
1938,1933,1872
1969,1975,1919
1987,2027,1968
2022,2013,1947
1965,1948,1895
1966,1963,1917
1977,1977,1951
1977,1968,1922
1971,1946,1891
1982,1987,1927
1985,1997,1963
1969,1970,1923
1959,1956,1878
1975,1968,1915
1978,1977,1947
1968,1969,1920
1969,1973,1904
1961,1986,1930
1931,1989,1949
1935,1962,1909
1968,1949,1865
1937,1955,1904
1920,1975,1938
1970,1968,1914
2022,1978,1878
1936,1987,1921
1959,1972,1945
1969,1953,1903
1936,1953,1872
1968,1983,1914
2000,1997,1965
1957,2000,1935
1920,1936,1879
1941,1995,1937
2009,1972,1937
1904,1919,1879
1904,1904,1843
1857,1953,1905
1957,1973,1965
1952,1963,1907
1932,1957,1870
1939,1977,1904
1949,1980,1938
1905,1957,1909
1977,1963,1903
1968,2001,1941
1968,1998,1951
1936,1965,1904
1918,1936,1874
1968,2002,1943
1984,2070,1998
1981,1949,1938
1909,1879,1799
1911,1937,1886
1899,1998,1975
1959,1997,1966
1919,1920,1861
1919,1942,1905
1953,1994,1967
2018,1985,1943
1989,1959,1893
1952,1979,1926
1968,1989,1956
1954,1983,1931
1925,1979,1899
1949,1991,1936
1952,2000,1947
1882,1962,1909
1934,1961,1888
1974,2015,1943
1960,2001,1969
1936,1967,1921
1939,1967,1894
1955,1985,1927
1967,2017,1966
1939,1984,1919
1940,1994,1893
1967,1999,1934
1969,1986,1965
1964,1968,1927
1955,1987,1898
1982,2009,1943
1993,2013,1979
1975,2001,1936
1966,2015,1904
1967,2005,1936
1944,1968,1941
1955,1984,1918
1949,1970,1888
1967,1981,1929
1976,1994,1967
1957,1977,1926
1954,1985,1900
1959,1989,1925
1962,1985,1955
1957,2000,1925
1942,1997,1882
1962,1991,1936
1954,1979,1951
1948,1958,1917
1953,1973,1895
1971,2005,1938
1937,1967,1934
1930,1940,1904
1921,1963,1879
1946,1985,1923
1954,1989,1962
1942,1971,1920
1933,1975,1894
1953,1986,1931
1952,1985,1963
1933,1978,1917
1931,1967,1880
1936,1979,1919
1947,1994,1951
1937,1978,1919
1935,1978,1891
1951,1996,1935
1959,2029,1970
1947,2003,1933
1942,1977,1904
1939,1957,1914
1937,1979,1940
1931,1954,1916
1939,1954,1893
1958,2007,1935
1967,2021,1965
1936,1971,1903
1932,1984,1874
1947,2001,1925
1949,2000,1946
1935,1968,1907
1940,1973,1894
1960,2029,1942
1941,2004,1962
1936,1974,1935
1914,1952,1873
1934,1983,1904
1950,2013,1963
1939,1975,1923
1930,1955,1887
1957,1985,1931
1967,1994,1968
1949,1985,1925
1946,1993,1904
1955,2012,1937
1958,2026,1968
1959,1969,1944
1937,1968,1886
1926,1973,1901
1952,1990,1941
1942,1981,1920
1937,1978,1895
1966,2015,1945
1962,2000,1968
1935,1968,1914
1928,1982,1887
1954,2005,1936
1968,1999,1966
1954,1982,1924
1943,1983,1887
1961,1992,1933
1963,2000,1968
1949,1968,1923
1955,1977,1897
1971,2001,1941
1987,2006,1983
1967,1975,1931
1954,1996,1900
1987,2043,1959
1962,2003,1966
1934,1958,1905
1934,1953,1887
1968,1984,1947
1979,2009,1981
1963,1991,1942
1947,1969,1904
1968,1998,1947
1981,2011,1975
1963,1998,1932
1951,1975,1905
1974,2014,1955
1983,2013,1984
1968,1981,1936
1953,1963,1895
1980,2003,1949
1999,2046,2000
1957,1986,1934
1921,1951,1871
1955,1986,1930
1977,2003,1968
1967,1983,1941
1961,2000,1909
1969,2000,1936
1975,2016,1974
1963,1966,1931
1952,1966,1901
1961,2001,1943
1968,2003,1973
1963,1995,1939
1967,1986,1915
1985,2015,1962
1984,2025,1987
1950,1979,1925
1953,1984,1905
1982,2016,1951
1965,1984,1962
1949,1958,1915
1966,1974,1904
1973,2000,1943
1978,2001,1970
1961,1973,1922
1959,1968,1905
1981,2016,1950
1990,2015,1987
1981,2000,1945
1959,1984,1904
1973,2021,1941
1987,2053,1990
1966,1983,1936
1956,1969,1894
1979,2001,1945
2002,2027,2000
1962,1986,1936
1950,1989,1906
1983,2018,1966
1989,1986,1999
1969,2016,1939
1958,1991,1915
1991,2032,1961
2003,2015,1995
1965,1984,1936
1955,1988,1904
1983,2054,1949
2000,2058,1987
1984,1947,1950
1975,2007,1921
1988,2000,1950
1998,2025,1974
1996,2027,1947
1983,2033,1917
1994,2038,1945
2007,2021,1990
1989,2019,1948
1968,1966,1897
1989,1946,1951
2000,2000,1983
1986,2004,1941
1979,2003,1911
2004,2028,1961
2013,2000,1994
2000,2032,1958
1995,2003,1921
2013,2017,1968
2000,1999,1983
1991,2022,1941
1989,2004,1919
2000,1974,1957
1999,2015,1979
1991,2002,1937
1994,1973,1921
2010,2055,1954
2017,1975,1981
2006,2023,1967
2003,2011,1931
2000,2000,1936
1987,2015,1951
1982,1947,1926
1988,2004,1913
2013,2032,1966
2027,2000,1992
2006,1968,1949
1994,1983,1913
2007,2010,1946
2027,1989,1989
2019,2000,1965
2001,1950,1921
2011,2029,1951
2033,2085,1994
2016,2047,1956
2004,1943,1919
2026,1984,1968
2061,2042,2001
2027,2027,1963
2001,2006,1917
2017,2021,1961
2021,1987,1984
2028,2013,1961
2015,1942,1929
2032,1966,1968
2032,2043,1982
2023,2027,1936
2012,1988,1904
2037,2034,1968
2054,2002,2002
2035,1987,1969
2029,1924,1933
2053,2032,1968
2045,2002,2000
2015,2010,1941
2021,2002,1925
2053,2018,1964
2046,2021,1991
2032,2014,1955
2023,2002,1931
2055,2035,1971
2061,2058,2000
2039,2018,1966
2037,2013,1936
2055,2059,1978
2061,2023,2005
2042,2058,1967
2039,1993,1938
2070,2043,1983
2077,2021,2011
2034,1959,1949
2031,2043,1926
2061,2054,1974
2066,2095,2000
2045,2019,1961
2033,2013,1936
2064,2055,1970
2064,2067,2001
2047,2059,1963
2038,2005,1936
2057,2023,1972
2063,2032,1999
2047,2015,1961
2037,2001,1936
2065,2055,1986
2068,2052,2006
2038,1983,1956
2043,1985,1933
2054,1971,1967
2045,2023,1992
2034,1968,1955
2039,1990,1936
2058,2065,1970
2057,1995,1999
2035,2006,1959
2035,2018,1929
2062,2036,1973
2061,1957,1995
2031,1935,1942
2030,1973,1919
2047,1984,1968
2057,1984,1997
2032,1988,1958
2029,1969,1926
2033,1970,1959
2046,2011,1984
2034,1873,1941
2021,2000,1919
2046,2002,1962
2060,2095,2000
2025,1904,1943
2006,1968,1894
2028,1963,1939
2039,2005,1979
2032,1953,1939
2037,2000,1933
2032,1978,1955
2032,2019,1974
2017,1983,1934
2013,1983,1913
2034,2019,1957
2038,2000,1984
2026,2004,1937
2020,1985,1910
2039,2037,1959
2045,2023,1989
2020,1973,1937
2015,2006,1919
2031,1987,1955
2034,2047,1989
2019,1988,1937
2017,1977,1909
2029,2014,1951
2033,2017,1982
2020,2071,1942
2025,1996,1922
2032,2054,1944
2033,2003,1968
2017,2000,1927
2021,1937,1902
2039,1937,1948
2045,2013,1969
2027,1987,1935
2022,2000,1905
2055,2014,1952
2044,2019,1974
2031,2009,1935
2018,1987,1902
2033,1997,1949
2035,2015,1973
2018,1989,1929
2015,1987,1904
2041,2009,1952
2056,2035,1984
2032,2002,1941
2011,1999,1903
2021,2012,1933
2021,2000,1963
2015,2016,1931
2010,2002,1911
2031,2015,1946
2042,2031,1971
2019,1995,1941
2017,1983,1907
2032,2019,1946
2045,2032,1973
2019,1996,1926
2003,1995,1902
2026,2008,1941
2039,2027,1972
2031,2018,1935
2011,1971,1893
2032,2007,1933
2034,2015,1969
2026,2001,1935
2012,1998,1890
2037,2025,1941
2038,2013,1971
2015,1996,1918
2003,2005,1895
2037,2086,1959
2033,2015,1962
2000,1954,1899
1997,1968,1881
2023,2000,1935
2034,2019,1971
2026,2030,1920
2016,2003,1891
2038,2029,1941
2035,2008,1950
2020,1981,1917
2029,2011,1903
2029,2021,1933
2031,2019,1943
2016,2000,1904
2015,2018,1885
2028,2010,1936
2032,1994,1955
2018,1989,1905
2002,1995,1878
2025,2019,1931
2041,2022,1967
2026,2000,1922
2009,1991,1873
2029,1985,1915
2039,2009,1953
2027,2006,1921
2022,2015,1899
2018,2020,1922
2018,2000,1951
2011,1984,1913
2002,1992,1889
2027,2000,1930
2037,2013,1961
2015,2012,1917
2011,2002,1889
2032,2005,1933
2036,2000,1954
2019,2005,1923
2015,2005,1888
2031,2016,1936
2038,2022,1968
2019,2032,1921
2012,1998,1889
2032,2001,1927
2043,2009,1968
2028,2015,1934
2017,1995,1895
2018,2006,1929
2035,2008,1963
2018,2000,1919
2015,2010,1903
2032,2031,1948
2022,2005,1951
2003,1994,1909
2021,1984,1898
2032,1989,1937
2021,2016,1951
2006,2004,1904
2009,2007,1885
2029,2006,1932
2032,1999,1954
2013,2000,1911
2011,1990,1886
2029,1999,1935
2039,1994,1968
2010,1970,1909
2000,1974,1881
2026,2003,1931
2035,2015,1967
2011,1991,1919
2003,1981,1887
2022,1994,1926
2033,2018,1962
2023,2012,1923
2006,1994,1891
2022,2014,1936
2035,2013,1963
2025,1979,1913
2007,1978,1889
2018,2007,1936
2032,2002,1971
2016,2000,1922
2032,2032,1909
2043,2026,1949
2014,2019,1943
1996,1986,1903
2002,1951,1879
2032,1986,1936
2036,2030,1971
2030,2009,1934
2001,1978,1883
2021,1997,1919
2031,2007,1961
2025,1989,1921
2009,1973,1895
2023,2032,1935
2031,2046,1971
2014,1977,1909
2001,1964,1882
2030,1971,1934
2036,2011,1967
2023,2005,1914
2015,2007,1891
2032,2031,1932
2032,2016,1966
2005,1971,1904
1997,1955,1878
2017,1988,1926
2023,2003,1962
2006,1997,1919
2016,2013,1899
2029,2009,1935
2011,1978,1918
2000,1962,1905
2007,1967,1885
2023,2000,1923
2023,2028,1967
2015,1994,1918
2021,1999,1932
2024,2003,1902
2020,2000,1974
2010,1971,1940
2015,1987,1918
2032,2014,1901
2036,2010,1939
2027,2005,1958
2001,1968,1861
2017,2004,1903
2032,2017,1993
2003,1968,1869
2000,1957,1877
2027,1990,1936
2032,2000,1979
2026,2000,1943
2019,1983,1927
2015,1993,1899
2031,1991,1939
2023,1981,1910
2013,1968,1890
2026,2000,1926
2027,2011,1954
2011,1991,1922
2011,1968,1892
2030,1991,1898
2034,2000,1952
2015,1981,1920
2005,2000,1894
2025,2000,1927
2029,1993,1959
2007,1982,1922
2001,1989,1893
2011,1995,1929
2014,1989,1946
2000,1983,1909
2000,1984,1894
2014,1990,1931
2023,2005,1984
2009,2015,1925
2011,1983,1908
2017,1981,1921
2012,1995,1949
1995,1978,1911
1994,1984,1887
2013,2000,1925
2025,2007,1968
2004,1984,1904
2000,1982,1895
2015,1995,1936
2030,1995,1969
2005,1983,1906
1994,1977,1898
2018,2010,1974
2026,1988,1922
2010,1986,1904
2002,1972,1923
2010,2000,1924
2030,2015,1994
2003,1984,1920
1984,1965,1890
2011,1981,1934
2029,2015,1977
2022,1991,1927
1998,1953,1889
2003,1987,1929
2026,2000,1936
2003,1965,1903
2000,1974,1903
2025,2004,1943
2032,1987,1969
2025,1963,1927
2007,1969,1904
2029,1989,1949
2032,1994,1943
2014,1962,1925
2000,1941,1897
2013,2000,1942
2016,1987,1978
2012,1972,1943
1995,1955,1923
2017,1981,1936
2022,2005,1951
2011,1994,1920
1997,1963,1904
2005,1983,1930
2016,1978,1967
2000,1987,1924
1998,1968,1921
2029,1981,1952
2021,1978,2069
2002,1962,1913
2014,1968,1904
2030,2005,1875
2018,2000,1968
1999,1979,1916
1994,1953,1894
2021,1984,1937
2025,1997,1970
2002,1983,1921
2003,1980,1901
2027,1981,1947
2020,1982,1966
1996,1953,1923
1990,1954,1902
2015,1989,1937
2022,2023,1966
1995,1979,1957
1989,1963,1853
2009,1988,1937
2023,2000,1989
1995,1971,1911
1985,1977,1878
2021,2019,1939
2005,1970,1926
1980,1946,1923
1984,1968,1887
2009,1991,1993
2010,1993,1984
1994,1982,1905
1989,1981,1899
2015,1984,1938
2028,1996,1981
1998,1983,1920
1993,1984,1889
2015,2006,1935
2023,1998,1959
2002,1975,1927
1990,1959,1894
2008,1975,1952
2025,1968,1959
2015,2011,1936
2000,2007,1905
2022,1995,1941
2032,1996,1983
2009,1974,1927
1997,1983,1893
2017,2017,1947
2025,1978,1970
1999,1965,1914
1991,1969,1858
2022,2000,1946
2030,2002,1968
1994,1955,1894
1981,1965,1888
2011,1985,1954
2019,2000,1987
2009,1994,1927
1987,1971,1831
2011,2002,1974
2021,1989,1966
2002,1963,1919
2007,1974,1894
2021,1990,1975
2024,1989,1991
2001,1966,1936
2000,1968,1923
2017,1999,1925
2027,1991,1987
2012,1987,1930
1992,1987,1904
2010,2011,1942
2025,2000,1968
2011,1984,1922
2015,1983,1905
2020,1988,1936
2035,2007,1968
2023,2027,1930
1987,1970,1883
1999,1953,1919
2018,1968,1950
2011,1979,1920
2007,2000,1903
2032,1998,1949
2030,2012,1968
2015,1987,1918
2011,1974,1891
2035,2007,1933
2034,2000,1967
2013,1999,1918
2009,1970,1891
2027,2011,1936
2035,2037,1962
2032,1999,1936
2023,1968,1902
2010,1984,1909
2011,1999,1941
2021,1984,1919
1999,1978,1887
2036,2000,1936
2061,2023,1963
2081,2013,1927
1991,1968,1893
1999,1983,1925
2044,1991,1963
2027,1975,1916
2032,1986,1894
2003,2023,1936
2046,2000,1962
2007,1947,1915
2007,1969,1887
2058,2002,1936
1983,2009,1965
2032,2001,1914
1985,2000,1899
2064,2004,1943
2005,1983,1943
1992,1964,1893
1999,1968,1872
2023,1988,1929
2011,1995,1953
2010,1964,1905
2018,1974,1896
2019,2016,1933
1972,2014,1956
2027,1974,1915
1987,1965,1887
2019,1999,1922
2015,2004,1954
2002,1990,1911
2017,2002,1899
2021,1997,1937
2033,1990,1955
2000,1972,1913
2019,1994,1905
2022,2011,1936
2015,2007,1947
2001,1982,1909
1983,1997,1897
2043,2018,1936
2041,2011,1962
2011,1997,1912
2001,2031,1893
2016,2020,1936
2023,2000,1959
2023,1965,1911
2011,1986,1903
1983,2006,1938
2064,2013,1967
2045,1996,1918
1979,2000,1888
1987,2000,1936
2000,1995,1962
1972,1989,1913
2032,2019,1889
2001,2027,1936
1981,2013,1962
1987,1969,1921
2045,1968,1895
1989,1989,1915
2029,2002,1955
2007,1983,1919
2055,1988,1904
2066,2003,1938
2032,2003,1961
1985,2003,1920
2060,1999,1904
1999,2000,1940
2032,2000,1953
2004,1985,1914
2015,2000,1893
2018,2023,1935
2042,2031,1957
2011,1990,1920
2001,1988,1894
2017,1991,1936
2019,1993,1957
2010,2013,1931
2003,1955,1893
2023,2002,1946
2026,2032,1975
2011,2009,1925
1997,1985,1883
2055,2007,1933
2019,2003,1963
1985,1985,1911
2014,1994,1910
2018,2001,1945
2011,2031,1958
2002,1989,1917
1999,1970,1899
2022,1983,1939
2022,1976,1968
2057,2000,1919
2001,2000,1885
2013,2013,1937
2032,2013,1965
2016,2009,1921
2025,2001,1915
2027,2017,1943
2010,1987,1939
1992,1979,1903
1979,1968,1887
2032,2003,1943
2064,2034,1984
2000,1968,1908
2017,1965,1880
2032,2000,1931
2007,2013,1958
2035,2000,1918
1985,1999,1887
2032,2015,1936
2010,2022,1965
2000,1997,1921
2011,1962,1892
1997,2011,1930
2067,2000,1953
2054,1968,1914
2028,1970,1892
2031,2033,1955
2011,2018,1966
1977,1982,1919
1981,1975,1888
1982,2018,1936
2022,1990,1957
2013,1984,1919
2023,1999,1903
2031,2013,1943
2073,2014,1957
2013,1993,1922
2016,1996,1901
2007,2019,1947
2018,2000,1957
2015,2000,1919
2019,2031,1920
2042,2026,1940
1998,2007,1941
1991,1983,1904
2002,1968,1902
2023,2004,1949
2047,2015,1969
2005,1991,1918
2000,1990,1903
2026,2003,1943
2038,2039,1958
2002,2013,1913
1982,1998,1889
2045,2029,1954
2004,1998,1967
2019,2006,1918
2021,2000,1895
2024,2022,1965
2073,2007,1974
2014,1953,1898
1975,1983,1872
2001,2001,1936
2073,2005,1968
1998,1994,1913
1993,1994,1890
2035,2007,1936
2031,2011,1962
2014,1997,1920
2010,2002,1898
2029,2029,1939
2032,2046,1968
2015,1995,1930
2031,1989,1915
1999,2006,1913
1997,2021,1936
1991,1968,1905
2003,1966,1890
2026,2006,1935
2023,2000,1958
2001,2001,1915
2000,2023,1893
2020,2047,1939
2026,2017,1963
2006,1984,1919
2000,2011,1888
2016,2016,1936
2024,2000,1965
2011,1989,1927
2006,1990,1903
2026,1994,1941
2031,2038,1968
2010,2044,1923
2004,1990,1902
2022,2010,1951
2031,2023,1974
2033,2061,1959
2000,2014,1898
1989,1947,1911
2001,1984,1952
2001,1979,1917
2006,1986,1903
2026,2015,1950
2031,2023,1965
2018,2001,1925
2014,2000,1898
2017,2022,1942
2029,2057,1973
2013,2000,1925
2021,2007,1910
2033,2027,1949
2029,1983,1969
2032,2002,1945
2002,2007,1903
2011,2010,1937
2032,2020,1975
2000,1988,1918
2002,1994,1899
2029,2033,1955
2037,2032,1984
2014,2003,1927
2020,1984,1909
2037,2021,1959
2033,2018,1970
2018,1999,1930
2022,2013,1913
2033,2026,1959
2030,2019,1982
2017,2013,1932
2028,2026,1914
2034,2021,1949
2031,2004,1967
2014,2002,1933
2011,1991,1911
2019,2031,1951
2038,2037,1981
2023,2011,1941
2017,1989,1915
2042,2000,1965
2038,2022,1984
2028,2023,1941
2027,2028,1925
2027,2023,1950
2030,2031,1977
2027,2006,1938
2032,2006,1917
2032,2025,1943
2036,2021,1975
2027,2017,1936
2012,1998,1908
2031,2003,1963
2039,2015,1982
2030,2000,1936
2032,2033,1918
2041,2041,1966
2062,2025,2000
2032,2000,1937
1991,1979,1879
2010,2001,1933
2032,2034,1970
2031,2037,1936
2027,2032,1919
2032,2032,1948
2034,2016,1969
2029,2016,1936
2023,2002,1905
2036,2037,1952
2039,2046,1983
2032,2014,1936
2032,2009,1910
2039,2026,1953
2026,2028,1966
2002,2022,1933
2022,2026,1919
2045,2047,1959
2041,2064,1972
2026,2025,1933
2023,2039,1905
2034,2035,1939
2031,2029,1963
2015,2011,1923
2016,2003,1904
2042,2041,1959
2075,2085,1999
2007,1997,1914
1989,1969,1878
2032,2019,1949
2039,2020,1968
2017,2032,1925
2015,2032,1907
2030,2021,1949
2027,2006,1962
2029,2023,1937
2013,2023,1904
2032,2039,1951
2055,2054,1985
2009,2014,1922
1994,1989,1886
2018,2023,1937
2027,2035,1973
2025,2019,1935
2015,2034,1904
2032,2032,1937
2035,2009,1975
2014,2016,1934
2011,2023,1903
2026,2026,1941
2054,2063,1989
2009,1996,1917
1996,2003,1883
2017,2010,1936
2037,2002,1973
2015,2011,1927
2006,2001,1896
2023,2013,1936
2035,2032,1970
2032,2033,1936
2027,2007,1904
2031,2030,1949
2027,2002,1967
2010,2014,1922
2012,1999,1909
2047,2045,1979
2029,2019,1968
2000,1972,1907
2000,1953,1889
2029,2038,1940
2043,2057,1978
2030,1999,1939
2030,2033,1919
2026,2007,1943
2037,1985,1968
2027,1980,1930
2025,1938,1907
2031,1970,1947
2033,2000,1973
2041,2057,1951
2014,2000,1902
2029,1975,1939
2031,2039,1967
2000,1994,1915
2000,1981,1907
2029,1989,1950
2034,1973,1977
2015,2001,1924
2013,2022,1906
2025,1984,1942
2030,2017,1968
2022,1994,1938
2025,1988,1914
2025,1998,1950
2035,1966,1981
2009,1968,1923
2003,1979,1888
2022,1984,1933
2027,1999,1963
2011,1974,1924
2005,1981,1911
2028,2001,1958
2031,2025,1980
1996,1979,1930
1997,1994,1907
2023,1964,1947
2023,1987,1964
2014,2002,1926
2012,1982,1896
2021,2000,1937
2021,2017,1962
2003,2021,1920
2015,1959,1910
2019,1962,1927
2013,2035,1951
1995,1979,1910
1992,1921,1891
2000,1962,1924
2025,2019,1966
2000,1979,1918
2006,1970,1897
2014,2011,1926
2017,1953,1953
2012,1987,1928
1996,1981,1901
2013,2006,1936
2013,1952,1951
2010,1967,1935
2032,2000,1934
2033,2021,1952
1995,2000,1938
1972,1968,1902
1987,1986,1901
2017,1946,1939
2019,2010,1968
2000,1991,1941
2000,1978,1916
2011,2003,1939
2012,1998,1958
2000,1984,1936
1993,1991,1911
2000,1996,1931
2006,2010,1961
1999,2009,1939
2001,1983,1910
2031,2044,1943
2013,2039,1955
1994,1907,1915
1999,2011,1904
2016,1984,1937
2025,1995,1968
2001,2071,1941
2002,1978,1920
2030,2014,1954
2023,2013,1967
1999,1998,1936
1999,2047,1918
2032,2025,1952
2047,2019,1982
2017,2007,1941
1987,1982,1902
2003,1966,1933
2012,1979,1955
2001,2000,1927
2007,1968,1921
2032,1983,1961
2039,1987,1981
2007,2000,1949
2015,2064,1927
2023,1999,1946
2019,2069,1966
2010,1999,1941
2000,1983,1913
2038,2114,1957
2031,1936,1970
1981,1987,1909
1983,2029,1890
2017,2044,1931
2021,1983,1952
2006,2033,1931
2001,1957,1914
2032,1918,1950
2011,2047,1962
2017,2007,1946
2019,2042,1926
2021,2027,1931
2011,2013,1946
1995,1992,1921
1999,1959,1911
2054,2014,1960
2027,2001,1966
1968,1971,1904
1978,1924,1899
2015,2023,1942
2045,2039,1980
1996,1981,1926
1991,2010,1907
2027,2000,1936
2028,2019,1963
1994,1984,1922
1994,1985,1907
2027,2010,1955
2032,1977,1980
2000,1968,1936
2002,2017,1918
2032,2016,1949
2015,1978,1943
1983,1993,1907
1991,1989,1903
2030,2001,1951
2030,1953,1964
2000,1988,1930
1997,1998,1917
2027,2017,1947
2035,2034,1968
2011,1990,1936
2000,2083,1907
2032,1965,1957
2003,2070,1939
1989,1980,1924
2000,2021,1920
2062,2065,1978
2014,1981,1959
1967,1963,1904
1981,1988,1905
2013,2029,1942
2029,2035,1965
2000,2033,1939
1991,2013,1918
2015,2029,1943
2011,2017,1965
1990,2012,1933
2000,2031,1936
1993,2027,1936
2002,2018,1954
1984,2013,1924
1981,2014,1915
1981,1990,1935
1997,1990,1960
1987,2045,1941
1974,2027,1911
1997,1998,1935
2006,1980,1956
1985,2022,1936
1988,2061,1931
2007,2057,1941
1989,2000,1934
1971,2001,1920
1968,2015,1909
1999,2030,1942
2010,2023,1952
1989,2023,1934
1974,2014,1918
2000,2054,1943
2013,2047,1964
1993,2022,1950
1965,2014,1903
1991,2033,1932
2025,2026,1968
1986,2028,1933
1978,2036,1907
1999,2016,1932
2000,1993,1938
1986,2001,1918
1986,2018,1897
2007,2030,1936
2007,2020,1951
1986,2015,1926
1984,2004,1911
2003,2036,1936
2012,2066,1966
2003,2053,1942
1987,2024,1906
1984,1986,1923
2000,1971,1951
2003,2014,1935
2015,2035,1925
1991,2007,1927
1987,2000,1950
1994,2010,1929
1984,2013,1901
2000,2023,1938
2013,2032,1971
1997,1990,1924
1989,1984,1894
2013,2018,1939
2011,2007,1963
1993,1999,1915
2009,1986,1908
2021,2022,1949
2017,2017,1955
1991,2003,1904
1986,1998,1878
2000,2000,1937
2006,2000,1959
2000,1997,1911
1995,2000,1886
2013,2015,1949
2017,2006,1964
1998,1963,1901
1996,1992,1883
2007,2027,1930
2015,2018,1967
2001,1965,1909
2009,2022,1904
2032,2022,1953
1987,1968,1927
1975,1958,1878
1994,1969,1882
2013,2000,1946
2013,1980,1960
1998,1973,1904
1999,1986,1887
2019,2010,1943
2023,2019,1971
2005,2007,1920
1999,1968,1888
1991,1989,1920
1989,1989,1937
2002,1963,1903
2000,1969,1890
2002,1989,1939
2023,2010,1974
1996,1975,1905
2001,1994,1890
2018,2032,1949
2023,2026,1969
2019,1974,1924
1979,1949,1871
1991,1981,1931
2022,2009,1969
1995,1959,1911
2000,1968,1895
2000,1979,1941
2003,1977,1948
2007,2002,1920
2002,1987,1897
1989,2000,1931
1991,1983,1947
2000,1968,1913
2006,1991,1901
1993,2003,1936
2000,1974,1959
1995,1942,1904
1985,1959,1882
2000,1995,1933
2015,2007,1973
1993,1979,1911
1991,1963,1882
1995,1981,1933
2026,1982,1981
1982,1959,1891
1984,1977,1886
2013,2031,1950
2005,1975,1951
1984,1926,1887
1997,1951,1874
2015,1995,1936
2015,1998,1958
1997,1979,1904
1993,1970,1884
2004,1984,1943
2019,1988,1977
2015,1987,1925
1987,1979,1888
1984,1983,1930
2011,1999,1969
1993,1963,1893
2000,1979,1875
2009,1991,1930
2015,1986,1956
2002,1968,1904
1999,1954,1887
2015,1990,1939
2019,1995,1959
2007,1967,1909
2001,1990,1871
2027,2025,1939
2035,2035,2001
2000,1958,1915
1974,1953,1867
2000,2016,1935
2013,2000,1974
2007,1979,1943
2020,1979,1872
2027,1999,1995
2025,1999,1939
2018,1983,1889
2001,1982,1872
2016,2022,1953
2041,2022,1981
2019,1984,1869
2000,1966,1886
2018,1998,1946
2047,2027,1994
2023,1985,1919
1985,1952,1872
2013,2007,1935
2032,2001,1952
2011,1968,1913
2006,1968,1876
2027,2001,1949
2035,2019,2005
2030,1993,1914
2019,1973,1920
2052,2023,1968
2031,2001,1965
1995,1956,1853
2001,1964,1906
2032,2006,1948
2065,2016,1995
2023,1957,1902
2003,1974,1844
2030,2018,1949
2047,2001,1968
2027,1970,1920
2020,1962,1899
2029,1987,1939
2035,2000,1924
2028,1962,1919
2019,1968,1894
2036,2001,1946
2039,2003,1967
2020,1974,1911
2021,1968,1894
2037,2002,1962
2041,1965,1934
2029,1952,1957
2037,1989,1936
2061,2000,1969
2021,1961,1936
1990,1953,1913
2001,1947,1872
2039,1984,1983
2039,1966,2001
