2384,2134,2086
2400,2166,2146
2391,2183,2240
2358,2191,2208
2409,2169,2129
2386,2185,2178
2426,2176,2247
2365,2151,2175
2371,2152,2094
2395,2192,2176
2448,2208,2269
2331,2173,2187
2349,2163,2095
2373,2191,2147
2422,2214,2259
2384,2189,2198
2379,2167,2102
2391,2195,2160
2410,2196,2224
2372,2177,2187
2389,2176,2115
2398,2195,2175
2387,2207,2243
2416,2173,2166
2354,2166,2071
2416,2188,2150
2372,2203,2261
2306,2175,2190
2321,2158,2094
2337,2175,2138
2373,2189,2213
2351,2160,2144
2353,2170,2082
2352,2198,2166
2345,2203,2223
2288,2178,2143
2288,2161,2064
2355,2170,2122
2300,2180,2201
2331,2160,2141
2314,2146,2053
2335,2173,2128
2320,2189,2227
2304,2150,2151
2307,2147,2071
2327,2178,2140
2320,2189,2217
2289,2167,2148
2299,2160,2064
2316,2183,2134
2317,2185,2213
2288,2160,2149
2288,2160,2065
2310,2175,2112
2303,2178,2178
2246,2147,2137
2308,2141,2062
2306,2165,2131
2301,2176,2197
2286,2147,2128
2269,2131,2037
2377,2160,2098
2337,2176,2186
2262,2145,2125
2261,2127,2032
2272,2155,2096
2289,2171,2180
2256,2151,2125
2251,2138,2032
2279,2163,2095
2271,2172,2165
2234,2129,2102
2240,2126,2019
2258,2145,2080
2225,2154,2135
2204,2128,2079
2242,2112,2018
2256,2145,2098
2257,2160,2163
2197,2119,2081
2230,2098,1980
2234,2129,2063
2267,2159,2161
2180,2135,2096
2242,2117,2001
2269,2138,2047
2273,2149,2124
2176,2121,2063
2192,2118,1997
2170,2130,2046
2201,2140,2112
2185,2128,2064
2219,2125,1993
2230,2154,2064
2223,2166,2138
2187,2129,2064
2265,2127,1984
2231,2145,2026
2215,2147,2109
2161,2128,2035
2129,2100,1951
2180,2128,2015
2215,2160,2128
2192,2137,2060
2179,2126,1969
2192,2148,2018
2180,2159,2093
2166,2130,2033
2144,2114,1957
2172,2134,2005
2181,2147,2087
2071,2119,2016
2169,2111,1947
2191,2143,2001
2155,2154,2079
2154,2134,2013
2119,2114,1922
2160,2138,1984
2161,2143,2071
2117,2115,2014
2131,2109,1925
2155,2129,1967
2155,2145,2054
2119,2131,2023
2162,2129,1948
2189,2173,1998
2165,2171,2064
2157,2103,1998
2138,2085,1936
2162,2118,1997
2154,2139,2069
2124,2113,2010
2119,2095,1923
2140,2127,1975
2135,2148,2059
2119,2112,1989
2096,2061,1895
2127,2087,1965
2160,2134,2096
2145,2128,2045
2142,2097,1959
2149,2122,1994
2149,2134,2070
2128,2110,2005
2131,2094,1947
2153,2121,1994
2143,2163,2077
2125,2122,2010
2118,2058,1922
2151,2090,1985
2160,2132,2093
2135,2098,2029
2134,2091,1946
2162,2125,2000
2157,2147,2069
2130,2110,2014
2128,2098,1941
2151,2111,2011
2149,2121,2071
2128,2109,2019
2123,2083,1936
2112,2083,1934
2147,2122,2076
2171,2057,2086
2175,2092,2003
2161,2142,2011
2153,2129,2054
2135,2092,2000
2149,2083,1963
2160,2109,2025
2168,2127,2073
2151,2109,2009
2149,2092,1951
2170,2109,2011
2160,2118,2066
2135,2101,2000
2141,2077,1953
2176,2137,2043
2179,2131,2095
2151,2086,2007
2143,2083,1949
2165,2117,2003
2179,2115,2083
2162,2091,2032
2160,2074,1982
2171,2123,2014
2163,2146,2066
2141,2102,2006
2127,2087,1937
2128,2078,1977
2173,2103,2094
2176,2082,2047
2165,2086,1981
2169,2112,2016
2160,2126,2073
2143,2098,2020
2147,2083,1952
2160,2106,2007
2169,2121,2082
2143,2099,2017
2115,2086,1919
2131,2084,1983
2190,2129,2112
2182,2112,2064
2163,2087,1974
2176,2113,2003
2163,2125,2077
2137,2099,2011
2143,2090,1953
2163,2096,2011
2161,2112,2083
2146,2094,2031
2150,2082,1955
2166,2116,2004
2163,2128,2077
2139,2085,2018
2150,2074,1952
2165,2101,1989
2155,2126,2055
2128,2098,2014
2128,2077,1947
2128,2079,1971
2128,2089,2042
2139,2080,2029
2163,2095,1971
2175,2117,2011
2149,2117,2064
2122,2097,2000
2128,2081,1930
2143,2093,1968
2123,2093,2041
2139,2087,2012
2151,2077,1950
2151,2096,1978
2122,2106,2035
2119,2090,1984
2143,2083,1933
2160,2106,1995
2135,2117,2058
2112,2096,1999
2143,2073,1942
2160,2098,1988
2131,2112,2039
2111,2087,1995
2142,2079,1955
2159,2098,1988
2128,2097,2023
2106,2061,1959
2138,2065,1943
2174,2098,2003
2155,2097,2037
2096,2067,1968
2115,2064,1921
2148,2096,1983
2131,2112,2043
2094,2081,1970
2087,2064,1885
2127,2087,1942
2141,2096,2046
2101,2080,1977
2091,2069,1872
2099,2080,1907
2106,2113,2025
2106,2080,2007
2113,2057,1919
2122,2080,1949
2101,2083,2018
2091,2066,1968
2096,2063,1902
2113,2087,1942
2095,2097,2009
2065,2064,1941
2071,2058,1870
2129,2101,1954
2125,2117,2033
2095,2126,1962
2074,2058,1854
2089,2071,1901
2112,2038,2023
2116,2055,1985
2113,2081,1898
2127,2128,1939
2109,2113,2000
2097,2112,1958
2109,2075,1898
2118,2133,1943
2113,2074,2031
2091,2118,1968
2094,2117,1873
2112,2121,1936
2111,2128,2030
2096,2089,1973
2097,2043,1888
2111,2095,1929
2091,2119,2002
2089,2119,1969
2113,2081,1899
2123,2112,1951
2101,2128,2019
2074,2102,1957
2091,2105,1878
2111,2163,1937
2089,2139,1997
2064,2131,1953
2077,2090,1873
2092,2143,1933
2078,2128,2007
2058,2085,1957
2064,2102,1872
2080,2103,1923
2062,2128,2003
2029,2061,1935
2038,2099,1853
2071,2111,1911
2070,2119,2007
2038,2097,1957
2042,2074,1869
2061,2107,1922
2047,2129,2002
2009,2128,1931
2021,2079,1836
2038,2112,1903
2034,2127,1993
2000,2083,1926
2004,2075,1840
2031,2077,1891
2022,2096,1983
2009,2054,1931
2012,2054,1839
2026,2052,1877
2034,2096,1972
2023,2025,1935
2011,2101,1847
2026,2133,1906
2018,2096,1979
1997,2063,1911
2007,2021,1840
2019,2041,1889
2023,2115,1974
2002,2078,1923
2011,2045,1842
2021,2029,1889
2002,2077,1967
1986,2026,1906
1989,2007,1808
2016,1987,1879
2005,2064,1980
1987,2042,1915
1981,2039,1825
1983,1997,1868
1969,2032,1943
1966,2039,1893
1960,1985,1808
1966,2011,1851
1936,2026,1918
1971,2011,1914
1991,2000,1856
1990,2016,1887
1958,2032,1940
1925,1975,1866
1959,1958,1795
1986,1999,1869
1970,2015,1968
1941,2025,1894
1941,1968,1791
1965,1996,1856
1967,2013,1952
1936,2010,1882
1941,1942,1802
1955,1985,1856
1936,1999,1923
1920,1974,1872
1936,1958,1807
1942,1984,1840
1931,2000,1920
1920,1987,1867
1936,1970,1808
1967,2006,1891
1951,2026,1956
1931,1947,1889
1939,1961,1807
1937,1984,1849
1923,2013,1931
1919,1968,1890
1925,1978,1813
1952,2027,1855
1931,1987,1924
1911,2019,1891
1920,1972,1813
1955,2017,1869
1941,1980,1946
1923,1968,1903
1945,1887,1845
1962,2015,1897
1941,2031,1961
1933,2002,1905
1938,2019,1825
1947,1984,1869
1941,2013,1959
1933,1985,1920
1956,1990,1842
1958,1984,1881
1940,2073,1955
1927,2000,1911
1939,1970,1837
1967,1986,1883
1937,2031,1953
1923,1985,1907
1941,1981,1835
1953,2073,1883
1943,2045,1964
1933,1965,1916
1949,1967,1842
1959,2003,1890
1957,2001,1969
1943,1987,1920
1953,1983,1851
1969,1927,1903
1963,2025,1975
1942,1989,1930
1951,1970,1840
1962,1978,1904
1968,2017,1994
1953,1945,1933
1959,2010,1857
1968,2015,1904
1951,2013,1977
1939,1991,1931
1962,1964,1858
1984,2047,1919
1971,2000,1999
1947,1979,1933
1951,1984,1852
1984,1996,1920
1978,2004,1996
1959,1993,1939
1967,1966,1862
1979,1997,1920
1971,2005,2005
1952,1987,1940
1968,1971,1862
1990,1998,1916
1968,1997,2001
1959,1984,1936
1986,1991,1853
2000,2026,1938
1983,2029,2035
1968,2000,1979
1983,1994,1885
1996,2026,1936
1995,2032,2026
1990,2003,1979
1999,1990,1903
2006,2005,1939
2006,2030,2020
1979,2007,1967
1974,1998,1873
1991,2037,1936
1986,2028,2015
1975,1984,1963
1986,1970,1877
1999,1991,1920
1974,1999,2013
1955,1968,1953
1973,1968,1876
1981,1997,1916
1967,2017,2011
1942,1968,1965
1968,1942,1886
1982,1968,1925
1968,1991,1999
1953,1952,1952
1968,1933,1877
1982,1962,1933
1959,1968,2000
1934,1921,1936
1945,1889,1850
1969,1950,1910
1967,1950,1993
1941,1926,1947
1957,1911,1866
1969,1933,1911
1959,1953,1996
1936,1917,1937
1955,1895,1865
1970,1919,1911
1952,1927,1993
1931,1904,1936
1962,1899,1867
1968,1917,1906
1942,1929,1976
1920,1906,1937
1943,1890,1850
1961,1903,1906
1953,1922,2006
1927,1910,1946
1936,1883,1847
1948,1902,1904
1943,1917,1993
1922,1898,1927
1931,1894,1847
1953,1923,1909
1953,1923,2000
1933,1893,1937
1923,1881,1850
1958,1914,1914
1961,1941,2001
1938,1905,1935
1936,1897,1843
1954,1933,1911
1948,1922,2009
1920,1887,1938
1927,1878,1854
1954,1917,1920
1946,1933,2000
1923,1905,1943
1935,1879,1855
1965,1911,1920
1962,1934,2004
1925,1922,1946
1951,1917,1873
1973,1922,1926
1967,1935,2010
1938,1903,1952
1949,1885,1855
1970,1937,1906
1968,1959,2017
1947,1936,1968
1953,1911,1887
1983,1921,1933
1970,1947,2017
1951,1930,1955
1958,1925,1872
1987,1966,1936
1983,1966,2021
1955,1910,1961
1963,1898,1874
1979,1936,1934
1975,1951,2017
1959,1920,1943
1954,1919,1856
1979,1945,1937
1977,1953,2032
1966,1934,1974
1970,1925,1874
1981,1935,1923
1966,1955,2004
1949,1940,1963
1987,1927,1892
2005,1966,1943
1978,1943,2017
1946,1913,1952
1957,1914,1869
1984,1943,1923
1973,1939,2003
1949,1918,1942
1951,1904,1858
1973,1933,1911
1968,1946,2007
1951,1921,1956
1950,1896,2131
1966,1922,2480
1937,1919,2075
1917,1903,1781
1915,1856,1775
1929,1853,1751
1925,1876,1805
1910,1885,1849
1923,1883,1840
1948,1879,1869
1930,1873,1797
1904,1863,1808
1910,1865,1809
1954,1898,1827
1957,1911,1846
1922,1870,2025
1819,1757,3326
1567,1535,1451
1385,1430,1414
1246,1296,2308
1066,1136,1290
1086,1179,995
1136,1217,1989
1122,1230,1337
1217,1264,1344
1360,1370,1726
1453,1465,1860
1494,1503,1842
1557,1534,2224
1526,1501,2206
1428,1437,1826
1376,1392,1531
1427,1419,1760
1510,1498,1647
1597,1600,1954
1660,1663,2103
1732,1721,1666
1811,1805,1515
1851,1882,1535
1863,1859,1517
1887,1861,1415
1933,1935,1619
1939,1968,2173
1925,1943,1987
1943,1931,1835
1981,1954,1789
1986,1984,1810
1971,1982,1814
1981,1976,1846
2002,2004,2153
1892,1925,2171
1751,1799,1381
1762,1769,2020
1742,1744,2193
1634,1671,2141
1507,1574,1797
1461,1501,1423
1524,1535,1941
1535,1583,1576
1561,1584,1797
1616,1615,1698
1711,1680,1727
1793,1773,1987
1755,1750,2770
1569,1599,2690
1392,1467,882
1408,1498,987
1519,1535,1679
1642,1607,1971
1709,1680,2144
1712,1713,1637
1726,1728,1642
1793,1771,1785
1872,1867,1873
1895,1913,1870
1901,1920,1823
1936,1936,1699
1984,1977,1792
1986,2004,1878
1983,1997,1791
1999,1989,1713
2028,2031,1727
2028,2046,1824
2002,2021,2960
1968,1977,2338
1982,1994,1773
2000,2038,1712
1990,2000,1762
2000,1987,1907
1993,2003,1927
1966,2003,1808
1890,1931,2581
1767,1807,1392
1773,1818,1903
1731,1776,2015
1649,1693,1497
1703,1708,1599
1819,1818,1844
1870,1884,1854
1878,1872,1834
1915,1905,1823
1965,1961,1823
1977,1984,1903
1964,1968,1824
1972,1957,1830
2000,1991,1827
2000,2019,1829
1983,1998,1847
1991,1973,1826
2005,2001,1833
2014,2046,1833
2001,2005,1826
2023,1974,1824
2042,2006,1835
2053,2041,1936
2018,2002,1840
2015,1990,1822
2034,2021,1824
2035,2047,1840
2013,2010,1776
2018,1989,1679
2032,2002,1761
2038,2036,1983
2022,2016,1882
2016,1990,1703
2038,2017,1701
2027,2029,1823
2005,2005,1735
2009,1975,1759
2030,2007,2070
2014,2027,2215
1981,1999,1923
1984,1971,1770
2037,2015,1787
2034,2031,1854
1994,1986,1824
1999,1981,1812
2020,2032,1827
2027,2036,1829
1994,1997,1847
2003,1984,1840
2030,2020,1873
2029,2043,1830
1995,2013,1834
2000,1989,1877
2019,2018,1872
2027,2054,1873
2013,2022,1824
2006,2001,1805
2033,2031,1827
2027,2046,1820
2007,2027,1823
2022,2010,1829
2059,2034,1839
2046,2064,1835
2022,2037,1840
2029,2006,1830
2055,2034,1829
2026,2046,1818
2007,2014,1824
2027,1993,1822
2038,2027,1828
2038,2045,1835
2031,2035,1810
2032,1995,1767
2054,2026,1838
2043,2057,1941
2011,2029,1888
2011,1997,1827
2043,2033,1835
2054,2065,1939
2016,2035,1869
2015,2014,1792
2045,2043,1851
2035,2059,1969
2012,2022,2005
2030,2017,1954
2064,2045,2091
2059,2061,1986
2027,2033,1776
2027,2002,1820
2054,2020,1869
2007,2007,1806
1873,1883,2358
1750,1755,1476
1649,1663,2643
1443,1505,2581
1232,1339,1685
1157,1264,1477
1158,1265,2256
1056,1215,1966
976,1184,1247
1060,1223,1535
1207,1327,1420
1298,1424,2704
1212,1360,2246
977,1151,4095
374,594,3927
0,0,2291
0,0,1322
0,0,471
0,0,905
0,0,571
0,0,759
0,0,1501
239,476,1914
961,1039,1937
1306,1257,1857
1397,1328,1813
1463,1434,1823
1553,1562,1827
1616,1629,1728
1776,1683,1521
1797,1782,1439
1887,1863,3319
1924,1906,3122
2032,1976,2011
2128,2098,1616
2133,2191,1722
2135,2192,1818
2192,2205,1863
2199,2262,1884
2240,2320,1739
2255,2314,1776
2315,2321,1826
2373,2401,1841
2415,2450,1837
2430,2437,1830
2354,2439,1825
2437,2475,1829
2443,2500,1833
2431,2490,1830
2428,2479,1833
2461,2511,1832
2480,2533,1833
2457,2515,1830
2466,2502,1835
2458,2531,1819
2485,2553,1825
2438,2527,1829
2481,2499,1827
2506,2526,1831
2512,2554,1839
2448,2522,1835
2503,2480,1942
2448,2480,2000
2368,2437,1840
2325,2378,1387
2367,2384,0
2431,2429,0
2441,2466,0
2430,2448,0
2415,2434,0
2511,2475,0
2470,2505,0
2446,2486,0
2448,2468,0
2470,2469,0
2477,2489,0
2444,2459,0
2443,2439,0
2423,2469,0
2513,2498,0
2426,2465,0
2434,2434,0
2446,2446,0
2450,2458,0
2418,2428,0
2446,2391,0
2461,2415,0
2415,2443,0
2398,2416,0
2394,2381,0
2441,2397,0
2406,2414,0
2450,2382,0
2374,2352,0
2405,2395,0
2404,2403,0
2345,2348,0
2407,2315,0
2416,2350,0
2405,2365,0
2368,2339,0
2351,2304,0
2367,2321,0
2381,2351,0
2343,2307,0
2303,2254,0
2288,2236,0
2302,2254,887
2277,2224,2096
2238,2170,1982
2239,2189,1809
2257,2219,1734
2257,2207,1786
2288,2181,1827
2330,2225,1839
2338,2256,1825
2257,2192,1902
2213,2154,1813
2262,2183,2027
2230,2182,1750
2305,2149,1877
2174,2094,1911
2126,2064,2017
2071,2018,1872
2017,1967,1519
2061,1982,1675
2148,2064,1827
2183,2114,1865
2169,2101,1841
2186,2090,1824
2229,2139,1824
2231,2181,1826
2206,2129,1829
2187,2100,1833
2214,2135,1828
2164,2183,1829
2205,2157,1825
2160,2107,1829
2224,2123,1843
2273,2153,1888
2198,2140,1824
2239,2129,1750
2259,2143,1808
2261,2151,2383
2193,2124,2338
2252,2093,1904
2230,2133,1745
2260,2146,1776
2246,2095,1935
2198,2064,1831
2220,2097,1794
2241,2129,1815
2192,2103,1827
2192,2069,1829
2222,2102,1829
2165,2139,1827
2131,2109,1825
2199,2059,1830
2235,2089,1829
2195,2122,1830
2261,2093,1828
2211,2066,1830
2224,2098,1834
2231,2084,1849
2176,2043,1939
2167,2005,1805
2192,2045,1810
2187,2076,1904
2199,2028,2260
2078,1917,2027
2006,1859,1475
2001,1900,1646
2027,1920,1761
2054,1935,1840
2106,1983,1844
2166,2018,1834
2139,2007,1827
2157,2002,1820
2159,2026,1900
2174,2032,1995
2157,1998,1919
2196,1984,1799
2162,2016,1841
2255,2047,1936
2167,2016,1891
2140,2000,1798
2177,2039,1857
2160,2032,2080
2099,1983,1843
2105,1959,1776
2157,2005,1808
2176,2034,1827
2147,2011,1837
2134,1986,1835
2160,2009,1827
2160,2035,1827
2133,2011,1827
2135,1998,1831
2156,2000,1831
2162,2026,1828
2139,2000,1829
2128,1985,1823
2150,2013,1829
2143,2000,1827
2127,1979,1828
2137,1957,1829
2155,1997,1829
2142,2007,1828
2115,1980,1829
2128,1968,1834
2160,2002,1834
2154,2019,1831
2112,1982,1824
2095,1943,1831
2127,1970,1834
2138,2000,1840
2115,1978,1829
2111,1952,1831
2129,1978,1833
2131,2016,1833
2096,1973,1818
2093,1938,1795
2119,1961,1881
2122,1997,1974
2087,1967,1909
2089,1947,1816
2112,1966,1878
2119,1995,1987
2086,1973,1931
2066,1933,1831
2096,1947,1871
2096,1975,1987
2090,1949,1968
2081,1931,1871
2096,1968,1909
2103,1981,1997
2064,1957,1958
2060,1930,1867
2086,1946,1909
2086,1979,2014
2059,1941,1959
2047,1941,1860
2075,1968,1913
2085,1957,2023
2057,1922,1973
2046,1895,1872
2069,1931,1918
2080,1956,2025
2041,1935,1987
2034,1905,1885
2067,1934,1926
2067,1963,2045
2034,1939,2004
2024,1904,1895
2047,1935,1936
2064,1955,2057
2031,1926,1998
2011,1898,1889
2038,1936,1938
2053,1956,2065
2023,1923,2015
2014,1887,1906
2043,1919,1959
2053,1936,2074
2003,1899,2014
2006,1882,1919
2038,1918,1971
2037,1932,2079
2011,1904,2015
2001,1898,1923
2032,1927,1975
2021,1936,2073
2000,1920,2033
1991,1906,1932
2019,1911,1966
2015,1929,2073
1995,1905,2030
2000,1888,1937
2031,1923,1985
2026,1944,2091
1994,1904,2029
1978,1881,1921
2001,1907,1968
2013,1939,2071
1987,1923,2032
1990,1885,1932
2013,1903,1981
2017,1925,2083
1990,1904,2033
1984,1876,1926
2011,1914,1966
2015,1945,2099
1989,1932,2061
1974,1886,1939
2000,1911,1990
2006,1934,2096
1981,1904,2047
1978,1886,1939
2001,1915,1991
2000,1943,2099
1970,1917,2057
1973,1902,1942
1998,1904,1977
1999,1905,2094
1975,1894,2059
1977,1881,1946
1987,1909,1999
1986,1936,2111
1966,1909,2058
1958,1897,1941
1989,1927,2000
2001,1938,2123
1981,1905,2070
1973,1878,1955
1991,1918,1999
1987,1934,2097
1966,1906,2043
1961,1877,1936
1992,1914,2002
1995,1942,2121
1959,1921,2085
1959,1904,1967
1984,1909,1998
1989,1936,2105
1952,1915,2063
1954,1889,1963
1987,1931,2014
2000,1953,2127
1966,1904,2077
1952,1879,1962
1975,1907,1997
1987,1950,2109
1965,1913,2080
1954,1892,1977
1969,1920,2009
1982,1905,2117
1959,1933,2066
1954,1872,1964
1972,1933,2004
1981,1917,2123
1959,1935,2078
1953,1904,1966
1987,1968,1995
1971,1956,2106
1936,1899,2067
1945,1844,1974
1984,1914,2023
1979,1971,2128
1953,1913,2081
1937,1894,1957
1975,1903,2004
1972,1919,2112
1939,1881,2079
1943,1903,1968
1968,1951,2019
1974,1958,2122
1954,1923,2080
1953,1883,1965
1989,1943,2023
1984,1948,2119
1955,1941,2074
1939,1897,1963
1975,1927,2011
1983,1951,2113
1945,1904,2061
1934,1856,1930
1953,1911,1985
1972,1989,2117
1953,1957,2078
1942,1904,1951
1965,1933,1987
1970,1961,2106
1946,1947,2072
1951,1933,1969
1970,1936,2017
1981,1966,2119
1951,1952,2067
1936,1915,1951
1965,1895,1989
1975,1987,2103
1957,1946,2071
1948,1919,1963
1973,1968,2010
1978,1949,2115
1951,1923,2064
1951,1904,1956
1978,1938,2003
1982,1969,2102
1946,1951,2047
1941,1955,1944
1977,1968,2001
1987,2003,2128
1961,1982,2083
1942,1936,1945
1968,1925,1982
1983,1989,2096
1961,1963,2055
1950,1908,1952
1978,1979,1993
1991,1981,2115
1953,1974,2069
1943,1939,1955
1973,1941,1984
1990,1936,2101
1968,1970,2064
1962,1950,1968
1978,1968,2001
1986,1974,2098
1962,1962,2060
1963,1949,1963
1990,1967,2000
1993,1986,2095
1967,1968,2068
1968,1957,1971
1987,1978,2003
1995,1981,2102
1963,1958,2063
1957,1943,1946
1998,1969,1989
2003,1999,2107
1970,1943,2064
1952,1958,1940
1991,1968,1986
2005,2002,2100
1971,1981,2063
1966,1845,1943
1993,1968,1984
2000,2014,2095
1968,1974,2063
1966,1876,1950
2000,1991,1991
2011,2064,2098
1972,1973,2058
1961,1968,1947
1990,1979,1991
1995,2000,2096
1967,1984,2055
1968,1965,1945
1993,1952,1996
2006,2009,2098
1969,1991,2043
1963,1921,1931
1989,1945,1979
2003,1968,2085
1982,1936,2033
1975,1921,1939
1985,1941,1974
2000,1971,2089
1975,1968,2032
1970,1990,1942
1997,1959,1985
1999,1968,2082
1969,1963,2035
1968,1950,1931
1990,1987,1977
2002,1980,2094
1979,1961,2045
1967,1929,1936
1995,1968,1971
1991,2000,2076
1965,1915,2020
1963,1914,1920
2000,1969,1973
2000,2013,2080
1967,1965,2027
1953,1942,1901
1979,1979,1952
1991,2007,2079
1982,1988,2057
1972,1947,1936
2000,1950,1963
2000,1997,2064
1973,1975,2017
1963,2003,1921
2001,2018,1968
2003,1984,2073
1981,1966,2028
1973,1936,1917
2004,1925,1958
2011,2031,2068
1981,1974,2021
1965,1905,1913
1984,1971,1942
2005,2085,2065
1983,1972,2027
1968,1937,1911
1995,2002,1959
2011,2029,2079
1984,2059,2022
1975,1951,1905
2006,1971,1942
2010,2023,2053
1979,1956,2005
1970,1970,1904
2000,1999,1952
2000,1990,2064
1978,1970,2013
1980,1942,1910
2002,1971,1951
2003,2011,2057
1970,1993,2015
1977,1962,1905
2009,1975,1947
2013,1995,2038
1994,1981,2009
1981,1956,1915
1999,1984,1938
2011,2005,2038
1985,1991,2006
1984,1963,1921
2019,1998,1953
2019,2000,2064
1987,1978,2019
1981,1963,1904
2013,1997,1939
2026,2016,2047
2000,2000,2000
1979,1953,1882
2010,1973,1941
2028,2014,2071
1995,1997,2023
1986,1968,1905
2009,1988,1935
2023,2033,2054
1995,2002,2018
1987,1968,1904
2007,1991,1937
2022,2018,2043
1998,1994,2003
1991,1985,1904
2017,1994,1943
2014,2007,2034
1989,2000,1999
1995,1962,1904
2027,1986,1930
2031,2023,2032
2000,2000,2014
1996,1968,1902
2023,1998,1951
2027,2032,2065
2011,2002,2014
1998,1981,1903
2021,2000,1936
2029,2019,2039
1999,2016,2002
1998,1966,1904
2023,1979,1939
2022,2006,2041
1987,1990,2002
2000,1983,1907
2017,2000,1930
2028,2029,2034
2000,2010,2015
1996,1978,1909
2017,2000,1941
2032,2034,2034
2003,2001,2000
1994,1968,1895
2032,1999,1927
2032,2028,2032
2001,2012,2002
2005,1976,1916
2030,2006,1943
2030,2037,2041
2000,2000,1997
1989,1963,1879
2025,1985,1922
2033,2028,2035
2003,2007,2020
2005,1978,1907
2026,2003,1933
2029,2031,2036
2000,2015,2011
1997,1971,1901
2026,2003,1936
2037,2029,2047
2002,2007,2003
1994,1979,1903
2030,2000,1934
2032,2021,2031
2011,2005,1996
2011,1987,1902
2038,1982,1937
2036,2000,2036
2007,1999,1999
2007,1974,1898
2033,2000,1942
2043,2025,2057
2003,2001,2007
1997,1965,1890
2029,1989,1932
2032,2019,2033
2016,2010,2015
2012,1990,1919
2038,2007,1933
2032,2022,2038
2009,2000,2015
2013,1973,1904
2033,2000,1931
2032,2027,2029
2014,2030,2009
2004,1981,1904
2039,1989,1935
2034,2007,2039
2008,1994,2002
2006,1982,1904
2032,2003,1936
2043,2029,2043
2007,1999,2002
1994,1974,1887
2039,2002,1910
2053,2036,2033
2019,2015,2015
2003,1987,1906
2032,2005,1936
2032,2001,2014
2000,1968,1985
2001,1958,1891
2035,1994,1936
2055,2031,2044
2012,1998,2001
2000,1966,1883
2032,1991,1917
2038,2029,2034
2022,2000,2002
2013,1984,1893
2037,1998,1920
2042,2019,2028
2009,2003,1991
2002,1984,1892
2037,2007,1936
2055,2029,2033
2014,1993,2001
1999,1955,1898
2029,1991,1928
2038,2005,2030
2005,1998,1990
2006,1980,1899
2035,2000,1931
2045,2025,2032
2002,2002,2000
2000,1985,1895
2033,2001,1920
2037,2035,2047
2006,2000,1968
2000,1954,1872
2040,1974,1907
2052,2018,2013
2011,2000,2006
1991,1982,1909
2032,2025,1890
2060,2019,2014
2019,1993,2020
2013,1979,1869
2023,2002,1937
2040,2022,2018
2010,2000,1987
2010,1973,1881
2032,1991,1936
2032,2019,2057
2026,2001,1978
2017,1986,1903
2035,2005,1922
2055,2032,2037
2009,2005,2026
1998,1993,1878
2037,1995,1904
2058,2025,2032
2022,2002,2027
2015,1982,1872
2032,1997,1925
2033,2032,2027
2021,2015,2001
2016,1968,1903
2035,1991,1891
2043,2023,2011
2016,1999,1995
2006,1982,1887
2042,2007,1921
2047,2026,2033
2010,1995,1993
1999,1966,1904
2032,1990,1891
2046,2021,2015
2018,2005,1993
2010,1984,1875
2054,2015,1949
2057,2015,2017
2019,1987,1994
2001,1974,1871
2032,2001,1914
2054,2033,2031
2027,2006,1959
2015,1975,1898
2037,1993,1920
2047,2027,2036
2027,2000,1998
2011,1978,1834
2039,2000,1872
2058,2036,1997
2019,2001,1979
2015,1971,1862
2037,1994,1918
2042,2019,2018
2020,1999,1974
2016,1985,1887
2045,2002,1920
2053,2016,2034
2023,2000,1982
2017,1977,1866
2034,2001,1883
2042,2019,2000
2029,1998,2030
2013,1965,1891
2032,1997,1905
2058,2023,2017
2018,2000,1973
2009,1979,1918
2058,2005,1926
2062,2032,2029
2022,2009,1994
2007,1982,1878
2041,2000,1903
2055,2027,2017
2027,2002,1995
2021,1982,1893
2033,2007,1918
2027,2041,2002
2001,2007,1981
2000,1970,1873
2035,1994,1901
2039,2023,2000
2014,2014,1961
2005,1971,1897
2025,1999,1810
2032,2019,2013
2005,1999,1984
2009,1976,1876
2037,1997,1903
2032,2016,2009
2007,2000,1993
2011,1979,1889
2043,2011,1916
2042,2034,2032
2015,2000,1993
2009,1979,1881
2038,2007,1968
2039,2024,2005
2012,2010,1995
2000,1983,1890
2030,1983,1911
2035,2005,2009
2013,1985,1959
2007,1973,1872
2033,1996,1921
2039,2021,2038
2014,2006,2026
2000,1978,1874
2031,1997,1887
2044,2021,2002
2019,2006,1985
2016,1982,1883
2033,2000,1924
2033,2017,2041
2007,1990,2000
2000,1971,1923
2023,1993,1957
2040,2025,2031
2015,2000,2001
2005,1971,1871
2021,1990,1887
2026,2010,2001
2011,1998,1987
2001,1975,1863
2031,2001,1948
2032,2024,2012
2002,1994,2023
1997,1955,1877
2022,1984,1912
2031,2011,2013
2004,1995,1980
2007,1959,1872
2036,1985,1921
2035,2010,2000
1999,1987,1980
1993,1953,1866
2032,1987,1906
2033,2011,2064
2003,1998,1949
2001,1968,1872
2025,1984,1894
2030,2000,2027
1986,1971,1942
1984,1949,1836
2030,1981,1898
2027,2004,2018
1988,1979,1957
1996,1956,1850
2032,1982,1885
2032,2000,2005
1998,1982,1969
1986,1959,1883
2017,1988,1900
2032,2010,1995
2000,1989,1975
1995,1955,1865
2011,1978,1911
2018,2010,1997
2017,1998,1987
1999,1968,1878
2030,1983,1903
2032,2013,2006
2005,1993,1979
1993,1952,1856
2013,1968,1878
2031,2010,2016
2020,1995,1993
2002,1966,1874
2016,1974,1892
2023,2006,1994
1999,1985,1979
2000,1963,1874
2029,1983,1901
2038,2001,2001
2003,1986,1969
1995,1962,1857
2022,1985,1883
2027,2014,1995
2000,1993,1971
1986,1967,1863
2014,1983,1885
2045,2018,1997
2007,1999,1983
1942,1968,1869
1973,1989,1887
2041,2007,1987
1942,1986,1969
1971,1968,1872
2026,1990,1899
2059,2011,2000
2005,1994,1969
1995,1960,1857
2044,1980,1895
2053,2012,2002
1953,1990,1968
2005,1963,1857
2020,1984,1885
1984,2005,1991
1967,1971,1966
2032,1938,1861
1983,1957,1887
2015,1993,1997
1991,1975,1979
1982,1947,1872
2005,1965,1883
2010,1994,1988
1987,1973,1971
1989,1943,1871
