1967,1990,1962
1958,1959,1904
1982,1971,1904
1994,1999,2006
1970,1983,1981
1962,1961,1906
1984,1983,1937
2001,2005,2025
1979,1991,1999
1957,1962,1860
1984,1979,1872
1998,2011,1985
1976,2001,2007
1968,1968,1895
1985,1978,1909
1997,2007,2017
1973,1993,1994
1955,1973,1883
1993,1997,1905
2021,2021,2008
1988,1998,2010
1962,1967,1881
1984,1984,1872
2009,2014,2004
1985,2006,2017
1967,1971,1903
1981,1990,1894
1999,2018,1968
1979,1999,2007
1966,1965,1904
1988,1978,1902
1999,2001,2005
1974,1995,2006
1965,1974,1895
2003,2000,1904
2013,2017,2009
1975,2000,2000
1968,1968,1886
2000,1984,1903
2019,2011,1971
1985,1995,1991
1969,1970,1921
2000,1983,1904
2015,2019,2010
1998,2009,1998
1991,1983,1898
2015,2000,1872
2026,2031,2042
2000,2016,2002
1988,1977,1929
2011,1997,1898
2022,2026,2035
1995,2010,1979
1979,1977,1861
2000,1989,1922
2011,2007,2000
1998,1999,2007
1982,1968,1885
2000,1985,1917
2031,2020,2015
2002,2002,2021
1987,1973,1887
2000,1984,1900
2017,2023,2002
2005,2007,2026
1986,1971,1911
1999,1985,1948
2015,2014,1982
2000,2003,2017
1990,1975,1911
2016,1995,1903
2032,2023,2021
1997,2003,2015
1981,1981,1867
2006,1993,1895
2019,2026,2029
2001,2023,2015
1989,1983,1909
2010,1998,1913
2019,2018,2039
2000,2012,2043
1991,1981,1903
2015,1985,1943
2023,2017,2031
2000,2000,1921
1979,1968,1904
2007,1977,1906
2031,2007,2023
2000,1998,2042
1986,1962,1904
2018,1983,1884
2031,2010,2000
2001,2001,2018
1986,1979,1915
2014,1995,1906
2029,2022,2007
1995,2006,2002
1975,1967,1879
2009,1984,1891
2022,2021,1998
2001,2000,2003
1993,1970,1872
2014,1984,1901
2028,2020,1969
2015,2017,2082
1991,1982,1894
2010,1995,1857
2032,2032,2015
2015,2018,2027
2007,1987,1901
2019,2000,1872
2032,2033,1989
2003,2007,2017
1997,1970,1824
2026,1994,1873
2037,2022,2023
2011,2005,2000
1984,1985,1906
2025,2003,1904
2042,2032,2002
2007,2012,2026
1988,1984,1894
2011,1996,1908
2032,2023,2003
2009,2014,2025
2000,1986,1911
2027,1998,1911
2032,2033,2013
2007,2009,1989
1987,1982,1893
2016,1998,1894
2032,2030,2000
2009,2014,2012
1998,1984,1910
2029,1995,1904
2042,2030,2023
2017,2023,2030
2000,1986,1947
2021,2000,1909
2039,2032,1997
2017,2016,2021
2000,1986,1920
2026,1993,1906
2038,2021,2009
2013,2010,1968
1995,1970,1881
2020,1988,1886
2053,2030,1975
2032,2016,2035
2010,1977,1904
2032,1989,1949
2033,2017,2015
2019,2007,2021
2009,1979,1913
2032,1992,1908
2043,2030,2030
2023,2014,2023
2016,1988,1903
2032,2004,1898
2055,2025,2006
2027,2009,2015
2005,1982,1898
2032,1999,1893
2043,2026,2010
2027,2022,2019
2008,1986,1906
2032,1999,1897
2045,2023,2002
2019,2015,2007
2011,1987,1909
2032,2000,1898
2042,2031,2015
2017,2014,2018
1999,1979,1895
2035,1987,1910
2053,2033,2034
2031,2019,2054
2011,1995,1936
2034,2003,1921
2064,2029,2032
1998,2011,2042
1993,1986,1929
2016,2000,1932
2000,2023,2037
1988,2013,2046
2061,1984,1935
2037,2000,1936
2026,2025,2043
1971,2015,2059
2029,1984,1947
2069,1997,1942
2066,2029,2047
2064,2014,2057
1983,1985,1926
2033,2002,1940
2075,2035,2067
1979,2014,2059
2033,1982,1941
2038,1998,1949
2022,2027,2064
2026,2019,2066
2007,1984,1949
2034,2000,1939
2047,2026,2053
2031,2014,2064
2032,1986,1936
2020,2001,1941
2065,2032,2059
2019,2017,2064
1975,1989,1947
2032,2000,1933
2062,2032,2038
2033,2023,2064
2015,1997,1949
2034,2003,1931
2037,2032,2027
2023,2017,2034
2021,1993,1934
2057,2006,1936
2047,2034,2033
2026,2019,2041
2007,1989,1925
2032,2011,1936
2055,2036,2047
2034,2020,2043
2023,1985,1919
2042,2000,1921
2058,2033,2032
2023,2018,2032
2005,1981,1922
2045,1995,1927
2033,2031,2042
2061,2018,2047
2035,1980,1918
2059,1987,1916
2097,2021,2032
2067,2005,2058
2002,1968,1936
2033,1987,1923
2035,2021,2034
2032,2005,2047
2045,1974,1933
2019,1988,1930
2043,2021,2037
2001,2002,2035
2000,1979,1928
2019,1992,1923
2018,2030,2043
2046,2019,2061
2005,1986,1927
2010,2000,1919
2047,2028,2039
2045,2020,2045
2011,1982,1931
2037,1995,1933
2059,2026,2038
2032,2015,2055
2014,1982,1926
2041,1991,1918
2061,2015,2032
2032,2007,2037
2019,1971,1920
2032,1988,1905
2064,2032,2035
2080,2017,2064
1991,1984,1933
2058,1998,1923
2016,2032,2032
1994,2017,2039
1993,1982,1924
2031,2000,1922
2059,2032,2031
1917,2014,2032
2064,1984,1918
2032,2003,1917
2103,2030,2029
2018,2011,2036
2001,1974,1920
2030,1996,1914
2055,2025,2031
2032,2017,2033
2017,1985,1909
2034,1997,1901
2063,2031,2031
2029,2017,2042
2019,1988,1925
2019,1987,1909
2058,2023,2015
2007,2014,2026
2028,1990,1933
1987,2000,1921
2021,2032,2021
2059,2015,2031
2027,1984,1929
2029,1986,1914
2061,2032,2027
2051,2021,2030
2000,1985,1923
2064,1999,1907
2082,2032,2016
2060,2025,2022
1989,1995,1920
2005,2000,1913
2128,2029,2021
2032,2021,2034
2032,1987,1907
2039,2001,1904
2023,2032,2017
2042,2026,2035
2035,1969,1920
2035,1991,1904
2047,2026,2017
2029,2015,2035
2016,1987,1920
2032,1998,1907
2059,2020,2015
2035,2012,2026
2011,1983,1918
2034,1995,1904
2058,2017,2014
1965,2015,2027
2032,1985,1910
2055,2003,1901
2038,2032,2002
2038,2015,2011
2018,1983,1910
2046,1999,1914
2031,2022,2006
2011,2007,2025
2003,1983,1905
2072,1999,1907
2055,2031,2023
2029,2019,2028
2002,1988,1904
2107,2002,1891
2032,2029,2005
2057,2015,2029
2054,1984,1913
2035,1994,1899
2047,2030,1999
2032,2011,2006
2010,1980,1905
2032,1984,1891
2061,2021,2003
2043,2015,2021
2013,1983,1889
2032,1993,1885
2064,2033,2002
2037,2017,2021
2016,1980,1898
2038,1997,1889
2064,2027,1999
2038,2016,2005
2029,1986,1913
2054,1995,1894
2060,2028,1986
2032,2010,1999
2011,1981,1898
2037,1999,1895
2060,2028,2007
2026,2011,2009
2009,1971,1883
2033,1984,1885
2059,2029,2003
2032,2016,2015
2006,1982,1904
2032,1996,1886
2055,2025,1994
2029,2011,1993
2006,1981,1873
2039,1999,1888
2064,2026,1999
2029,2014,2001
2018,1984,1895
2033,2000,1886
2054,2023,1993
2021,2007,2000
2015,1979,1903
2041,1995,1897
2054,2019,2000
2027,2007,2009
2003,1975,1895
2030,1993,1898
2042,2030,2004
2023,2015,2000
2011,1987,1890
2036,1997,1890
2064,2022,2002
2038,2016,2019
2021,1984,1904
2032,1987,1883
2047,2025,1984
2030,2019,1989
2017,1988,1897
2035,1998,1890
2057,2028,1999
2032,2014,2006
2017,1983,1895
2043,1994,1885
2057,2025,1989
2027,2002,1993
2007,1983,1903
2038,1995,1899
2063,2021,2000
2023,2005,2005
2008,1975,1889
2035,1986,1877
2057,2021,1995
2032,2006,2003
2017,1982,1890
2036,1993,1883
2064,2026,1991
2037,2012,2011
2028,1981,1901
2044,1987,1884
2061,2019,1990
2034,2014,2003
2017,1977,1904
2037,1987,1883
2064,2017,1983
2037,2015,2016
2019,1987,1919
2045,1990,1902
2061,2018,1995
2031,1995,1995
2008,1968,1891
2042,1987,1893
2069,2029,2002
2037,2015,2019
2019,1982,1899
2053,1989,1881
2064,2017,1978
2033,2010,1999
2017,1970,1894
2042,1971,1877
2063,2012,1983
2023,2003,2003
2006,1978,1902
2043,1993,1885
2066,2029,1994
2043,2007,2015
2023,1974,1902
2045,1986,1891
2063,2025,1991
2033,2007,1999
2015,1983,1895
2038,1989,1886
2058,2025,1984
2031,2014,1993
2009,1974,1892
2030,1984,1887
2047,2019,2000
2029,2005,1998
2002,1975,1872
2034,1989,1872
2064,2018,2002
2033,2018,2016
2016,1986,1904
2032,1997,1882
2059,2023,1983
2034,2000,1986
2018,1971,1897
2045,1991,1887
2058,2025,1984
2032,2014,1993
2011,1979,1879
2032,1987,1869
2053,2021,1990
2039,2010,2003
2017,1984,1885
2036,1994,1870
2055,2021,1973
2023,2009,1989
2015,1974,1885
2055,1999,1889
2066,2021,1997
2035,2011,1999
2011,1975,1873
2029,1994,1877
2065,2027,1990
2038,2012,2007
2017,1978,1897
2035,1987,1878
2055,2017,1978
2032,2007,1987
2027,1983,1885
2052,1991,1869
2047,2029,1971
2031,2013,1994
2006,1968,1889
2034,1934,1875
2060,2054,1991
2027,2016,2001
2012,2007,1889
2039,2017,1881
2060,1989,1997
1994,2002,1998
2011,1952,1872
2035,1938,1872
2063,2019,1995
2033,2013,2007
2009,1995,1888
2026,2000,1861
2043,2002,1974
2032,2038,1997
2016,2010,1877
2027,1997,1841
2043,2059,1968
2030,2005,1999
2016,1975,1904
2030,1994,1875
2043,2015,1968
2029,1991,1999
2001,2000,1884
2026,1981,1871
2061,2029,1981
2034,1974,2001
2020,1927,1883
2042,2016,1861
2045,2018,1965
2018,1982,1985
2017,2023,1885
2037,1984,1879
2061,2022,1984
2032,1981,1991
2009,1973,1872
2032,1985,1861
2045,2019,1982
2027,2004,2000
2010,1975,1873
2035,1959,1872
2064,2022,1987
2034,2010,2011
2006,1971,1897
2023,1987,1863
2045,2019,1973
2033,2011,1993
2017,1977,1887
2033,2029,1883
2063,2032,1997
2032,2005,2009
2005,1966,1873
2022,1984,1857
2055,1986,1984
2037,2034,2000
2010,1936,1887
2030,1972,1878
2039,2039,1981
2023,2017,1994
2013,1936,1888
2026,1975,1855
2053,2021,1974
2028,2037,1997
2006,1987,1894
2032,1952,1879
2053,1985,1980
2034,1993,1993
2018,1975,1889
2031,1996,1872
2046,2019,1973
2023,1981,2000
1997,1963,1876
2017,1999,1871
2039,2028,1986
2021,2001,2002
2007,1974,1889
2014,1949,1863
2032,2015,1974
2020,2013,2007
2011,1979,1899
2034,1991,1873
2043,2019,1972
2027,2000,1989
2003,1972,1885
2032,1979,1869
2037,2010,1979
2018,2000,1999
1998,1970,1894
2019,1983,1862
2047,2032,1968
2021,2023,2003
2000,1982,1904
2021,1949,1879
2042,2035,1981
2016,2014,1990
2011,1984,1889
2031,1989,1878
2046,2021,1984
2027,2014,2011
2009,1986,1893
2023,1978,1874
2044,2025,1969
2032,2019,2000
2015,1989,1909
2034,1991,1887
2061,2047,1998
2030,2063,2015
2013,1957,1898
2037,2007,1872
2064,1990,1987
2037,2008,2022
2011,1998,1902
2031,2045,1870
2055,1985,1983
2032,2062,2010
2010,1965,1888
2021,1984,1858
2035,1935,1970
2032,1993,2005
2007,1963,1914
2028,1975,1894
2037,1990,1989
2018,2022,2003
2000,1961,1888
2023,1979,1864
2047,2025,1981
2031,1966,2007
2001,1957,1879
2023,1985,1867
2047,2012,1981
2021,2015,2000
2000,1951,1877
2031,1978,1856
2047,2032,1975
2022,2010,2003
1991,1947,1899
2022,1975,1858
2039,2006,1968
2022,2021,1998
2006,1917,1898
2027,2003,1872
2042,2062,1975
2021,2007,2001
2002,1968,1882
2014,1982,1858
2043,2011,1971
2028,2003,1997
2003,2000,1887
2017,2023,1872
2032,1998,1984
2016,1968,2007
2000,1968,1899
2025,1971,1872
2047,2097,1978
2033,2011,2000
2000,1951,1897
2015,2005,1872
2030,2000,1968
2010,2013,1989
2006,1978,1878
2022,1904,1872
2037,2021,1998
2013,2012,2010
1998,1983,1887
2024,1996,1868
2034,2022,1979
2021,2012,2009
2000,1973,1893
2031,1984,1872
2042,2013,1984
2026,2011,2000
2007,1978,1879
2023,1986,1878
2034,2021,1981
2023,2015,2001
2003,1985,1904
2015,1995,1873
2029,2014,1974
2013,2005,1998
2004,1971,1888
2031,1985,1878
2043,2022,1987
2021,2015,2004
2005,1983,1898
2023,1993,1873
2039,2019,1977
2026,2005,2005
1997,1971,1893
2015,1980,1876
2034,2012,2000
2009,1999,2015
1993,1965,1899
2025,1979,1872
2053,2013,1979
2018,2007,2015
2000,1982,1904
2032,1983,1877
2057,2013,1993
2030,2000,2007
1996,1968,1877
2013,1983,1869
2039,2013,1992
2027,2005,2019
2009,1984,1918
2032,1997,1890
2046,2017,1985
2016,2002,2000
2000,1981,1890
2032,1996,1882
2059,2033,1991
2031,2022,2019
1999,1987,1906
2022,1985,1872
2032,2002,1963
2013,2013,2000
2000,1983,1906
2032,1984,1887
2057,2018,1985
2023,2007,2012
1998,1975,1904
2007,1984,1872
2025,2017,1973
2014,2014,2018
1997,1978,1905
2015,1989,1873
2043,2021,1970
2012,2006,1995
1986,1973,1909
2009,1984,1887
2035,2015,2000
2027,2010,2030
1993,1981,1911
2015,1987,1878
2035,2017,1987
2007,2015,2009
1979,1975,1886
2014,1984,1866
2053,2032,1998
2025,2023,2022
1999,1988,1904
2015,1999,1889
2038,2037,1987
2018,2022,2015
1997,1993,1910
2017,1993,1875
2030,2023,1981
2013,2012,2017
1997,1979,1904
2014,1984,1872
2031,2015,1982
2005,2014,2006
1983,1978,1890
2000,1984,1872
2038,2019,1990
2031,2015,2017
2000,1982,1899
2017,1989,1885
2034,2019,1986
2015,2023,2009
2001,1986,1911
2022,1995,1885
2034,2032,1984
2011,2027,2009
1991,1987,1898
2005,1984,1867
2035,2023,1979
2014,2013,2002
1989,1977,1894
2009,1982,1857
2032,2026,1967
2021,2021,2019
2000,1987,1911
2021,1987,1876
2033,2025,1972
2017,2020,1999
2000,1984,1889
2011,1985,1871
2032,2020,1971
2017,2013,2007
2000,1984,1904
2015,1985,1872
2033,2017,1969
2027,2020,2001
2001,1987,1896
2015,1990,1885
2039,2011,1984
2015,2009,2009
1995,1983,1897
2004,1985,1869
2027,2017,1971
2018,2015,2010
2000,1981,1909
2011,1981,1871
2030,2017,1963
2015,2012,1995
1988,1974,1886
2014,1987,1871
2031,2018,1986
2015,2014,2022
1987,1981,1899
2013,1985,1872
2034,2026,1979
2017,2023,2010
1994,1982,1889
2016,1990,1847
2032,2017,1969
2016,2021,2007
2000,1987,1905
2023,1986,1861
2034,2023,2000
2015,2023,1984
1997,1991,1909
2023,1988,1838
2036,2023,1984
2014,2022,2023
1994,1979,1930
2012,1977,1822
2033,2027,2001
2022,2015,2059
2010,1981,1934
2023,1984,1861
2032,2015,1975
2000,2006,1975
1989,1983,1932
2017,1989,1856
2032,2019,1968
2011,2010,1967
1983,1978,1873
2002,1987,1872
2027,2023,2013
2017,2018,2063
1998,1979,1871
2022,1996,1874
2037,2023,1998
2016,2006,2002
2000,1984,1895
2011,1979,1869
2032,2019,1964
2003,2015,1986
1994,1984,1863
2017,1986,1870
2033,2015,1987
2013,2003,2031
1988,1979,1906
2015,1980,1863
2032,2021,1972
2014,2021,2027
1999,1984,1911
2019,1981,1872
2042,2014,1986
2019,2013,2023
2000,1981,1917
2017,1983,1866
2032,2014,1968
2017,2010,2032
1998,1973,1905
2018,1979,1879
2033,2005,1979
2011,2007,2025
1986,1982,1909
2001,1977,1865
2029,2018,1962
2017,2011,2033
1990,1970,1906
2010,1974,1872
2027,2011,1937
2006,2000,1969
1987,1973,1877
2014,1977,1878
2031,2003,1965
2010,2000,2053
1993,1968,1909
2002,1973,1872
2027,2000,1939
2007,2000,1991
1991,1968,1905
2009,1981,1853
2031,2017,2009
2009,2007,1999
1987,1971,1926
2010,1973,1891
2035,2016,1958
2017,2021,2032
1998,1984,1903
2015,1979,1837
2030,2011,1984
2010,2002,2013
2002,1975,1901
2011,1983,1904
2033,2011,1969
2011,2007,2013
1979,1969,1888
2006,1970,1872
2045,2007,1984
2022,2000,2026
2000,1970,1908
2002,1980,1863
2031,2010,1946
2020,2011,2019
2000,1984,1879
2019,1982,1968
2031,2003,1950
2013,2007,1981
1987,1979,1907
2014,1986,1870
2037,2017,1977
2029,2002,2029
2000,1979,1910
2018,1975,1821
2022,2005,1984
2003,2005,2007
1994,1968,1907
2011,1975,1872
2026,2007,1980
2010,2013,2007
1993,1982,1909
2013,1983,1895
2032,2014,2001
2021,2010,2009
1997,1980,1907
2011,1982,1886
2031,2011,1986
2005,2000,2007
1985,1971,1902
2007,1978,1870
2038,2011,1984
2022,2018,2015
1989,1973,1881
2002,1982,1821
2033,2007,2004
2029,2007,1977
2003,1970,1923
2011,1982,1878
2032,2016,1930
2014,2016,2042
1994,1984,1901
2007,1986,1853
2030,2019,1959
2006,2021,2032
1989,1991,1916
2011,1990,1869
2033,2013,1969
2022,2007,2004
1984,1974,1897
2009,1985,1867
2043,2019,1972
2016,2014,2012
1991,1979,1903
2011,1984,1869
2032,2023,1966
2014,2017,2029
1998,1975,1904
2010,1981,1844
2023,2011,1936
2009,2012,2004
1998,1982,1874
2015,1975,1847
2032,2004,2034
2010,2000,1991
1998,1978,1906
2003,1982,1825
2027,2014,1930
2013,2006,1997
1989,1973,1894
2005,1971,1903
2031,2015,1952
2015,2007,2025
1990,1978,1927
2013,1985,1861
2035,2017,1973
2021,2013,1989
1994,1973,1930
2011,1969,1858
2032,2011,1967
2027,2007,2002
2000,1972,1911
2011,1975,1872
2027,2002,1962
2007,2001,1998
1990,1973,1914
2005,1976,1872
2025,2000,1968
2005,1997,1996
1997,1971,1902
2015,1970,1870
2042,2007,1968
2010,2003,2000
1984,1968,1904
2007,1969,1870
2026,2000,1968
2005,1997,2000
1981,1969,1883
2006,1969,1858
2032,2005,1967
2018,2003,1990
1987,1970,1900
2006,1975,1865
2031,2007,1965
2010,2006,2000
2035,1967,1905
2064,1968,1862
2095,2012,1971
2027,2007,2011
1965,1974,1906
1970,1980,1855
1987,2000,1963
2030,2007,2014
2003,1973,1907
1990,1975,1860
1989,1999,1965
1990,2000,2011
1979,1967,1904
2009,1968,1849
2011,2006,1959
2026,2010,2022
1968,1974,1914
2032,1969,1867
2044,2003,1964
1971,2002,2009
1987,1978,1905
2001,1978,1871
2014,2005,1959
2001,2000,1997
1947,1975,1902
2019,1968,1853
2032,2000,1963
2063,2000,2000
1968,1968,1903
1998,1979,1857
1983,2002,1946
2000,2001,1999
1987,1975,1904
2020,1973,1854
2064,2001,1953
2003,1998,1997
1984,1968,1893
2003,1968,1857
2019,2000,1953
2014,2002,2007
1984,1968,1889
2046,1968,1855
2019,2000,1970
2042,2008,2014
1981,1973,1904
2000,1971,1854
2018,2002,1953
2009,2004,2007
1990,1981,1911
2019,1982,1862
2023,2002,1959
2010,2006,2001
1972,1973,1894
2021,1973,1852
2062,2011,1967
1978,2011,2006
1973,1984,1910
2001,1988,1869
2032,2023,1965
2033,2016,2003
2003,1982,1904
1962,1982,1863
2067,2010,1965
1979,2009,2004
1965,1968,1893
1999,1968,1856
2031,2007,1966
2001,2002,2002
1990,1971,1883
1997,1975,1853
2031,2007,1952
2031,2009,2001
1973,1971,1909
1994,1980,1865
2019,2011,1958
1999,2001,2001
1987,1971,1901
2000,1978,1855
2032,2014,1951
2005,2014,2003
1981,1968,1903
1998,1968,1853
2027,2002,1949
2015,2001,1999
1957,1979,1903
1966,1973,1856
1994,2002,1962
1905,2006,2000
1984,1968,1893
2125,1971,1854
2026,2000,1955
2010,2000,2004
2013,1970,1909
1994,1968,1859
2058,2000,1945
2005,1997,1982
1979,1973,1887
1993,1970,1851
2007,2003,1959
1998,1999,2005
1978,1973,1905
1992,1967,1863
2000,2000,1945
1991,1994,1999
1982,1963,1903
2009,1968,1872
2032,2001,1965
1999,2000,1999
2017,1968,1895
1970,1965,1853
1941,1994,1949
2032,2000,1994
2032,1971,1914
2061,1968,1864
2027,1994,1953
1999,2000,2000
2000,1965,1905
2026,1968,1869
1996,1997,1959
1995,2000,2001
1985,1968,1898
1911,1967,1858
2015,1997,1962
2073,2000,2007
1945,1972,1904
2009,1982,1849
2026,2009,1951
2009,2012,2018
1989,1977,1922
2002,1985,1859
1986,2013,1950
1986,2009,2000
2032,1971,1908
2032,1975,1863
2105,2004,1961
2005,2010,2000
1983,1977,1905
1982,1968,1850
2009,1994,1951
2010,2003,2013
1991,1981,1924
2000,1983,1875
2032,2011,1967
2005,2007,2006
1983,1979,1904
1998,1970,1861
2015,2004,1968
2004,2006,2019
1951,1983,1915
1969,1984,1868
2029,2006,1951
2005,2011,2007
1979,1999,1917
2000,1983,1858
2031,2010,1957
2003,2015,2021
1990,1979,1931
1981,1973,1872
2034,2005,1965
2007,2014,2015
1981,1974,1918
1998,1973,1875
2011,2006,1958
2003,2009,2010
1990,1977,1922
1990,1969,1869
2015,2007,1963
2013,2011,2014
1986,1982,1909
1995,1977,1873
2011,2006,1966
2009,2001,2021
1984,1979,1919
1999,1982,1890
2015,2014,1977
1996,2015,2015
1975,1973,1911
1997,1975,1863
2026,2012,1979
2009,2001,2013
1984,1980,1917
1999,1985,1872
2020,2014,1963
2000,2013,2011
1977,1987,1914
1996,1989,1872
2021,2027,1954
2000,2026,2015
1983,1985,1921
1999,1987,1863
2023,2021,1956
2000,2030,2017
1970,1984,1921
1997,1979,1863
2019,2011,1958
2004,2011,2010
1984,1980,1903
1984,1983,1867
2013,2013,1955
2006,2018,2016
1981,1981,1915
1995,1986,1849
2018,2019,1954
2015,2016,2031
1989,1984,1922
2000,1984,1863
2023,2015,1961
2005,2017,2011
1984,1983,1910
1997,1984,1859
2022,2015,1961
2003,2010,2017
1984,1982,1914
1999,1981,1867
2023,2017,1969
2002,2009,2014
1993,1978,1910
2000,1975,1855
2018,2010,1955
2010,2021,2032
1985,1985,1931
2002,1983,1872
2032,2015,1974
2007,2020,2032
1991,1989,1934
2011,1985,1876
2032,2029,1964
2009,2017,2010
1981,1991,1920
2001,1987,1869
2032,2023,1979
2020,2021,2031
1991,1985,1919
2000,1979,1859
2031,2019,1970
2022,2027,2032
1995,1995,1929
2004,1991,1872
2028,2021,1966
2007,2021,2016
1987,1991,1919
2011,1994,1871
2031,2029,1965
2015,2021,2005
1991,1985,1899
2010,1986,1863
2032,2016,1963
2019,2017,2017
2000,1985,1917
2010,1987,1869
2027,2021,1968
2012,2019,2003
1995,1985,1911
2006,1987,1869
2031,2015,1968
2019,2017,2018
1986,1981,1907
2010,1982,1861
2039,2020,1957
2024,2014,2003
1995,1985,1913
2002,1989,1872
2029,2019,1968
2025,2023,2027
1999,1987,1918
2009,1982,1851
2033,2016,1958
2017,2015,2015
1980,1987,1910
1999,1986,1852
2037,2025,1963
2032,2032,2029
2002,1991,1922
2009,1988,1868
2035,2015,1962
2027,2017,2021
2000,1990,1922
2007,1991,1871
2026,2009,1957
2016,2011,2011
1993,1982,1904
2005,1982,1856
2026,2015,1946
2022,2023,2001
2003,1984,1907
2012,1979,1860
2033,2015,1959
2011,2019,2009
1990,1984,1920
2002,1978,1856
2029,2006,1940
2010,2009,2011
1999,1983,1922
2005,1978,1859
2023,2007,1945
2001,2001,2011
1991,1968,1921
2013,1978,1867
2033,2010,1950
2019,2005,2007
1988,1968,1904
2003,1968,1849
2034,2006,1952
2019,2012,2007
1998,1971,1911
2011,1968,1856
2032,2000,1949
2007,2002,1995
1983,1969,1909
2014,1967,1872
2045,1975,1974
2021,1984,2019
1993,1951,1919
2007,1950,1870
2029,2035,1951
2003,2041,2000
1982,1953,1907
1998,2005,1858
2023,1988,1958
2012,1991,2006
1997,1967,1911
2014,2014,1861
2032,2006,1949
2006,2061,2016
1980,1984,1917
1990,1925,1857
2039,1998,1968
2022,1968,2018
1992,1988,1923
2000,1987,1870
2015,2000,1959
2005,2020,2011
1987,1979,1916
2006,1975,1862
2035,2023,1959
2009,2019,2017
1989,1975,1920
2000,1999,1856
2029,2010,1961
2015,2039,2010
1991,1994,1917
1997,1983,1856
2025,1982,1950
2015,2032,2019
1985,1984,1920
2003,1985,1869
2037,2014,1967
2020,2019,2015
1991,1986,1917
2006,1987,1867
2027,2026,1959
2007,2018,2005
1995,1983,1909
2000,1986,1857
2030,1991,1957
2006,2027,2023
1995,2026,1914
1998,1982,1854
2029,2026,1953
2018,2016,2019
1987,1986,1922
2002,1978,1859
2034,2007,1949
2016,2005,1998
1987,1969,1911
2000,2000,1865
2021,2039,1951
2018,1990,2013
1995,2007,1930
2003,1955,1855
2019,1983,1950
2017,2026,2003
1997,1954,1911
2004,1945,1863
2033,2039,1953
2023,1969,2005
1994,1928,1904
2001,1975,1850
2035,2024,1955
2025,2005,2018
2001,1949,1920
2017,1967,1863
2036,2009,1963
2027,1990,2016
1998,1979,1909
2003,1970,1846
2035,1986,1946
2030,2021,2019
1997,1983,1920
2010,1983,1855
2042,2014,1954
2033,2020,2021
2000,1987,1935
2013,1985,1870
2045,2021,1959
2032,2021,2015
2005,1983,1906
2015,1982,1858
2037,1984,1955
2031,2057,2025
2010,1994,1932
2018,2000,1872
2035,2010,1953
2024,2011,2003
2000,1998,1914
2018,1987,1867
2047,2021,1958
2029,2022,2019
1998,1984,1906
2007,1975,1854
2032,2004,1959
2035,2021,2028
2013,1969,1923
2019,1986,1866
2045,2009,1940
2023,2018,2002
1997,1967,1917
2013,1994,1862
2034,1958,1961
2027,2005,2030
1991,1978,1919
2001,1954,1851
2036,1989,1948
2018,2060,2003
2000,2006,1905
2011,1961,1856
2032,1984,1962
2022,2019,2019
2000,1982,1920
2009,2057,1866
2034,2000,1949
2022,1995,2003
1984,1954,1910
2003,1939,1861
2037,2003,1957
2027,2016,2018
2000,1997,1918
2015,2033,1853
2038,2078,1939
2032,2081,2016
2001,1996,1925
2013,1986,1871
2042,2011,1962
2032,1935,2017
2004,1951,1920
2015,1981,1865
2032,2005,1946
2015,2006,2010
2000,1991,1928
2015,1989,1861
2027,2016,1945
2021,2010,2020
2000,1981,1925
2014,1979,1870
2031,2013,1959
2014,2016,2021
1995,1984,1929
2007,1984,1860
2032,2085,1958
2022,2021,2017
2000,2000,1915
2005,1971,1856
2042,2009,1953
2027,2000,2005
2000,1957,1920
2016,1974,1871
2032,2063,1963
2027,2026,2014
1998,1981,1911
2007,1981,1858
2043,2000,1954
2031,2025,2015
2003,2021,1919
2006,1969,1857
2032,2016,1955
2023,2009,2019
2000,1986,1921
2014,1983,1870
2037,2007,1956
2030,2013,2005
2006,1984,1920
2015,1974,1870
2034,2010,1958
2019,2016,2017
2000,1985,1925
2015,1986,1869
2057,2021,1968
2033,2022,2017
2002,1989,1926
2007,1985,1859
2032,2018,1943
2026,2023,2007
2000,1989,1934
2006,1984,1865
2033,2015,1947
2032,2014,1998
2000,1984,1917
2019,1977,1877
2041,2011,1965
2027,2012,2021
1997,1984,1920
2017,1984,1872
2032,2015,1958
2017,2013,2013
2000,1983,1930
2020,1982,1873
2041,2011,1963
2023,2016,2014
2003,1984,1923
2021,1977,1872
2044,2014,1950
2032,2027,2022
2000,1989,1947
2010,1983,1861
2038,2018,1958
2019,2028,2033
1990,1989,1939
2009,1984,1878
2035,2006,1962
2029,2015,2022
1997,1981,1930
2005,1975,1863
2033,2011,1958
2018,2019,2015
1999,1994,1930
2011,1985,1876
2032,2013,1950
2022,2009,2020
1990,1975,1930
2007,1971,1874
2029,2011,1957
2019,2019,2025
1999,1988,1925
2015,1975,1865
2032,2005,1953
2015,2014,2007
1993,1981,1915
2010,1984,1871
2043,2017,1968
2032,2021,2025
2002,1981,1910
2007,1979,1859
2039,2017,1968
2032,2021,2027
1998,1991,1919
2010,1985,1853
2034,2017,1943
2015,2022,2014
1993,1983,1920
2011,1977,1857
2044,2015,1957
2030,2020,2019
2000,1984,1923
2007,1979,1868
2032,2006,1951
2030,2005,2012
1993,1983,1908
2007,1982,1855
2032,2011,1948
2028,2018,2010
2000,1986,1926
2012,1980,1857
2033,2013,1946
2016,2022,2007
2003,1987,1922
2026,1983,1863
2046,2013,1947
2028,2020,2002
1998,1987,1915
2016,1975,1856
2057,2006,1948
2037,2015,2016
2004,1982,1926
2008,1974,1858
2035,2010,1955
2032,2023,2027
1999,1987,1927
2014,1979,1867
2033,2016,1966
2027,2031,2029
1998,1997,1920
2014,1987,1856
2032,2013,1952
2019,2022,2029
1998,1987,1927
2006,1984,1858
2030,2005,1947
2015,2012,2005
2003,1986,1923
2010,1984,1863
2041,2004,1937
2030,2015,2001
2000,1982,1934
2019,1975,1868
2034,2013,1950
2022,2018,2012
1996,1981,1907
2002,1982,1851
2032,2011,1954
2026,2017,2018
2009,1979,1932
2016,1978,1869
2046,2007,1950
2030,2012,2013
1995,1981,1924
1999,1973,1869
2026,2011,1958
2028,2018,2059
1999,1986,1925
2009,1980,1856
2026,2010,1939
