1936,1940,1968
1923,1936,1934
1937,1968,1991
1945,1971,2027
1945,1939,1981
1949,1941,1959
1966,1971,2011
1971,1982,2061
1951,1955,2000
1952,1942,1950
1968,1974,1991
1977,1994,2047
1966,1957,2005
1958,1947,1962
1971,1989,2019
1984,2000,2071
1993,1968,2017
1985,1966,1997
2000,2000,2044
2000,2001,2070
1993,1966,2007
1990,1966,1975
2003,1999,2033
2017,2010,2083
1997,1974,2014
1994,1965,1984
2015,2012,2060
2017,2011,2087
1997,1968,2009
1998,1963,1983
2025,1998,2043
2031,2000,2094
2020,1978,2032
2005,1974,1987
2026,2007,2054
2038,2011,2087
2029,1943,2007
2013,1968,1977
2047,1994,2064
2047,2005,2093
2006,1939,1987
1995,1938,1949
2064,2018,2071
2073,2016,2110
2037,1968,2023
2022,1955,1984
2032,1995,2033
2032,1998,2067
2033,1973,2019
2029,1966,1982
2032,2001,2032
2053,2003,2081
2034,1968,2011
2030,1951,1986
2045,2007,2038
2037,2000,2045
1989,1952,1955
2025,1966,1965
2096,2015,2079
2089,2025,2095
2047,1979,2023
2032,1969,1973
2045,2005,2018
2045,2007,2047
2035,1970,2004
2032,1978,1977
2045,2028,2032
2039,2006,2053
2029,1961,1981
2016,1958,1961
2037,2000,2038
2061,2015,2067
2032,1966,1979
2009,1949,1904
2015,1994,1999
2054,2013,2085
2035,1984,2013
2010,1958,1934
2004,1993,1979
2069,2023,2077
2064,1996,2018
2042,1975,1962
2044,2002,2003
2047,2014,2038
2041,1979,1986
2038,1965,1947
2062,2000,1984
2047,2017,2045
2032,1986,2000
2027,1975,1962
2064,2013,2015
2068,2026,2054
2053,1987,1987
2043,1969,1945
2064,2006,2007
2074,2032,2064
2061,1983,1968
2055,1952,1923
2061,1995,1975
2055,2014,2026
2080,1984,2000
2080,1968,1952
2075,1998,2001
2070,2000,2032
2042,1961,1953
2047,1962,1931
2074,2000,2014
2085,2019,2064
2065,1977,1982
2067,1968,1935
2075,2000,1998
2075,2000,2032
2064,1965,1964
2071,1984,1926
2087,2025,2000
2081,1959,2033
2064,1941,1959
2057,1881,1904
2075,1955,1978
2080,1962,2027
2058,1943,1963
2053,1929,1918
2060,1996,1968
2063,1953,2010
2045,1904,1953
2058,1953,1926
2054,2000,1953
2039,1902,1941
2035,1824,1919
2045,1846,1900
2047,1913,1967
2059,1929,1984
2032,1902,1916
2023,1892,1878
2040,1935,1935
2044,1936,1958
2033,1903,1901
2021,1897,1860
2032,1929,1915
2042,1943,1952
2026,1899,1891
2013,1904,1856
2032,1933,1924
2034,1947,1937
2019,1889,1872
2011,1885,1842
2019,1925,1899
2031,1933,1935
2022,1895,1874
2015,1893,1841
2032,1923,1905
2043,1986,1933
2020,1908,1865
2010,1872,1831
2027,1893,1890
2031,1919,1919
2019,1882,1857
2005,1920,1813
2011,1939,1872
2027,1950,1907
2015,1872,1854
2000,1861,1820
2019,1914,1872
2032,1885,1904
2014,1916,1841
2005,1865,1808
2006,1923,1856
2006,1918,1878
1990,1853,1822
1982,1872,1803
1990,1920,1851
1994,1885,1875
1979,1867,1806
1966,1842,1775
1965,1888,1830
1971,1883,1843
1955,1837,1785
1939,1839,1765
1942,1850,1806
1950,1866,1830
1936,1833,1765
1934,1814,1742
1930,1810,1786
1931,1811,1803
1911,1791,1747
1902,1792,1728
1904,1826,1776
1902,1840,1799
1887,1804,1745
1881,1776,1725
1898,1803,1775
1903,1796,1795
1886,1799,1735
1874,1762,1707
1875,1823,1764
1879,1830,1787
1872,1763,1733
1857,1759,1703
1872,1699,1775
1871,1821,1782
1845,1761,1717
1840,1729,1695
1842,1808,1754
1854,1823,1773
1830,1857,1725
1819,1766,1696
1834,1822,1753
1840,1824,1776
1829,1771,1718
1822,1757,1693
1827,1798,1743
1839,1801,1767
1831,1776,1713
1821,1771,1697
1827,1790,1744
1839,1797,1771
1823,1788,1723
1811,1728,1694
1827,1810,1750
1834,1856,1787
1817,1807,1723
1809,1759,1709
1829,1862,1769
1833,1827,1787
1812,1787,1719
1809,1810,1701
1819,1843,1773
1836,1808,1790
1821,1808,1737
1818,1845,1715
1822,1834,1775
1835,1882,1793
1819,1802,1737
1813,1811,1718
1834,1867,1785
1838,1856,1809
1820,1819,1748
1814,1822,1721
1825,1854,1779
1839,1873,1817
1828,1873,1763
1819,1828,1728
1841,1878,1804
1850,1888,1825
1833,1829,1759
1819,1872,1729
1833,1872,1793
1852,1806,1831
1847,1863,1775
1835,1829,1754
1846,1905,1811
1859,1906,1840
1847,1874,1791
1839,1901,1765
1846,1866,1809
1869,1920,1855
1857,1877,1808
1836,1850,1776
1840,1905,1823
1859,1983,1857
1849,1839,1813
1844,1963,1801
1857,1911,1846
1858,1985,1860
1867,1904,1808
1866,1931,1801
1873,1938,1859
1872,1941,1872
1840,1888,1801
1850,1910,1794
1862,1918,1855
1877,1923,1885
1872,1909,1840
1876,1930,1819
1872,1950,1868
1879,1955,1887
1872,1938,1840
1869,1935,1824
1883,1968,1874
1889,1990,1906
1875,1935,1855
1878,1926,1840
1892,1984,1895
1904,1997,1924
1904,1965,1870
1894,1943,1847
1902,1971,1901
1907,1990,1930
1899,1967,1872
1885,1947,1840
1903,1987,1884
1909,1982,1925
1904,1967,1871
1896,1966,1862
1909,1997,1919
1919,2003,1937
1904,1957,1878
1891,1953,1853
1911,1990,1917
1913,2032,1943
1894,1984,1873
1883,1936,1846
1903,1958,1904
1909,1971,1933
1901,1947,1872
1889,1958,1847
1901,1997,1891
1909,1997,1917
1903,1968,1878
1889,1975,1854
1903,2000,1904
1914,2003,1935
1905,1975,1878
1893,1993,1855
1894,2018,1911
1911,2017,1934
1901,1962,1879
1903,1955,1858
1915,2003,1915
1919,2015,1946
1911,1986,1893
1904,1981,1863
1920,2023,1920
1924,2032,1955
1910,1998,1906
1905,2018,1882
1922,2026,1933
1941,2032,1971
1919,2000,1909
1896,1984,1872
1918,2013,1915
1935,2026,1962
1924,1998,1910
1908,1988,1879
1920,2006,1937
1929,2045,1967
1921,2000,1917
1920,1988,1897
1933,2032,1948
1941,2039,1979
1933,2005,1913
1915,2006,1885
1931,2044,1939
1943,2042,1969
1933,2021,1919
1935,2009,1899
1940,2043,1946
1941,2053,1973
1936,2029,1933
1927,2009,1902
1937,2065,1959
1946,2053,1983
1936,2007,1924
1943,2002,1909
1946,2069,1965
1947,2064,1978
1941,2018,1922
1942,2023,1907
1949,2065,1968
1963,2085,1999
1941,2036,1934
1936,2003,1911
1946,2047,1968
1962,2076,2000
1948,2039,1945
1942,2037,1918
1957,2075,1969
1966,2084,2000
1953,2045,1955
1957,2045,1936
1968,2080,1973
1968,2079,1997
1966,2047,1947
1962,2046,1929
1970,2089,1984
1981,2087,2006
1968,2057,1954
1968,2059,1933
1983,2091,1986
1994,2096,2017
2000,2069,1975
1971,2054,1938
1974,2081,1991
1990,2090,2009
1972,2064,1962
1978,2071,1947
1999,2114,2007
1994,2097,2019
1984,2062,1964
1993,2067,1951
2000,2113,1995
2000,2107,2023
1985,2077,1968
1990,2076,1953
2005,2123,2000
2009,2115,2032
1983,2065,1958
1971,2058,1927
1986,2106,1984
2001,2109,2015
1990,2055,1951
1983,2044,1926
2010,2112,2007
2000,2081,2005
1968,2031,1932
1968,2032,1920
1984,2077,1979
1992,2090,2003
1983,2053,1945
1972,2043,1927
1984,2079,2000
2000,2085,2003
1975,2060,1877
1970,2033,1893
1983,2071,1962
1991,2069,1951
1973,2032,1937
1968,2019,1920
1983,2079,1937
1995,2094,2007
1971,2032,1929
1958,2000,1900
1969,2055,1933
1977,2073,1953
1968,2016,1917
1966,2004,1897
1984,2038,2000
1979,2032,1987
1952,1989,1907
1935,2002,1899
1958,2054,1938
1981,2033,1975
1966,2015,1910
1949,2027,1869
1967,2022,1943
1961,2015,1967
1956,1995,1907
1974,2017,1905
1965,2022,1936
1947,1993,1959
1949,1979,1890
1952,1989,1855
1973,2039,1954
1991,2059,2000
1962,2015,1915
1934,1957,1859
1961,2006,1946
1953,2003,1969
1930,1962,1893
1942,1989,1904
1954,2045,1951
1953,2002,1951
1943,1973,1882
1934,1968,1877
1962,2080,1971
1965,2064,1954
1942,1959,1889
1936,1951,1897
1967,2270,1969
2033,2449,1984
1996,1871,1882
1886,1641,1869
1889,1791,1931
1939,1966,1893
1955,2069,1945
1936,1979,1899
1941,1910,1959
1942,1928,1951
1945,1946,1872
1943,1931,1891
1946,1967,1935
1952,1990,1981
1953,1935,1904
1965,1882,1968
1963,2021,1935
1967,2042,1953
1983,1983,1967
2019,1983,1991
1958,1876,1888
1924,1919,1854
1930,1929,1856
1945,1909,1877
1963,2019,1949
1997,2059,1959
1949,1884,1871
1904,1872,1847
1936,1948,1953
1943,1981,1923
1935,1982,1857
1926,1918,1840
1933,1890,1885
1945,1920,1910
1941,1918,1869
1929,1893,1840
1950,1984,1899
1936,1941,1859
1919,1869,1814
1927,1879,1816
1943,1935,1871
1939,2018,1891
1915,1905,1819
1906,1811,1855
1920,1851,1841
1921,1872,1863
1912,1863,1806
1907,1877,1791
1919,1879,1842
1922,1885,1872
1902,1863,1806
1890,1855,1775
1904,1894,1825
1925,1904,1872
1926,1882,1814
1910,1877,1776
1901,1884,1795
1910,1899,1853
1882,1829,1782
1877,1833,1777
1891,1872,1817
1899,1895,1817
1875,1815,1699
1858,1792,1702
1869,1821,1843
1884,1853,1821
1876,1855,1792
1875,1813,1744
1872,1808,1778
1869,1846,1865
1851,1809,1722
1859,1809,1746
1878,1879,1827
1875,1856,1813
1851,1809,1761
1821,1779,1689
1840,1838,1808
1861,1859,1834
1846,1833,1777
1834,1828,1798
1843,1863,1797
1856,1873,1872
1855,1854,1771
1838,1847,1755
1838,1867,1834
1853,1903,1840
1846,1846,1792
1839,1819,1801
1856,1877,1833
1842,1888,1841
1829,1855,1779
1827,1825,1757
1847,1874,1833
1863,1904,1922
1826,1861,1743
1814,1872,1759
1834,1882,1823
1843,1872,1808
1838,1856,1789
1830,1863,1765
1841,1857,1823
1856,1840,1840
1857,1904,1879
1817,1893,1730
1792,1860,1762
1818,1857,1776
1826,1846,1705
1834,1860,1764
1840,1904,1831
1850,1920,1921
1831,1894,1799
1819,1879,1782
1834,1903,1850
1845,1920,1878
1827,1885,1811
1825,1885,1795
1834,1922,1856
1844,1921,1884
1837,1903,1826
1830,1924,1802
1840,1926,1856
1843,1926,1877
1835,1904,1825
1827,1909,1806
1840,1931,1858
1856,1938,1891
1865,1934,1856
1840,1921,1815
1831,1931,1856
1845,1938,1885
1847,1917,1840
1845,1903,1824
1856,1968,1872
1863,1952,1899
1854,1919,1848
1854,1919,1829
1873,1964,1877
1883,1965,1911
1871,1937,1852
1852,1958,1835
1897,1998,1898
1887,1975,1921
1888,1925,1860
1841,1927,1840
1881,1956,1904
1922,1979,1936
1849,1957,1877
1885,1962,1858
1849,1985,1903
1863,1994,1925
1856,1949,1870
1872,1959,1856
1893,1998,1923
1876,2001,1936
1906,1938,1872
1900,1952,1854
1916,2002,1940
1919,2000,1968
1925,1985,1914
1910,2003,1897
1921,2024,1945
1920,1991,1955
1894,1967,1905
1945,2003,1949
1984,2045,2019
1970,2035,2032
1947,2027,1954
1936,2000,1927
1964,2047,2003
1999,2082,2054
2000,2032,2000
1985,2013,1969
1987,2061,2031
2005,2079,2073
2015,2037,2020
2010,2038,2000
2019,2086,2065
2032,2093,2087
2001,2045,2025
2016,2047,1987
1989,2095,2035
2046,2112,2096
2032,2064,2035
2034,2064,2011
2041,2096,2073
2047,2115,2091
2000,2066,2001
1986,2030,1998
2031,2085,2086
2002,2101,2109
2023,2065,2026
1984,2042,1983
2019,2096,2064
2064,2119,2138
2009,2079,2065
2054,2037,1974
2029,2069,2029
2029,2128,2145
2069,2096,2095
2083,2064,2000
2065,2095,2046
2018,2125,2129
2038,2094,2068
2064,2071,1987
2070,2097,2047
2096,2119,2125
2059,2075,2047
1991,2068,1968
2093,2113,2079
2142,2130,2220
2064,2095,2214
2091,2080,2204
2128,2125,2309
2111,2145,2416
2091,2114,2374
2094,2123,2322
2117,2121,2406
2122,2128,2510
2096,2096,2455
2112,2078,2377
2120,2117,2441
2146,2161,2543
2082,2105,2485
2091,2063,2405
2063,2112,2451
2126,2150,2555
2111,2125,2509
2096,2115,2406
2131,2157,2461
2096,2128,2528
2099,2081,2480
2103,2061,2405
2132,2119,2473
2123,2134,2529
2066,2095,2430
2118,2081,2381
2179,2129,2480
2151,2146,2538
2090,2098,2437
2130,2094,2383
2177,2130,2452
2148,2167,2525
2139,2126,2433
2103,2087,2315
2154,2120,2368
2154,2160,2484
2111,2123,2420
2133,2074,2304
2111,2111,2352
2160,2139,2433
2114,2097,2349
2141,2066,2247
2160,2121,2343
2163,2157,2436
2126,2126,2353
2128,2081,2240
2138,2119,2293
2179,2151,2372
2126,2111,2288
2135,2075,2192
2187,2124,2283
2183,2170,2386
2106,2119,2288
2126,2064,2147
2162,2074,2174
2162,2141,2324
2122,2116,2277
2154,2090,2159
2172,2115,2199
2130,2142,2273
2135,2103,2213
2116,2074,2126
2149,2104,2170
2143,2134,2255
2115,2109,2179
2135,2084,2102
2182,2126,2173
2167,2139,2245
2113,2096,2142
2101,2065,2034
2146,2118,2131
2175,2151,2224
2155,2107,2134
2118,2082,2040
2163,2110,2122
2138,2146,2203
2111,2110,2124
2143,2078,2023
2119,2109,2058
2155,2140,2166
2001,2116,2124
2148,2077,2014
2147,2112,2069
2147,2149,2155
2101,2097,2066
2096,2052,1939
2137,2096,2030
2176,2151,2189
2139,2109,2096
2117,2065,1965
2143,2096,2023
2145,2128,2122
2110,2099,2032
2099,2058,1923
2128,2095,1989
2149,2128,2100
2119,2089,2015
2117,2038,1911
2141,2087,1963
2129,2125,2080
2106,2083,2003
2107,2067,1913
2129,2102,1969
2128,2119,2045
2099,2064,1968
2098,2032,1874
2128,2064,1943
2135,2103,2039
2095,2040,1929
2086,2000,1819
2130,2064,1951
2139,2091,2063
2096,2033,1959
2103,2027,1877
2128,2064,1925
2127,2077,2000
2100,2019,1922
2093,1998,1836
2130,2039,1905
2130,2064,1991
2087,2021,1905
2102,2000,1824
2138,2035,1904
2138,2068,1989
2102,2026,1905
2093,1993,1806
2128,2032,1881
2146,2076,2004
2099,2031,1918
2089,1979,1803
2126,2021,1885
2128,2064,1977
2091,2010,1875
2093,1971,1799
2131,2021,1881
2125,2047,1958
2089,2000,1887
2098,1968,1786
2145,2016,1877
2142,2042,1967
2094,1981,1865
2065,1939,1753
2119,1985,1846
2128,2032,1953
2087,1980,1849
2082,1963,1762
2109,2000,1823
2086,1997,1888
2065,1954,1849
2091,1942,1786
2128,1991,1866
2126,2031,1954
2077,1969,1855
2063,1943,1756
2101,1987,1839
2112,2018,1922
2064,1959,1839
2053,1920,1742
2089,1968,1822
2093,2002,1922
2043,1936,1825
2017,1904,1709
2063,1943,1789
2078,1983,1904
2035,1935,1831
2030,1889,1728
2064,1939,1783
2059,1969,1872
2032,1931,1806
2039,1925,1711
2075,1978,1776
2080,1996,1874
2027,1943,1782
2019,1920,1685
2085,1970,1795
2099,2006,1911
2035,1975,1801
2005,1936,1680
2070,1973,1781
2090,2000,1872
2027,1959,1782
2009,1945,1706
2027,1959,1760
2037,1957,1857
1999,1934,1778
1985,1927,1675
2001,1950,1739
2007,1936,1840
1989,1909,1777
1974,1909,1667
1985,1933,1734
2002,1920,1845
1968,1899,1757
1961,1929,1653
2001,1958,1744
2018,1937,1861
1981,1922,1776
1973,1971,1671
2009,1982,1742
2022,1940,1843
1981,1942,1764
1975,1993,1667
2018,2021,1755
2055,2017,1875
2021,2019,1800
2005,2053,1702
2019,2055,1751
1997,1994,1815
1951,1955,1713
1983,1991,1663
2027,1987,1775
2039,1979,1872
2018,1963,1793
2023,1955,1712
2064,1988,1799
2070,1998,1906
2057,1966,1826
2054,1965,1738
2095,1994,1818
2092,1980,1910
2064,1932,1837
2073,1925,1758
2111,1973,1847
2112,1985,1933
2070,1941,1838
2064,1937,1755
2119,2000,1871
2138,1997,1979
2093,1951,1887
2098,1936,1785
2123,1969,1858
2122,1994,1952
2093,1939,1877
2094,1963,1783
2127,1948,1872
2128,2015,1974
2098,1934,1895
2112,1902,1808
2137,1968,1872
2123,1953,1983
2103,1987,1911
2115,1953,1836
2151,1975,1904
2149,1979,2000
2110,2004,1913
2107,1958,1814
2145,1953,1904
2160,2037,1997
2128,1984,1925
2126,1955,1834
2140,1964,1883
2142,1984,1993
2128,1973,1952
2135,1959,1847
2156,1981,1914
2149,2022,2011
2128,1952,1947
2136,1929,1857
2166,1985,1921
2159,2000,2003
2129,1975,1935
2141,1997,1858
2169,1983,1923
2156,1994,2001
2133,1963,1938
2137,1950,1861
2167,1990,1935
2166,2003,2027
2133,1962,1937
2147,1941,1867
2191,2036,1957
2190,1997,2055
2153,1965,1957
2154,1975,1872
2176,2001,1938
2176,2000,2032
2145,1979,1954
2149,1968,1868
2174,1987,1941
2169,1969,2032
2143,2017,1965
2151,1965,1887
2172,1974,1951
2171,1979,2030
2142,1953,1941
2145,1983,1861
2171,2025,1947
2183,2085,2054
2149,1967,1967
2147,1954,1872
2165,2031,1951
2165,2005,2032
2144,1971,1968
2144,2006,1893
2167,2010,1963
2157,2000,2037
2122,1953,1950
2135,1953,1874
2161,2038,1964
2142,2037,2032
2111,1994,1936
2127,1967,1877
2147,1990,1965
2140,2017,2032
2109,1941,1952
2112,1962,1871
2137,1977,1935
2128,1989,2013
2097,1970,1939
2112,1966,1872
2129,1981,1939
2118,1984,2015
2096,1969,1951
2109,1983,1882
2135,2000,1937
2114,2112,2013
2084,1979,1946
2095,1963,1859
2128,1957,1943
2112,2032,2037
2081,1974,1955
2091,1959,1879
2110,1985,1936
2097,1936,2021
2085,1958,1955
2096,1955,1874
2112,1994,1947
2101,1998,2018
2073,1977,1946
2083,1978,1873
2107,2002,1941
2096,2022,2026
2071,1969,1950
2082,1971,1869
2095,2027,1937
2089,2000,2021
2063,2026,1941
2071,2013,1875
2096,2016,1952
2087,1984,2032
2053,2002,1952
2064,1949,1871
2089,1966,1943
2087,1984,2026
2047,1995,1946
2047,1994,1869
2090,1967,1961
2083,2006,2035
2046,1987,1947
2059,1951,1867
2083,1961,1936
2064,1997,2015
2035,1965,1941
2046,1951,1870
2065,1973,1937
2077,2001,2029
2038,2000,1949
2035,1970,1857
2065,1985,1935
2070,2013,2036
2035,2015,1954
2041,1971,1867
2064,2013,1929
2057,2002,2012
2029,1981,1946
2033,1975,1872
2059,2017,1933
2058,2001,2007
2029,1995,1938
2032,2029,1863
2055,1997,1930
2039,1991,2009
2014,2021,1936
2017,1968,1856
2032,1985,1917
2032,2000,2009
2002,1996,1936
2013,1968,1858
2036,1984,1923
2020,1978,1995
1986,1957,1904
2011,2014,1838
2034,1981,1928
2016,2010,2023
1981,1984,1930
1987,1905,1831
2020,1973,1904
2023,1985,1997
1995,1962,1930
1993,1951,1841
2018,1982,1909
2014,1999,1990
1985,1971,1914
1996,1946,1825
2007,1975,1904
1995,1985,1987
1968,1958,1909
1984,1949,1834
2008,1968,1903
1997,2006,1981
1971,1969,1907
1984,1949,1839
2011,1980,1919
2000,1989,2001
1968,1950,1905
1966,1952,1827
1995,2007,1907
1991,1989,1984
1968,1952,1911
1977,1937,1840
2004,1971,1903
1991,1997,1971
1961,1975,1904
1955,1949,1819
1990,1962,1894
1978,1975,1984
1952,1948,1907
1962,1951,1829
1984,1983,1903
1981,1998,1982
1953,1966,1904
1955,1955,1821
1969,1983,1893
1969,1989,1968
1950,1951,1899
1958,1936,1825
1975,1970,1893
1977,1983,1981
1954,1962,1906
1953,1949,1831
1968,1975,1891
1966,1983,1959
1936,1962,1903
1954,1952,1836
1969,1968,1892
1956,1977,1962
1936,1949,1894
1936,1947,1809
1963,1959,1881
1950,1967,1955
1919,1938,1888
1935,1932,1824
1961,1968,1904
1962,1999,1978
1927,1969,1894
1934,1905,1813
1959,1936,1879
1952,1968,1966
1919,1950,1890
1923,1923,1822
1941,1968,1893
1936,1961,1965
1922,1934,1889
1934,1921,1807
1949,1950,1888
1939,1971,1966
1921,1949,1903
1936,1936,1823
1955,1961,1889
1946,1969,1971
1914,1943,1903
1920,1921,1808
1943,1957,1870
1935,1967,1954
1911,1935,1893
1923,1933,1817
1948,1967,1886
1938,1955,1961
1917,1912,1904
1929,1907,1827
1951,1952,1893
1941,1962,1966
1922,1938,1895
1929,1924,1819
1954,1948,1887
1943,1963,1971
1917,1950,1899
1925,1919,1811
1939,1953,1887
1941,1980,1984
1927,1965,1919
1921,1923,1818
1945,1949,1879
1935,1973,1982
1904,1959,1915
1915,1924,1828
1943,1953,1898
1936,1963,1974
1909,1927,1889
1915,1918,1808
1938,1955,1881
1936,1965,1978
1916,1936,1906
1919,1918,1821
1939,1953,1887
1929,1968,1965
1897,1917,1876
1905,1906,1796
1920,1935,1890
1915,1961,1981
1894,1935,1903
1910,1911,1821
1939,1954,1896
1920,1954,1968
1893,1913,1869
1904,1904,1808
1936,1963,1894
1933,1952,1975
1889,1925,1891
1893,1898,1804
1916,1920,1875
1909,1936,1957
1891,1915,1872
1904,1910,1808
1926,1936,1891
1919,1955,1963
1897,1933,1885
1904,1911,1815
1924,1939,1881
1909,1957,1958
1875,1923,1874
1902,1918,1802
1925,1966,1887
1920,1952,1974
1890,1904,1894
1890,1902,1811
1915,1936,1875
1904,1947,1952
1879,1927,1886
1901,1913,1808
1917,1936,1878
1904,1956,1959
1877,1927,1885
1884,1905,1810
1909,1931,1872
1903,1965,1986
1879,1930,1894
1899,1901,1817
1920,1936,1878
1904,1947,1953
1873,1910,1873
1886,1904,1778
1907,1944,1877
1903,1953,1922
1870,1925,1892
1883,1904,1804
1914,1928,1897
1903,1936,1955
1886,1935,1893
1891,1915,1787
1917,1931,1871
1904,1937,1948
1872,1890,1879
1886,1879,1808
1920,1952,1936
1914,1954,1964
1883,1904,1898
1884,1895,1781
1911,1941,1906
1901,1959,1950
1888,1942,1914
1903,1920,1808
1923,1936,1933
1905,1939,1936
1876,1921,1914
1889,1905,1803
1922,1952,1877
1907,1963,1968
1886,1911,1893
1898,1904,1807
1917,1947,1870
1904,1953,1962
1881,1923,1904
1890,1900,1802
1920,1940,1898
1907,1966,1968
1873,1920,1882
1887,1909,1855
1929,1941,1901
1919,1954,1994
1882,1915,1899
1889,1907,1818
1913,1949,1886
1908,1973,1982
1885,1927,1909
1898,1905,1831
1908,1936,1891
1904,1943,1985
1879,1919,1906
1904,1905,1825
1934,1943,1919
1927,1954,2000
1885,1914,1858
1895,1925,1851
1923,1967,1894
1914,1981,1970
1891,1956,1933
1904,1918,1785
1925,1948,1930
1910,1964,2031
1889,1931,1936
1899,1919,1825
1919,1964,1895
1911,1957,1951
1886,1925,1907
1898,1922,1838
1925,1954,1916
1915,1966,2001
1886,1930,1886
1900,1923,1827
1936,1962,1903
1927,1962,1984
1897,1947,1913
1904,1943,1841
1925,1957,1882
1918,1968,1990
1893,1962,1904
1917,1930,1826
1941,1955,1914
1921,1968,2081
1880,1933,1879
1882,1918,1830
1929,1951,2017
1922,1968,2000
1894,1947,1917
1905,1933,1859
1931,1953,1907
1926,1969,1990
1915,1943,1924
1913,1936,1844
1934,1968,1917
1920,1989,1979
1893,1936,1936
1909,1925,1825
1946,1968,1918
1936,1987,2012
1899,1936,1919
1901,1916,1818
1934,1971,1904
1925,1984,1981
1907,1943,1889
1919,1934,1839
1934,1967,1887
1923,1981,1997
1904,1953,1923
1908,1945,1875
1929,1963,1951
1930,1978,2000
1905,1942,1904
1914,1931,1858
1936,1984,1923
1935,1994,1982
1904,1948,1904
1905,1920,1839
1936,1954,1904
1936,1974,2003
1904,1942,1917
1911,1938,1840
1939,1971,1972
1933,2000,2007
1906,1952,1940
1914,1937,1803
1938,1971,1962
1932,1987,1985
1920,1953,1929
1931,1950,1875
1956,1988,1918
1948,2000,1990
1925,1965,1920
1923,1922,1833
1943,1942,1917
1938,1978,2000
1922,1969,1936
1934,1955,1856
1956,1977,1921
1950,1982,1987
1920,1954,1909
1935,1957,1855
1959,1989,1929
1949,1995,1989
1909,1952,1957
1928,1938,1858
1966,1980,1947
1955,1999,1961
1920,1968,1920
1936,1949,1861
1966,1971,1926
1953,1981,1994
1926,1966,1936
1933,1941,1847
1955,2000,1914
1951,1991,1998
1936,1943,1915
1941,1949,1885
1970,1979,1936
1958,1989,2005
1929,1962,1920
1941,1936,1854
1973,1972,1936
1964,1994,2007
1933,1968,1923
1936,1957,1837
1968,1982,1915
1968,1984,2010
1940,1968,1938
1941,1943,1858
1966,1956,1920
1967,2010,1997
1935,1966,1921
1951,1953,1861
1984,1975,1935
1968,1989,2003
1943,1974,1936
1958,1968,1870
1985,1995,1936
1969,2000,2006
1948,1957,1935
1959,1954,1850
1980,1999,1925
1959,2003,1999
1951,1975,1941
1937,1961,1856
1975,1979,1917
1971,1989,1999
1963,1979,1950
2000,1968,1875
1994,1984,1936
1988,2013,2011
1952,1968,1936
1994,1955,1859
1999,2001,1933
2000,2010,2005
1931,1983,1936
1989,1962,1861
1986,1983,1935
2010,2003,2011
1953,1982,1936
1998,1968,1860
2000,2000,1920
1993,2032,2005
1969,1989,1941
1983,1971,1873
2000,1973,1939
2000,1995,2015
1965,1980,1927
1962,1984,1856
1975,1998,1942
2011,2003,2030
1969,1973,1952
1986,1969,1868
2000,1999,1932
1999,2016,2011
1974,1991,1942
1973,1978,1878
2004,2030,1959
2007,2054,2035
1971,1973,1948
1977,1953,1868
2001,2005,1936
2000,2030,2023
1947,1983,1952
1996,1984,1873
2001,2003,1937
1998,2012,2014
1975,1991,1945
1986,1978,1867
2004,2003,1938
2010,2014,2032
1966,1989,1954
1966,1966,1872
2015,1998,1947
2015,2009,2018
1973,1975,1936
2019,1974,1857
1979,2005,1943
1974,2013,2032
1980,1982,1937
1997,1975,1872
2004,2019,1942
2001,2010,2007
1978,1973,1936
1983,1963,1866
2017,2001,1936
2021,2027,2032
1981,1997,1947
2000,1991,1863
2019,2011,1936
2009,1991,2007
1994,1967,1943
1994,1963,1868
2029,2013,1936
2038,2019,2018
2026,1972,1937
2045,1968,1857
2081,2000,1945
2084,2019,2021
2061,1988,1936
2062,1970,1840
2101,2007,1939
2091,2019,2017
2090,2010,1939
2085,1986,1872
2105,1985,1926
2115,1997,2000
2043,1967,1936
2038,1965,1857
2121,2011,1933
2125,2026,2015
2097,1979,1938
2155,1958,1861
2128,1990,1936
2114,2000,2017
2095,1980,1941
2112,1971,1856
2128,1991,1919
2128,2017,2021
2112,1963,1953
2123,1927,1863
2141,1979,1927
2133,2002,2011
2111,1978,1950
2128,1953,1872
2181,2000,1947
2109,2018,2032
2122,1974,1947
2112,1961,1863
2173,1998,1934
2141,2011,2023
2107,1975,1927
2079,1957,1856
2167,2000,1948
2086,2000,2032
2118,1956,1946
2091,1948,1859
2141,1983,1936
2159,2002,2019
2082,1981,1939
2138,1957,1867
2097,1991,1937
2128,2000,2015
2106,1981,1931
2118,1963,1861
2144,1977,1938
2143,1989,2022
2018,1974,1941
2147,1968,1859
2126,1968,1935
2129,1986,2020
2097,1964,1943
2115,1955,1868
2123,1984,1924
2109,1994,1999
2091,1949,1921
2097,1954,1862
2128,1981,1934
2115,1968,2002
2093,1943,1927
2160,1949,1852
2074,1967,1914
2111,1986,1992
2074,1952,1921
2078,1931,1846
2113,1969,1919
2100,1981,1990
2070,1939,1915
2089,1935,1835
2071,1967,1905
2085,1968,1989
2067,1939,1907
2085,1934,1836
2096,1959,1903
2065,1979,1984
2081,1943,1906
2056,1919,1827
2081,1939,1906
2073,1963,1968
2045,1946,1901
2043,1925,1833
2077,1963,1918
2057,1973,1990
2019,1917,1904
2027,1901,1813
2063,1937,1894
2058,1957,1971
2026,1935,1901
2019,1903,1815
2032,1931,1875
2032,1947,1950
2016,1909,1885
2021,1893,1813
2038,1925,1881
2026,1930,1952
1995,1911,1872
2006,1904,1794
2025,1933,1857
2023,1954,1956
1998,1903,1888
1984,1874,1798
2014,1907,1869
1994,1906,1930
1963,1868,1855
1979,1873,1791
2000,1918,1862
1984,1923,1923
1955,1876,1840
1961,1873,1770
1974,1891,1846
1970,1904,1927
1941,1866,1842
1947,1855,1747
1974,1904,1834
1965,1923,1918
1927,1863,1835
1920,1840,1744
1936,1871,1808
1936,1882,1889
1904,1837,1811
1913,1825,1719
1927,1863,1807
1921,1872,1892
1895,1847,1806
1891,1824,1717
1915,1861,1781
1914,1872,1872
1881,1835,1795
1883,1808,1713
1910,1823,1779
1895,1848,1847
1862,1827,1767
1857,1794,1691
1878,1821,1770
1872,1823,1838
