2000,1959,1878
1973,1977,1970
1965,1971,1956
1984,1957,1853
1991,1959,1869
1985,1973,1973
1978,1967,1955
1993,1942,1851
1983,1967,1867
1964,1975,1970
1956,1962,1959
1986,1955,1872
1991,1958,1885
1970,1971,1983
1955,1959,1943
1968,1936,1845
1987,1951,1875
1983,1968,1984
1968,1957,1958
1983,1947,1849
1985,1951,1865
1983,1968,1972
1977,1963,1961
1994,1945,1861
1990,1956,1870
1968,1968,1966
1968,1954,1945
1990,1949,1851
1996,1954,1865
1970,1968,1956
1963,1955,1943
1986,1939,1850
1997,1953,1873
1974,1968,1968
1962,1962,1954
1984,1954,1859
1998,1963,1881
1983,1973,1972
1968,1964,1949
1994,1937,1858
1988,1948,1863
1970,1959,1953
1968,1955,1952
1987,1948,1859
1996,1949,1872
1973,1962,1958
1963,1955,1942
1990,1943,1861
1997,1939,1874
1978,1966,1969
1961,1953,1939
1981,1941,1847
1995,1953,1861
1976,1958,1953
1961,1953,1940
1971,1936,1853
1983,1954,1870
1975,1970,1968
1968,1950,1947
1986,1934,1853
1992,1951,1867
1968,1959,1968
1961,1953,1959
1987,1934,1856
1991,1947,1872
1967,1965,1951
1967,2006,1946
1985,1941,1856
1991,1965,1863
1983,1954,1975
1975,1979,1956
1982,1904,1849
1982,1969,1859
1963,1908,1955
1966,1901,1949
1999,1966,1867
1988,1962,1869
1970,1937,1966
1968,1949,1951
1981,1901,1852
1991,1941,1857
1973,1952,1967
1967,1935,1954
1990,1922,1861
2000,1938,1873
1975,1935,1972
1967,1952,1953
1983,1939,1847
1986,1955,1857
1969,1973,1956
1976,1959,1953
1990,1936,1857
1989,1941,1869
1975,2022,1969
1968,1962,1955
1983,1942,1858
1989,1973,1868
1968,1984,1967
1968,1943,1958
1982,1925,1853
1991,1983,1869
1970,1963,1967
1967,1956,1952
1982,1942,1861
1993,1939,1873
1979,1957,1979
1971,1963,1963
1983,1946,1857
1987,1947,1867
1977,1961,1968
1975,1961,1954
1984,1941,1856
1984,1959,1873
1970,1969,1966
1968,1958,1951
1982,1941,1862
1985,1958,1872
1975,1970,1975
1962,1955,1965
1977,1939,1859
1984,1936,1867
1973,2007,1970
1982,2001,1968
1987,1957,1865
1989,1935,1882
1970,2003,1969
1966,1986,1952
1974,1913,1860
1992,1936,1876
1975,1936,1970
1961,1949,1957
1973,1938,1856
1987,1943,1869
1981,1968,1973
1966,2002,1950
1982,1955,1846
1987,1966,1866
1972,1967,1966
1968,2013,1968
1979,1922,1863
1984,1936,1863
1969,1953,1958
1965,1950,1947
1998,1947,1863
1992,1959,1872
1977,1963,1963
1968,1963,1953
1984,1947,1858
1987,1947,1872
1979,1971,1974
1973,1968,1968
1984,1938,1859
1995,1997,1871
1969,1919,1971
1966,1891,1971
1991,1943,1872
1995,1937,1872
1981,1957,1968
1982,1965,1966
1999,1939,1862
1991,1873,1868
1978,1971,1968
1979,1963,1963
1991,1973,1872
2000,1955,1873
1978,1975,1968
1978,1957,1965
1998,1939,1866
2000,1952,1875
1985,1965,1968
1985,1964,1963
1998,1942,1867
1989,1940,1872
1975,1968,1973
1989,1955,1970
1995,1895,1859
1995,1920,1872
1981,1938,1975
1971,1882,1969
1997,1902,1865
1998,1911,1873
1991,2023,1983
1986,2002,1979
2000,1907,1869
2004,1970,1884
1981,1991,1977
1970,1989,1967
1995,1924,1871
2002,1966,1883
1991,1943,1982
1989,1955,1967
1998,1926,1866
2000,1956,1881
1987,1955,1984
1983,1963,1975
1995,1937,1856
1984,1951,1858
1975,1978,1969
1984,1967,1971
1997,1918,1866
1999,1970,1870
1987,1954,1968
1984,1968,1967
1997,1951,1870
2003,1956,1875
1995,1972,1975
1983,1963,1968
1993,1946,1857
1995,1937,1863
1979,1899,1956
1968,1915,1966
1998,1936,1872
2010,1960,1889
1986,1990,1972
1977,1936,1962
1994,1939,1859
2007,1925,1882
1983,1959,1968
1978,1931,1958
1993,2004,1858
2003,1937,1869
1983,1919,1973
1968,1943,1964
1985,1986,1872
2000,1956,1892
1982,1997,1979
1969,1882,1970
1996,1923,1871
2006,1953,1883
1997,1972,1984
1973,1962,1962
1982,1952,1865
1994,1968,1875
1983,1985,1975
1973,1968,1970
1985,1952,1867
1997,1963,1877
1990,1975,1984
1984,1968,1971
1995,1952,1872
2000,1968,1882
1985,1978,1979
1975,1968,1968
1993,1957,1863
2003,1966,1883
1985,1975,1983
1968,1969,1968
1989,1959,1866
1998,1957,1881
1979,1968,1969
1977,1950,1962
1993,1955,1871
2000,1967,1877
1993,1971,1983
1984,1963,1964
1998,1955,1866
2002,1968,1885
1986,1975,1981
1984,1968,1970
1999,1951,1873
1995,1959,1872
1971,1965,1961
1970,1967,1957
2002,1957,1874
2000,1962,1873
1980,1977,1968
1978,1971,1966
1989,1946,1866
2003,1950,1877
1989,1963,1975
1968,1955,1952
1991,1945,1861
2000,1955,1878
1983,1963,1967
1970,1957,1959
1998,1940,1872
2004,1955,1882
1989,1969,1977
1983,1955,1968
2001,1936,1872
2004,1941,1873
2000,1965,1976
1993,1958,1965
2000,1942,1855
2001,1949,1863
1984,1959,1970
1979,1955,1958
1990,1947,1859
2000,1961,1871
1995,1969,1970
1979,1967,1966
1998,1949,1872
1999,1956,1874
1985,1966,1969
1999,1968,1971
2010,1962,1872
2006,1956,1871
1996,1969,1975
1983,1955,1968
1985,1943,1859
2003,1958,1875
1999,1969,1973
1994,1968,1968
2005,1955,1867
1999,1959,1867
1993,1982,1973
1984,1971,1973
2003,1962,1872
2006,1968,1873
1985,1975,1968
1985,1974,1965
2007,1965,1881
2017,1963,1898
2000,1983,1984
1993,1973,1971
2002,1967,1865
2003,1968,1877
2000,1981,1982
1993,1973,1982
2011,1968,1887
2013,1974,1892
1999,1985,1984
1998,1971,1975
2000,1962,1875
2012,1968,1883
1995,1991,1984
1986,1970,1968
2005,1959,1872
2017,1973,1885
2000,1986,1982
1993,1977,1973
2013,1962,1876
2014,1965,1887
2001,1978,1983
1997,1979,1977
2005,1973,1872
2013,1972,1882
1997,1979,1974
1985,1968,1968
2011,1955,1870
2023,1972,1889
2000,1987,1981
1979,1971,1966
2002,1955,1872
2010,1965,1872
1997,1973,1967
1984,1966,1966
2003,1950,1869
2014,1961,1877
2002,1981,1983
1984,1969,1955
2001,1965,1862
2020,1972,1892
2010,1984,1993
1990,1981,1968
2000,1965,1863
2006,1963,1871
1995,1974,1972
2000,1968,1971
2014,1958,1878
2015,1959,1878
2000,1977,1978
1995,1977,1971
2016,1963,1879
2018,1967,1883
2000,1973,1975
2001,1977,1977
2030,1967,1879
2022,1969,1878
2001,1974,1968
1998,1971,1982
2015,1968,1898
2026,1974,1890
1993,1991,1971
1986,1979,1966
2017,1965,1885
2021,1966,1877
2002,1978,1946
1990,1975,1962
2017,1971,1856
2023,1973,1893
2005,1969,1969
1993,1963,2000
2014,1955,1856
2014,1963,1897
2001,1975,1968
1992,1968,1994
2013,1957,1845
2030,1966,1922
2021,1979,1963
2000,1968,1935
2010,1945,1830
2021,1951,1877
2020,1977,1951
2008,1967,1962
2014,1952,1856
2014,1950,1866
2005,1974,1949
2000,1971,1982
2022,1950,1871
2019,1952,1875
2000,1971,2002
1997,1968,1948
2010,1945,1891
2021,1951,1887
1994,1968,1971
1987,1964,1966
2014,1953,1873
2026,1961,1873
2000,1970,1968
1984,1962,1942
2004,1945,1872
2012,1954,1878
2000,1975,1968
1991,1973,1972
2003,1953,1871
2011,1964,1877
2003,1981,1968
1984,1968,1958
2000,1954,1883
2018,1968,1887
2005,1988,1967
1993,1978,1974
2003,1954,1872
2015,1963,1875
2013,1979,1977
1999,1973,1968
2009,1950,1877
2013,1959,1879
2007,1981,1982
2001,1984,1973
2007,1965,1891
2005,1967,1869
2001,1983,1994
1995,1975,1984
2007,1968,1913
2016,1972,1856
2009,1984,1933
1986,1967,1971
2014,1955,1871
2029,1965,1907
2001,1970,1969
1986,1969,1959
2004,1968,1853
2019,1962,1858
2004,1970,1979
1993,1968,2013
2000,1946,1879
2023,1950,1879
1997,1971,1979
1984,1968,1967
2006,1955,1870
2011,1953,1873
2001,1970,1982
1987,1961,1969
2012,1955,1877
2029,1962,1888
2006,1975,1979
1988,1965,1968
2015,1948,1872
2032,1962,1886
2004,1983,1981
1994,1971,1975
2002,1952,1869
2015,1967,1886
2007,1977,1969
1996,1970,1974
2007,1966,1869
2013,1968,1871
2002,1980,1966
1997,1973,1991
2011,1953,1857
2017,1966,1834
1994,1982,1957
1995,1977,1962
2009,1964,1882
2016,1968,1907
2000,1983,1977
1982,1967,1968
2000,1951,1866
2020,1961,1883
2000,1968,1982
1997,1973,1979
2014,1959,1872
2006,1962,1869
1985,1968,1968
1993,1971,1972
2003,1963,1893
2010,1968,1873
2004,1968,1997
1997,1968,1966
2000,1965,1868
2011,1969,1856
1999,1975,2007
1985,1969,1930
1998,1968,1894
2007,1975,1846
2003,1975,1969
1990,1966,1968
2003,1952,1839
2003,1960,1904
1987,1972,1999
1985,1966,1952
2003,1958,1850
2015,1966,1843
1991,1967,1970
1982,1968,1929
1992,1954,1900
2016,1954,1868
2006,1969,1973
1993,1963,1978
1991,1948,1885
2002,1962,1886
2000,1975,1968
2000,1968,1929
2010,1946,1867
2001,1949,1863
1997,1968,1968
1992,1968,1977
2010,1953,1863
2023,1968,1875
2000,1978,2021
1990,1973,1965
2000,1953,1872
2007,1968,1913
1991,1984,1967
1987,1980,1970
2018,1970,1894
2019,1962,1866
2002,1973,1918
1989,1968,1961
1998,1952,1845
2012,1959,1904
2007,1981,1972
2005,1978,1997
2006,1953,1871
2011,1953,1847
1989,1968,1945
1983,1969,1917
2009,1957,1771
2030,1971,1882
2013,1987,1975
1995,1971,1987
2002,1957,1847
2005,1955,1850
2016,1981,1968
2005,1974,1983
2020,1959,1873
2013,1959,1865
1999,1975,1961
1988,1969,1965
2000,1943,1855
2014,1957,1867
2003,1977,1971
1981,1966,1965
2004,1955,1865
2019,1964,1869
2001,1967,1967
1984,1966,1965
2005,1961,1873
2011,1983,1872
1994,1973,1967
1981,1957,1967
2001,1950,1869
2012,1963,1871
2003,1978,1965
1991,1965,1962
2010,1955,1873
2013,1966,1867
1996,1974,1965
1968,1969,1968
2006,1953,1865
2003,1954,1857
1987,1982,1963
1956,1975,1963
2043,1955,1861
2015,1966,1856
2011,1978,1967
1990,1971,1962
1951,1963,1857
2045,1966,1853
1999,1977,1962
1946,1971,1969
1999,1951,1859
2047,1962,1857
2009,1982,1954
1982,1971,1951
2033,1968,1863
2071,1975,1875
2026,1995,1974
1971,1990,1970
2007,1968,1861
2017,1972,1866
2000,1994,1968
2019,1985,1968
2011,1963,1869
2011,1966,1858
1998,1987,1968
1981,1990,1979
1983,1973,1881
2014,1968,1875
2005,1997,1968
1979,1985,1970
1991,1968,1865
2015,1970,1866
1951,1983,1966
2000,1979,1971
2002,1967,1875
2005,1968,1867
2006,1988,1972
1999,1982,1967
1999,1963,1854
2070,1971,1865
2031,1994,1975
1984,1981,1975
1983,1968,1858
2000,1967,1858
2005,1984,1968
2000,1983,1968
2005,1971,1863
2001,1978,1855
1981,1990,1963
1996,1984,1968
2042,1971,1869
2030,1973,1871
1971,1994,1967
2030,1994,1971
2011,1979,1872
2019,1984,1859
2003,1986,1959
1949,1987,1968
2026,1973,1872
2047,1982,1869
2053,1995,1958
1989,1984,1961
1978,1974,1881
2011,1979,1874
2011,1984,1961
1984,1984,1966
1974,1974,1867
2016,1983,1859
1959,1985,1963
1978,1989,1967
2009,1981,1863
1975,1977,1865
1987,1993,1964
1998,1984,1968
2005,1964,1863
2002,1965,1857
1999,1971,1965
1984,1979,1959
2007,1977,1872
2010,1968,1859
1996,1988,1959
1975,1977,1969
1999,1973,1874
2007,1978,1872
2007,1984,1961
1962,1981,1956
2000,1966,1872
2041,1971,1877
2015,1985,1969
1986,1981,1970
1999,1974,1871
2057,1969,1866
2007,1993,1955
1995,1987,1967
2014,1968,1869
2012,1981,1868
1994,2001,1963
1981,1987,1965
1986,1971,1863
2003,1981,1868
1989,1995,1963
1993,1984,1975
2005,1985,1870
2004,1984,1859
1988,1984,1958
2021,1980,1971
1980,1974,1873
2056,1970,1857
1984,1985,1945
1987,1973,1957
2021,1968,1865
1963,1975,1863
1991,1983,1950
1969,1978,1962
2063,1973,1872
2014,1972,1859
2001,1989,1965
1955,1984,1971
2036,1968,1872
1984,1968,1858
2033,1981,1958
2013,1978,1966
1975,1968,1861
2025,1975,1855
1979,1983,1952
1971,1978,1959
1999,1966,1861
1979,1965,1853
2004,1978,1941
1975,1982,1957
1989,1977,1868
2015,1983,1867
1997,1984,1954
1983,1968,1941
2000,1967,1862
2080,1971,1862
1997,1983,1954
1978,1970,1950
2000,1968,1861
1997,1968,1850
1981,1981,1937
1981,1973,1959
1915,1966,1866
2009,1968,1865
1995,1984,1957
1978,1984,1951
2000,1955,1849
2094,1968,1861
1987,1987,1961
1973,1978,1958
2002,1955,1862
2011,1967,1861
1986,1977,1959
2000,1970,1957
2070,1966,1868
1991,1975,1856
2021,1983,1963
1982,1969,1961
1984,1963,1857
1985,1967,1859
1989,1977,1957
1983,1968,1964
1995,1959,1863
2007,1973,1863
1990,1983,1954
1963,1962,1947
1978,1958,1847
2000,1968,1863
1987,1978,1954
1965,1967,1940
1982,1966,1849
2000,1970,1856
2000,1984,1959
1983,1971,1955
1987,1953,1857
2007,1978,1856
1981,1987,1946
1968,1969,1936
1984,1954,1844
1999,1966,1850
1984,1979,1946
1971,1981,1952
2004,1968,1868
2015,1975,1870
1998,1975,1961
1969,1967,1954
1991,1951,1858
2011,1967,1863
1987,1982,1954
1968,1968,1949
2000,1953,1861
2019,1968,1871
1995,1977,1958
1963,1951,1946
1981,1949,1847
2015,1971,1872
1999,1987,1972
1971,1975,1962
1989,1963,1872
1995,1973,1872
1984,1980,1962
1979,1967,1963
1995,1957,1857
2000,1963,1847
1977,1977,1939
1968,1970,1947
1995,1959,1863
2011,1968,1867
1979,1982,1957
1965,1970,1961
1984,1951,1868
2006,1966,1858
1991,1979,1951
1973,1971,1951
1995,1955,1857
1995,1959,1852
1979,1973,1939
1971,1968,1951
1993,1963,1865
2010,1974,1866
2000,1981,1959
1975,1967,1948
1981,1946,1846
1998,1956,1846
1989,1967,1953
1972,1963,1955
1985,1947,1861
2000,1966,1863
1981,1967,1952
1974,1963,1957
1999,1957,1869
2007,1965,1863
1989,1966,1949
1968,1954,1949
1986,1950,1863
2006,1966,1871
1989,1963,1956
1971,1955,1951
1987,1937,1860
1998,1958,1849
1982,1961,1938
1968,1968,1947
1997,1955,1865
2006,1960,1854
1986,1963,1953
1970,1959,1951
1984,1948,1855
2000,1958,1857
1989,1968,1955
1973,1965,1953
1998,1959,1859
2012,1963,1858
1983,1967,1951
1961,1956,1949
1984,1948,1866
2000,1966,1856
1984,1977,1942
1968,1959,1955
1996,1950,1863
2000,1958,1851
1971,1965,1951
1963,1969,1955
1984,1959,1869
1999,1963,1854
1969,1968,1951
1962,1957,1962
1979,1949,1866
1990,1955,1858
1978,1968,1953
1959,1952,1950
1982,1958,1869
2000,1968,1867
1977,1968,1949
1965,1968,1955
1984,1957,1868
1995,1965,1858
1984,1967,1951
1959,1965,1952
1979,1947,1859
2000,1950,1866
1985,1954,1954
1967,1949,1954
1975,1937,1859
1987,1946,1860
1978,1968,1955
1974,1966,1963
1995,1947,1872
2006,1962,1872
1981,1973,1962
1958,1955,1951
1977,1943,1864
1993,1947,1857
1985,1967,1966
1969,1955,1955
1973,1947,1855
1998,1959,1864
1987,1974,1969
1975,1963,1967
1993,1954,1871
2001,1959,1855
1987,1965,1959
1984,1953,1968
1991,1940,1865
2000,1951,1859
1987,1968,1957
1967,1963,1952
1985,1958,1860
1999,1971,1859
1999,1977,1968
1984,1966,1973
2000,1980,1873
2013,1987,1869
1986,1969,1952
1969,1915,1959
1983,1908,1869
1999,1975,1863
1982,1986,1953
1971,1904,1962
1993,1936,1871
2000,2000,1858
1984,1969,1947
1973,1958,1965
1999,1948,1878
2003,1975,1860
1994,1985,1953
1981,1968,1961
1987,1944,1866
1996,2008,1847
1983,1985,1938
1980,1999,1957
1993,1943,1873
2004,1946,1855
1989,1959,1947
1969,1962,1950
1975,1943,1851
1996,1991,1850
1994,1977,1967
1986,1982,1968
1986,1970,1872
1996,1919,1863
1973,1961,1936
1954,1970,1949
1973,1923,1867
1994,1969,1865
1971,1972,1958
1968,1954,1962
1968,1949,1853
1995,1966,1857
1987,1968,1955
1969,1969,1960
1986,1966,1870
2001,1970,1865
1989,1958,1948
1952,1967,1943
1968,1953,1851
1999,1962,1863
1980,1959,1949
1969,1967,1965
1974,1950,1872
1984,1952,1855
1978,1937,1958
1968,1947,1967
1980,1934,1863
1984,1920,1856
1979,1990,1952
1964,1931,1968
1983,1986,1879
2000,1950,1867
1989,2023,1962
1968,1994,1968
1969,1903,1868
1978,1957,1850
1978,1936,1962
1979,1998,1973
1983,1942,1874
2000,1947,1869
1978,1982,1953
1958,1963,1951
1977,1919,1863
1990,1934,1858
1977,1974,1958
1968,1959,1977
1982,1950,1882
1993,1955,1865
1976,1974,1951
1965,1961,1971
1973,1950,1871
1983,1944,1845
1968,1954,1941
1953,1968,1970
1966,1952,1871
1984,1958,1868
1973,1966,1954
1962,1964,1967
1975,1957,1872
1995,1959,1853
1987,1966,1945
1971,1966,1968
1984,1953,1872
1984,1868,1851
1973,2005,1948
1959,1936,1965
1974,1938,1869
1999,1946,1857
1979,1975,1955
1965,1952,1968
1977,1936,1866
1991,2018,1856
1979,1971,1952
1958,1958,1974
1968,1941,1863
2000,1939,1854
1976,1951,1951
1968,1947,1970
1986,1940,1874
1985,1936,1849
1971,1955,1946
1968,1950,1967
1988,1943,1875
1997,1946,1853
1971,1953,1937
1959,1949,1959
1979,1925,1875
1989,1932,1856
1971,1918,1937
1954,1968,1955
1983,2005,1859
1984,1951,1841
1969,1975,1936
1965,1975,1963
1980,1965,1871
1994,1915,1849
1977,2032,1938
1970,1971,1957
1982,1958,1868
1990,1982,1852
1967,1986,1939
1958,1937,1958
1973,1966,1862
1982,1968,1845
1984,1935,1951
1967,1942,1968
1984,1935,1876
1984,1946,1851
1968,1914,1940
1955,1958,1961
1982,1936,1867
1984,1936,1843
1968,1936,1933
1945,1949,1953
1967,1967,1861
1981,1936,1842
1969,1974,1936
1955,2001,1966
1971,1940,1874
1977,1941,1843
1965,1868,1938
1949,2014,1954
1959,1940,1856
1979,1936,1840
1969,1968,1931
1950,2016,1959
1966,1947,1857
1966,1937,1833
1946,1943,1919
1938,1938,1945
1961,1922,1855
1968,1953,1947
1942,1952,1949
1950,2001,1846
1958,1966,1827
1951,1937,1923
1936,1935,1945
1951,1912,1851
1961,1929,1835
1945,1940,1925
1937,1940,1938
1957,1930,1847
1973,1926,1840
1968,1952,1943
1941,1951,1952
1939,1931,1851
1961,1929,1837
1943,1946,1918
1932,1936,1938
1943,1917,1841
1966,1933,1835
1955,1948,1923
1939,1947,1946
1947,1934,1845
1959,1930,1821
1936,1935,1917
1938,1936,1951
1951,1920,1843
1954,1920,1821
1939,1932,1909
1938,1930,1939
1935,1909,1838
1946,1914,1808
1936,1933,1914
1936,1934,1943
1937,1915,1839
1945,1921,1808
1923,1932,1904
1907,1922,1926
1917,1909,1840
1934,1911,1809
1924,1927,1905
1911,1927,1926
1932,1910,1831
1935,1915,1803
1927,1932,1905
1911,1927,1930
1922,1909,1833
1923,1904,1803
1907,1914,1890
1887,1918,1907
1919,1904,1823
1924,1899,1805
1904,1904,1889
1893,1904,1913
1904,1890,1816
1905,1893,1792
1906,1905,1891
1889,1904,1917
1904,1891,1820
1910,1889,1782
1901,1910,1873
1889,1904,1902
1886,1878,1799
1898,1884,1778
1890,1895,1872
1884,1902,1904
1898,1885,1809
1901,1887,1783
1881,1906,1873
1872,1901,1895
1888,1883,1795
1907,1879,1789
1894,1897,1879
1870,1900,1901
1882,1875,1794
1901,1875,1772
1888,1900,1869
1885,1903,1907
1899,1893,1818
1904,1889,1780
1889,1903,1871
1879,1904,1899
1891,1892,1807
1895,1883,1776
1893,1904,1878
1890,1901,1905
1904,1890,1814
1911,1890,1787
1903,1904,1886
1879,1904,1911
1899,1904,1821
1925,1908,1798
1907,1930,1894
1904,1925,1924
1911,1904,1822
1926,1911,1807
1915,1935,1905
1903,1927,1930
1919,1919,1835
1927,1922,1815
1931,1936,1915
1913,1937,1939
1923,1918,1839
1929,1923,1808
1919,1943,1904
1934,1947,1949
1954,1926,1867
1959,1924,1835
1936,1942,1919
1925,1939,1945
1936,1936,1856
1953,1939,1840
1936,1951,1925
1923,1965,1962
1942,1949,1871
1953,1954,1843
1939,1963,1935
1927,1968,1968
1950,1947,1875
1967,1959,1850
1961,1974,1942
1942,1969,1968
1957,1959,1885
1978,1967,1863
1965,1971,1952
1961,1978,1984
1970,1970,1893
1979,1969,1869
1958,1987,1962
1965,1986,1979
1979,1975,1903
1989,1986,1879
1970,1995,1964
1973,1990,1988
1986,1981,1898
1987,1976,1869
1987,1995,1963
1973,1999,1988
1983,1979,1898
1995,1985,1868
1990,1999,1967
1973,2000,1997
1982,1987,1901
2000,1995,1875
1987,2006,1971
1987,2001,2000
2000,1987,1911
2011,1987,1889
2000,1999,1968
1981,1997,1990
1996,1997,1905
2005,1988,1877
2006,1999,1982
1993,2003,2017
1990,1994,1911
2006,1990,1882
2014,2004,1977
2000,2002,2006
2021,1997,1920
2031,1997,1890
2003,2010,1997
1995,2009,2032
2015,2005,1931
2015,2007,1858
2007,2015,1974
2011,2016,2026
2020,2014,1958
2023,1997,1877
2010,2016,2003
1998,2021,2009
2017,2000,1919
2022,2000,1869
2010,2012,1963
2000,2021,2047
2015,2013,1936
2034,2013,1878
2015,2022,1989
2007,2022,2028
2017,2003,1917
2032,2007,1899
2019,2026,2010
2015,2024,2016
2012,2011,1908
2032,2011,1840
2019,2028,1968
2007,2029,1988
2030,2016,1934
2034,2019,1902
2029,2033,2004
2015,2023,2026
2029,2018,1936
2035,2014,1899
2027,2026,1994
2016,2032,2002
2026,2017,1929
2032,2009,1881
2027,2021,1983
2015,2027,2029
2031,2019,1931
2035,2021,1894
2032,2037,1990
2029,2033,2027
2033,2021,1943
2043,2015,1877
2033,2028,1957
2032,2032,2021
2037,2017,1943
2047,2010,1887
2029,2026,1971
2017,2020,2039
2035,2003,1919
2043,1999,1898
2034,2025,2001
2034,2032,2064
2047,2011,1955
2039,2011,1920
2022,2026,1986
2018,2010,2003
2035,2003,1909
2070,2021,1923
2037,2025,1979
2028,2032,2047
2035,2014,1918
2035,2001,1883
2015,2009,1995
2017,2016,2010
2032,2014,1929
2039,2010,1891
2030,2023,2006
2009,2016,2004
2032,2009,1898
2055,2007,1924
2032,2020,1955
2021,2016,1987
2032,2000,1938
2039,2001,1878
2018,2007,1954
2013,2013,2000
2046,2002,1915
2059,2000,1898
2032,2003,1973
2005,2020,1998
2028,2000,1913
2046,2002,1858
2037,2015,1952
2027,2011,1983
2032,1997,1918
2039,1995,1869
2027,2000,1954
2011,2003,2006
2031,1989,1841
2042,1995,1879
2036,2000,1983
2021,2015,2096
2032,2003,1907
2044,2000,1879
2028,2012,1966
2019,2010,1979
2032,2005,1907
2034,2003,1871
2031,2010,1962
2016,2005,1996
2033,2000,1919
2044,1990,1858
2033,2010,1967
2027,2015,2016
2031,1997,1971
2042,1995,1858
2026,2002,1945
2015,2007,2042
2023,1984,1934
2034,1993,1872
2030,2001,1974
2019,2006,2078
2032,1987,1894
2039,1988,1853
2032,1999,1925
2025,2007,2044
2032,1995,1917
2054,1988,1894
2029,2000,1996
2011,2011,1982
2023,1989,1937
2032,1982,1863
2027,1997,1961
2033,2000,1983
2044,1984,1914
2053,1985,1885
2039,2007,2003
2029,2000,1997
2032,1986,1903
2053,1974,1872
2037,1991,1970
2012,1993,2005
2033,1989,1917
2034,1981,1881
2020,1989,2003
2025,1987,2012
2046,1983,1910
2061,1977,1877
2034,1991,1954
2017,1995,1991
2029,1982,1895
2046,1985,1856
2025,1990,1968
2026,1990,1983
2035,1977,1985
2035,1981,1859
2032,1990,1998
2029,1990,1956
2045,1974,1915
2047,1968,1849
2032,1988,1965
2020,1984,1985
2030,1980,1910
2047,1983,1853
2028,1984,1959
2000,1981,1982
2033,1973,1922
2059,1973,1892
2037,1994,1965
2016,1993,1995
2018,1965,1900
2031,1972,1865
2022,1989,1962
2011,1982,2000
2019,1978,1905
2032,1981,1872
2030,1995,1965
2014,1994,1997
2021,1979,1899
2037,1968,1865
2035,1984,1953
2026,1984,1999
2033,1969,1903
2027,1971,1856
2004,1985,1941
2014,1985,2000
2032,1970,1909
2037,1967,1865
2020,1979,1942
2017,1992,1996
2026,1974,1903
2032,1968,1858
2032,1977,1949
2023,1984,1999
2030,1968,1902
2029,1959,1857
2025,1983,1952
2018,1984,2000
2032,1973,1914
2011,1971,1866
2025,1983,1946
2029,1981,1991
2031,1965,1904
2062,1963,1870
1979,1968,1951
2059,1982,2000
2083,1977,1917
2072,1967,1863
2000,1985,1952
1969,1979,1997
2021,1968,1902
2003,1967,1859
2032,1975,1942
2000,1970,1994
2021,1974,1913
1997,1959,1862
2016,1973,1951
2014,1970,1997
2022,1968,1899
2036,1967,1861
2019,1968,1941
2034,1981,1985
2032,1968,1901
2096,1966,1867
2010,1971,1943
2010,1975,1983
2024,1963,1899
2035,1958,1867
2020,1979,1937
1969,1978,1986
2017,1962,1904
2030,1968,1858
2009,1978,1936
2001,1979,1984
2022,1968,1903
2039,1968,1865
2026,1971,1948
2013,1970,1983
2034,1965,1891
2013,1970,1855
2036,1985,1948
2018,1983,1988
2015,1963,1894
2031,1955,1862
2021,1971,1947
2004,1973,1984
2009,1964,1893
2065,1967,1854
2041,1972,1939
1977,1968,1983
1995,1961,1894
2043,1958,1847
2000,1974,1940
2059,1987,1984
1989,1973,1889
2070,1967,1853
2015,1982,1938
2017,1979,1968
2012,1968,1886
2069,1968,1843
2007,1971,1935
1982,1987,1982
2017,1975,1904
2045,1968,1857
2014,1971,1935
1968,1973,1973
2034,1963,1885
2062,1962,1846
2002,1979,1936
2032,1985,1981
2029,1971,1890
2026,1967,1840
2007,1975,1923
1985,1981,1971
2009,1967,1891
2028,1968,1855
2023,1974,1934
1999,1975,1974
2009,1967,1887
2022,1968,1859
2026,1991,1950
1984,1983,1975
1919,1965,1888
2004,1961,1849
1952,1973,1936
2010,1982,1990
2015,1968,1894
2029,1961,1842
2032,1973,1934
2017,1983,1985
1968,1966,1895
2079,1961,1846
2014,1972,1929
2013,1983,1984
2002,1969,1895
2025,1961,1850
2001,1970,1932
1991,1966,1968
2001,1963,1891
2028,1965,1866
2021,1968,1942
2004,1968,1983
1985,1955,1887
2000,1957,1847
2016,1969,1930
2004,1973,1971
2000,1958,1885
2020,1955,1853
2033,1968,1936
2023,1977,1987
1986,1958,1904
1988,1963,1857
1921,1967,1929
1996,1968,1984
1988,1961,1906
2003,1955,1856
2066,1965,1936
1966,1971,1983
2000,1968,1897
2030,1965,1856
2035,1968,1935
1990,1967,1983
2013,1962,1894
2027,1961,1857
2006,1968,1935
2000,1969,1985
2058,1958,1903
2031,1958,1858
2014,1962,1936
2016,1969,1983
2047,1956,1889
1997,1943,1850
1975,1955,1932
1995,1971,1991
2006,1956,1891
2027,1951,1846
2005,1962,1934
2000,1962,1984
2027,1950,1891
2011,1949,1846
2036,1961,1933
1999,1968,1986
2016,1958,1908
2027,1954,1857
2011,1969,1929
2005,1971,1978
1963,1965,1901
2054,1954,1854
2011,1975,1936
1943,1968,1977
1984,1957,1882
2017,1968,1853
2032,1978,1941
1947,1984,1986
1936,1968,1897
2032,1963,1839
1978,1974,1928
2000,1983,1985
2015,1967,1894
2015,1968,1845
2005,1971,1925
2000,1979,1970
2000,1962,1881
2016,1956,1841
2017,1970,1935
2001,1982,1981
2007,1970,1893
2015,1962,1847
2001,1977,1919
1990,1978,1974
1998,1966,1889
2002,1958,1841
1993,1972,1927
1994,1971,1981
1996,1968,1897
2003,1962,1845
1995,1968,1915
1983,1968,1970
2000,1963,1903
2020,1963,1855
1991,1959,1919
1978,1967,1967
1994,1968,1891
2018,1967,1856
2000,1975,1927
1983,1979,1974
2000,1968,1890
1998,1951,1837
1989,1968,1919
1979,1970,1974
1984,1965,1889
2001,1964,1844
1987,1975,1921
1979,1968,1969
1983,1965,1891
2017,1959,1846
2010,1978,1932
1985,1983,1981
1989,1967,1883
1995,1957,1839
1990,1970,1925
1987,1978,1975
2001,1968,1889
2011,1965,1840
1994,1973,1921
1979,1975,1968
1994,1968,1876
2011,1967,1840
