2101,2022,1969
2026,1974,1947
1991,1936,1887
1987,1897,1887
2019,2032,1959
2030,2017,1952
2000,1910,1898
1996,1968,1889
2026,1980,1959
2045,1985,1976
2000,1943,1894
1999,1943,1881
2017,2019,1938
2023,2000,1953
2005,1954,1899
1987,1936,1872
2008,1968,1934
2023,1975,1965
2017,1983,1910
2006,1968,1894
2010,1952,1936
2027,1979,1958
2001,1951,1905
1997,1930,1872
2032,1949,1943
2034,1998,1962
2015,1978,1921
2003,1965,1901
2029,1997,1951
2027,1982,1963
1984,1923,1883
2009,1969,1902
2011,1984,1937
2006,1966,1943
2006,1922,1893
2006,1953,1891
2023,1975,1957
2026,1979,1968
1999,1950,1901
1981,1946,1873
2013,1962,1947
2026,1953,1962
2000,1927,1890
1989,1968,1875
2009,1963,1936
2016,1936,1959
2003,1949,1909
2002,1956,1889
2022,1980,1936
2023,1984,1958
2009,1957,1909
2016,1975,1903
2035,1994,1964
2011,1967,1953
1988,1942,1889
1999,1951,1888
2030,2000,1963
2034,1984,1974
2002,1955,1904
2007,1982,1904
2019,1969,1948
2015,1953,1951
2005,1952,1898
2000,1968,1904
2025,2011,1968
2026,1994,1969
2020,1938,1919
2000,1954,1887
2000,1984,1931
2014,2026,1968
1994,1957,1895
1978,1936,1872
2014,1983,1938
2017,1995,1966
1985,1953,1885
1997,1957,1887
2020,2001,1943
2017,1984,1948
1996,1943,1883
1985,1953,1871
2007,1989,1927
2013,1989,1953
1999,1969,1904
1997,1968,1886
2018,2000,1949
2019,1987,1956
2000,1967,1902
2001,1983,1889
2017,1979,1934
2027,1965,1950
2007,1952,1899
1999,1977,1889
2013,1987,1945
2025,1983,1964
2011,1968,1909
1999,1974,1893
2012,2010,1945
2028,1991,1969
2010,1958,1902
1996,1966,1883
2019,2010,1937
2031,2015,1961
2002,1975,1910
2000,1979,1902
2014,2000,1949
2025,2001,1964
2000,1969,1906
2000,1975,1898
2017,2007,1955
2025,2013,1966
2004,1990,1906
2000,1987,1891
2018,2018,1957
2029,2007,1978
2007,1967,1903
1997,1965,1895
2004,2013,1953
2003,2009,1969
1999,1982,1914
2001,1993,1902
2021,2031,1958
2021,2001,1973
1997,1967,1905
1997,1969,1894
2010,2015,1962
2021,2032,1977
1997,1984,1899
1991,1974,1886
2018,2002,1948
2023,2004,1968
2011,1981,1907
2000,1984,1893
2021,2013,1947
2027,2006,1971
2000,1984,1905
1997,1993,1885
2011,2000,1943
2029,1998,1961
2001,1975,1897
1989,1999,1885
2006,1998,1941
2013,1982,1954
1999,1965,1891
1996,1974,1872
2019,2000,1938
2021,1994,1958
2000,1968,1904
1986,1975,1882
2000,2001,1931
2001,1993,1946
1985,1962,1894
1968,1961,1871
1988,1993,1929
2003,1999,1955
1982,1966,1885
1971,1968,1862
1991,2003,1933
2011,2002,1958
1984,1981,1882
1968,1971,1872
1994,2010,1923
2011,2013,1965
1999,1995,1934
1986,1973,1905
2000,2005,1983
2012,2007,1949
1994,1986,1913
1987,1995,1904
2015,2015,1911
2019,2015,1980
1999,1999,1895
1999,2010,1861
2011,2043,1950
2010,2023,1958
2001,1971,1859
2001,1984,1903
2022,2023,1941
2027,2022,1968
2010,2000,1905
2004,1999,1922
2031,2033,1936
2037,2023,1968
2016,1993,1889
2005,2037,1873
2037,2029,1952
2043,2025,1967
1995,1967,1878
1969,1963,1856
2017,2018,1941
2031,2018,1958
1994,1978,1883
1982,1996,1858
2015,2032,1907
2022,2022,1930
2006,2014,1902
2020,2054,1903
2007,2033,1919
2001,2005,1936
1989,1983,1882
1990,1982,1881
2015,2018,1934
2016,2007,1936
1999,1986,1890
1989,2011,1867
2007,2031,1915
2009,2011,1955
1996,1984,1889
1983,2003,1879
1999,2041,1938
2014,2034,1953
2000,2007,1904
1987,2003,1909
1987,2015,1947
2005,2019,1946
1999,1989,1904
2007,2011,1897
2033,2032,1949
2018,1998,1929
1982,1973,1931
1989,1998,1901
2023,2043,1923
2032,2032,2011
2013,2017,1917
2018,2022,1886
2032,2043,1943
2022,2017,1999
2003,1986,1903
2011,2015,1885
2033,2070,1968
2037,2037,2033
2023,1984,1931
2010,1993,1872
2032,2018,1965
2037,2029,1981
2019,1988,1882
2016,1989,1888
2032,2032,1954
2033,2035,1989
2017,1990,1919
2013,1991,1901
2043,2032,1971
2061,2045,2003
2001,1977,1905
1994,1992,1887
2027,2003,1951
2032,2017,1970
2015,1986,1913
2015,2005,1902
2038,2059,1963
2045,2035,1969
2010,1985,1886
2019,2000,1892
2022,2014,1921
2034,2021,1975
2014,1997,1959
2015,2006,1904
2033,2063,1942
2032,2067,2003
2017,2007,1934
2000,1994,1929
2011,2019,1949
2030,2031,1979
2011,2000,1911
2000,2000,1895
2015,2020,1943
2028,2066,1983
2006,2016,1904
1985,1993,1885
2001,2003,1913
2031,2014,1977
2009,1982,1907
1983,1981,1927
2001,2020,1905
2022,2030,1938
2006,2000,1916
1997,2018,1875
2018,2032,1955
2026,2020,1957
2021,2011,1942
1996,2006,1909
2014,2032,1920
2027,2000,1984
2005,1989,1877
2001,2009,1942
2018,2038,1986
2039,2060,1973
2003,2012,1887
1991,1975,1935
2009,2019,1917
2027,2019,2019
2021,1986,1968
2006,1993,1919
2000,2026,1939
2011,2032,1941
2014,2003,1898
2003,1998,1915
2022,2032,1961
2023,2021,1968
2013,1986,1977
1999,1999,1906
2018,2032,1959
2034,2025,1949
2011,2031,1916
1993,2010,1929
2016,2022,1953
2032,2028,2021
2015,1993,1931
2000,1999,1894
2015,2032,1943
2032,2022,1987
2011,1985,1901
1999,1994,1909
2014,2026,2007
2021,2023,1977
2005,1995,1918
2005,2017,1898
2021,2032,1953
2017,2025,1989
2001,2002,1955
2000,1987,1920
2020,2013,1965
2032,2022,1984
2010,1995,1910
2005,2007,1903
2023,2043,1968
2042,2029,1985
2017,1999,1924
1997,1984,1895
2013,2016,1951
2032,2053,1971
2012,2000,1907
1998,2007,1906
2015,2021,1978
2030,2009,1981
2004,1989,1917
2001,1995,1890
2021,2022,1954
2037,2032,1980
2027,2014,1923
2011,1984,1889
2018,2008,1947
2027,2017,1970
2012,1997,1904
2005,2002,1894
2025,2054,1954
2027,2011,1962
2002,1968,1913
2020,2009,1907
2035,2047,1962
2000,2003,1941
1983,1974,1885
1987,1984,1891
2015,2011,1953
2029,2009,1971
2005,1987,1907
2018,1988,1895
2062,2043,1954
2066,2012,1968
2020,1968,1909
1972,1973,1899
2017,2017,1946
2027,2032,1967
1990,1990,1917
2039,1989,1899
1993,2000,1943
2037,2003,1965
2046,1994,1911
2035,2032,1911
1975,2002,1942
1999,1979,1944
2003,1946,1888
2022,1968,1883
2036,2011,1954
2041,2018,1981
2017,1984,1902
2002,1975,1867
2031,2010,1945
2039,2029,1974
2019,1974,1918
2000,2002,1895
2023,2038,1952
2075,2013,1972
2010,1968,1901
2002,1968,1885
2030,2005,1956
2019,2012,1978
2023,1999,1919
2020,2001,1901
1990,1983,1923
2041,1983,1943
2022,1979,1910
2006,2001,1903
2037,2027,1962
2022,2001,1963
2001,1985,1904
1967,1997,1891
2013,2003,1957
1979,2011,1967
2005,2000,1904
2000,1983,1881
2019,1999,1945
2033,1997,1979
2003,1973,1919
1998,1970,1882
1985,2022,1936
2055,2006,1963
2015,1970,1901
1984,1973,1881
2064,2026,1952
2057,2003,1953
2001,1982,1915
1937,1968,1882
2033,1996,1941
2058,2005,1967
2028,1987,1917
2014,2000,1895
1996,2029,1937
2005,2011,1952
2007,1959,1891
1965,1961,1868
2029,2000,1930
2037,2011,1958
2026,1982,1906
1975,2000,1879
2031,2020,1936
1987,2009,1964
2021,1980,1904
1968,1994,1875
2032,2032,1937
2035,2032,1961
2023,2002,1917
1993,1981,1871
2001,2018,1923
2012,2007,1947
2001,1970,1898
1998,1974,1890
2027,2021,1958
2028,2019,1965
2032,1983,1920
1985,1977,1882
1964,1994,1932
2006,1995,1943
1952,1990,1899
2116,1985,1887
1990,2014,1943
2078,1990,1968
2001,1971,1904
2085,1998,1872
1973,2032,1946
2076,2004,1968
2034,1967,1901
2039,1970,1873
2021,2017,1947
2038,2031,1981
2016,1987,1914
1985,1985,1877
2000,1999,1925
2011,1998,1959
2000,1985,1909
2000,1999,1898
2022,2023,1957
2018,2001,1962
2002,1965,1887
2013,1985,1875
2071,2030,1936
2034,2014,1963
1970,1989,1905
1998,1999,1895
1999,2006,1959
2027,1997,1970
2002,1969,1900
2000,1974,1895
2063,2022,1968
2002,2022,1981
2007,1974,1905
2000,1986,1883
1984,2010,1935
2032,2000,1970
1978,1965,1914
1959,1978,1891
2015,2011,1952
2034,2029,1980
2005,1999,1905
1981,1968,1886
1929,1979,1946
2025,2032,1968
2026,2006,1920
1995,1991,1894
2062,2035,1963
2018,2018,1979
2018,1984,1911
2012,1989,1893
2011,2026,1957
2001,2000,1967
1997,1985,1911
1986,1997,1884
2071,2021,1950
2012,2017,1971
1963,1983,1921
2036,1987,1907
2065,2021,1963
2035,2023,1975
2011,1997,1906
2027,1998,1901
2013,2033,1959
1993,2006,1984
1974,1975,1920
1983,1982,1901
1982,2026,1964
2061,2023,1983
2066,2000,1917
2047,1978,1893
2020,2001,1954
2018,2007,1969
2023,1984,1904
2015,1985,1893
2019,2026,1962
2033,1998,1975
2005,1967,1907
1997,1969,1891
2012,2010,1950
2029,2001,1967
2003,1997,1919
1998,1981,1886
2015,2000,1950
2021,2018,1966
2000,1979,1904
2000,1968,1895
2006,1999,1958
2025,2006,1984
2009,1981,1931
2002,1982,1905
2015,2011,1961
2018,2002,1968
1990,1968,1881
2000,1986,1902
2033,2027,1983
2047,2025,1995
2006,1985,1905
1983,1984,1872
2001,2015,1942
2039,2005,1999
2020,1969,1931
1998,1968,1899
2000,1989,1946
2021,1991,1971
2022,1969,1930
2002,1970,1887
2001,1991,1923
2011,1990,1967
2007,1963,1935
1998,1952,1879
1991,1977,1920
2013,1981,1969
2025,1963,1939
2000,1950,1894
2006,1974,1936
2031,1979,1989
2016,1949,1936
1999,1946,1901
2007,1970,1946
2011,1953,1963
1990,1927,1905
1994,1934,1889
1999,1954,1951
1987,1938,1942
1978,1903,1877
2006,1923,1893
2032,1955,1967
2026,1952,1981
1974,1910,1891
1959,1904,1849
2007,1941,1944
2032,1949,1984
1997,1914,1903
1981,1900,1860
2002,1931,1921
2011,1938,1984
1994,1914,1909
1978,1888,1851
1981,1920,1917
1993,1936,1973
1989,1915,1920
1984,1915,1875
1998,1935,1931
1990,1933,1967
1963,1907,1893
1963,1907,1858
1999,1931,1936
1998,1927,1980
1969,1904,1910
1968,1897,1859
1999,1922,1923
2006,1936,1969
1989,1923,1929
1981,1893,1863
1988,1927,1921
1997,1931,1967
1957,1883,1903
1962,1890,1853
1975,1920,1903
1984,1919,1962
1938,1873,1873
1931,1872,1816
2015,1921,1939
2033,1948,2029
1999,1904,1942
1984,1906,1856
1991,1921,1898
1983,1904,1963
1968,1886,1904
1973,1894,1858
1994,1932,1935
1991,1923,1963
1957,1904,1886
1991,1942,1886
2006,1923,1946
1989,1898,1965
1952,1858,1870
1980,1894,1847
2009,1933,1943
2003,1943,1991
1978,1907,1904
1965,1900,1863
1985,1927,1926
1995,1935,1973
1989,1915,1907
1979,1918,1871
1984,1930,1911
1976,1918,1926
1945,1877,1878
1968,1899,1865
1989,1926,1931
1996,1934,1984
1978,1902,1903
1968,1898,1855
1981,1922,1916
1975,1934,1963
1955,1888,1892
1955,1885,1837
1955,1907,1883
1970,1920,1969
1967,1897,1909
1967,1894,1840
1980,1917,1889
1952,1920,1928
1908,1875,1855
1936,1887,1823
1991,1920,1917
1984,1917,1973
1950,1890,1897
1975,1917,1847
1947,1893,1852
1918,1872,1895
1905,1846,1856
1927,1870,1807
1966,1899,1872
1968,1910,1952
1911,1854,1862
1926,1840,1776
1937,1853,1815
1899,1867,1888
1871,1840,1813
1905,1860,1777
1927,1866,1827
1910,1877,1890
1895,1843,1837
1904,1826,1757
1904,1870,1806
1899,1873,1874
1851,1858,1823
1906,1827,1772
1921,1846,1806
1901,1872,1853
1858,1874,1787
1862,1804,1746
1890,1841,1815
1879,1871,1872
1838,1814,1779
1859,1856,1731
1879,1835,1801
1857,1807,1857
1827,1786,1783
1840,1785,1712
1866,1831,1776
1857,1827,1855
1839,1805,1799
1819,1842,1703
1821,1795,1733
1830,1808,1835
1813,1783,1775
1811,1765,1685
1831,1791,1751
1810,1802,1829
1781,1781,1749
1787,1771,1687
1802,1775,1744
1787,1773,1795
1755,1696,1731
1764,1707,1675
1785,1759,1728
1775,1767,1775
1758,1710,1716
1755,1693,1675
1770,1762,1728
1771,1741,1760
1751,1712,1701
1746,1710,1660
1755,1734,1721
1744,1733,1753
1719,1691,1673
1715,1665,1634
1731,1679,1705
1734,1712,1744
1712,1670,1671
1712,1653,1635
1721,1682,1685
1725,1702,1716
1702,1671,1666
1751,1872,1675
1793,1965,1658
1684,1596,1705
1666,1613,1677
1680,1617,1643
1686,1628,1697
1711,1662,1754
1702,1594,1729
1675,1600,1648
1680,1872,1616
1685,1617,1701
1670,1454,1691
1731,1586,1662
1699,1766,1648
1645,1609,1687
1646,1506,1681
1655,1535,1623
1682,1616,1680
1721,1653,1710
1782,1631,1594
1786,1664,1585
1627,1687,1642
1623,1661,1715
1663,1647,1678
1681,1615,1619
1714,1638,1686
1712,1664,1696
1678,1632,1601
1679,1648,1582
1708,1662,1646
1712,1662,1664
1685,1626,1600
1678,1622,1573
1691,1649,1622
1690,1648,1634
1669,1639,1575
1666,1614,1552
1707,1676,1627
1710,1643,1639
1638,1589,1533
1616,1535,1498
1637,1601,1570
1677,1595,1630
1649,1653,1558
1616,1585,1513
1613,1533,1535
1627,1519,1585
1628,1569,1535
1621,1641,1520
1638,1622,1584
1617,1553,1588
1599,1523,1521
1622,1606,1535
1649,1806,1621
1600,1616,1573
1552,1411,1479
1571,1525,1504
1587,1564,1570
1591,1559,1574
1575,1572,1520
1571,1600,1523
1561,1595,1571
1535,1588,1562
1533,1571,1515
1529,1616,1498
1558,1618,1569
1569,1533,1584
1535,1558,1519
1523,1574,1488
1570,1601,1600
1601,1703,1633
1491,1525,1458
1472,1521,1442
1488,1591,1521
1554,1666,1621
1562,1586,1527
1466,1522,1456
1467,1509,1530
1487,1531,1582
1486,1514,1523
1483,1563,1496
1515,1614,1573
1501,1598,1574
1478,1558,1506
1471,1588,1489
1471,1665,1531
1486,1564,1552
1473,1575,1502
1474,1582,1488
1498,1604,1553
1497,1605,1584
1478,1582,1519
1464,1584,1498
1481,1603,1561
1481,1616,1572
1466,1598,1511
1458,1600,1494
1474,1637,1562
1495,1679,1597
1424,1514,1462
1404,1527,1435
1439,1618,1519
1463,1597,1562
1456,1583,1506
1435,1591,1482
1456,1639,1554
1443,1535,1535
1481,1616,1535
1424,1530,1470
1393,1591,1483
1422,1584,1523
1409,1622,1485
1397,1535,1456
1409,1603,1509
1424,1605,1535
1398,1590,1485
1371,1576,1436
1394,1602,1494
1438,1644,1561
1387,1535,1463
1345,1552,1419
1365,1598,1483
1386,1600,1511
1366,1559,1457
1359,1577,1443
1376,1616,1499
1387,1616,1524
1365,1588,1471
1359,1586,1439
1369,1614,1498
1373,1611,1518
1366,1585,1478
1347,1598,1449
1360,1616,1502
1362,1616,1533
1360,1586,1488
1329,1575,1442
1343,1598,1492
1362,1602,1535
1360,1599,1495
1348,1616,1479
1324,1598,1500
1312,1567,1505
1307,1535,1455
1318,1597,1455
1334,1589,1503
1329,1589,1525
1318,1573,1486
1322,1579,1463
1321,1598,1499
1324,1600,1532
1311,1568,1486
1303,1535,1454
1319,1589,1509
1338,1607,1535
1317,1583,1490
1311,1585,1471
1328,1616,1525
1344,1621,1562
1328,1600,1507
1316,1600,1485
1337,1651,1562
1322,1623,1552
1286,1573,1470
1296,1583,1469
1328,1627,1555
1347,1648,1584
1331,1616,1519
1322,1600,1503
1330,1615,1554
1329,1611,1571
1327,1588,1511
1317,1603,1495
1339,1641,1563
1349,1643,1593
1328,1600,1525
1306,1611,1497
1338,1634,1574
1350,1619,1598
1331,1607,1525
1330,1612,1520
1337,1647,1570
1361,1645,1600
1359,1627,1553
1328,1614,1520
1343,1642,1581
1339,1641,1597
1338,1610,1535
1335,1617,1527
1362,1644,1603
1376,1648,1638
1360,1675,1584
1345,1619,1535
1360,1634,1593
1390,1654,1638
1361,1646,1590
1346,1612,1535
1363,1645,1603
1390,1652,1639
1361,1634,1586
1360,1648,1563
1371,1666,1616
1384,1655,1639
1370,1631,1585
1361,1635,1569
1390,1695,1635
1387,1682,1644
1365,1641,1583
1367,1645,1568
1392,1680,1622
1413,1683,1662
1391,1648,1599
1391,1661,1595
1402,1686,1633
1389,1653,1647
1373,1633,1601
1379,1648,1591
1404,1671,1646
1411,1667,1664
1395,1643,1613
1376,1639,1580
1395,1668,1629
1423,1675,1666
1392,1648,1605
1389,1664,1599
1407,1690,1649
1406,1653,1658
1392,1629,1601
1391,1639,1584
1406,1676,1645
1418,1665,1670
1396,1648,1613
1392,1659,1598
1408,1689,1649
1408,1677,1662
1390,1649,1609
1386,1648,1581
1403,1669,1639
1419,1675,1680
1398,1648,1607
1390,1648,1584
1404,1681,1641
1421,1703,1674
1405,1655,1616
1365,1617,1569
1386,1648,1622
1403,1663,1668
1392,1651,1616
1408,1669,1605
1382,1653,1621
1387,1648,1639
1378,1629,1594
1376,1634,1583
1395,1668,1642
1403,1665,1667
1387,1648,1601
1390,1657,1582
1392,1675,1631
1392,1680,1652
1386,1645,1602
1375,1637,1584
1389,1667,1632
1401,1678,1663
1389,1655,1613
1393,1666,1593
1393,1680,1627
1392,1663,1646
1377,1646,1619
1365,1647,1571
1387,1685,1622
1395,1681,1654
1392,1680,1615
1373,1664,1616
1377,1690,1666
1402,1681,1669
1392,1667,1613
1382,1667,1568
1388,1695,1649
1396,1703,1655
1395,1683,1584
1392,1685,1602
1394,1714,1618
1406,1712,1661
1387,1685,1595
1382,1682,1577
1398,1725,1637
1421,1725,1661
1387,1697,1591
1379,1683,1590
1410,1723,1629
1413,1722,1667
1409,1715,1623
1399,1718,1596
1429,1762,1671
1427,1755,1725
1403,1717,1631
1389,1718,1597
1418,1755,1659
1438,1771,1710
1422,1744,1651
1410,1737,1616
1427,1774,1649
1447,1775,1727
1428,1757,1658
1431,1757,1641
1448,1791,1722
1472,1829,1745
1437,1765,1664
1431,1766,1648
1457,1811,1726
1470,1814,1735
1451,1772,1673
1456,1789,1669
1472,1821,1729
1493,1821,1763
1487,1811,1720
1474,1808,1681
1510,1851,1760
1504,1841,1772
1478,1808,1738
1487,1810,1718
1508,1843,1738
1515,1837,1744
1505,1821,1739
1506,1840,1750
1519,1857,1776
1527,1846,1759
1521,1830,1711
1525,1839,1729
1535,1873,1799
1562,1877,1835
1558,1858,1791
1535,1859,1744
1569,1897,1824
1595,1905,1855
1581,1873,1839
1574,1879,1811
1606,1916,1863
1606,1905,1874
1575,1873,1819
1568,1891,1807
1593,1924,1876
1611,1927,1898
1606,1910,1851
1617,1940,1849
1616,1936,1843
1617,1936,1891
1616,1923,1857
1616,1922,1843
1648,1969,1903
1666,1982,1938
1655,1963,1891
1649,1968,1856
1664,2005,2035
1677,1998,1924
1663,1968,1905
1669,1974,1913
1678,2003,1957
1689,2010,1978
1687,1994,1842
1696,2011,1920
1706,2037,1958
1719,2039,1989
1712,2013,1954
1705,2022,1935
1725,2052,1986
1762,2074,2043
1742,2023,1978
1727,2025,1948
1757,2069,2022
1783,2081,2057
1773,2053,2013
1766,2060,1987
1790,2094,2070
1808,2101,2096
1803,2079,2047
1791,2065,2036
1808,2098,1997
1840,2110,2099
1837,2098,2060
1830,2107,1978
1846,2129,2111
1865,2135,2134
1859,2113,2037
1859,2122,2030
1876,2157,2113
1894,2158,2167
1888,2134,2103
1874,2127,2081
1900,2162,2116
1921,2175,2166
1899,2133,2128
1904,2138,2071
1930,2174,2171
1945,2179,2169
1949,2158,2127
1936,2153,2033
1947,2176,2122
1979,2194,2175
1967,2177,2141
1948,2160,2121
1963,2187,2128
1987,2201,2160
1982,2190,2117
1982,2192,2099
1999,2224,2139
2011,2223,2149
2002,2191,2096
1997,2193,2095
2023,2230,2156
2032,2240,2195
2025,2209,2151
2030,2220,2092
2058,2255,2119
2062,2240,2134
2065,2226,2160
2069,2247,2097
2058,2243,2161
2057,2218,2095
2054,2208,2062
2064,2231,2067
2080,2269,2130
2096,2263,2126
2085,2235,2096
2079,2237,2096
2096,2288,2137
2110,2278,2159
2106,2256,2107
2096,2256,2079
2109,2287,2146
2119,2283,2175
2109,2251,2096
2111,2253,2077
2129,2288,2128
2149,2290,2162
2128,2273,2101
2115,2270,2067
2139,2297,2128
2145,2301,2154
2143,2283,2096
2114,2254,2039
2118,2275,2094
2144,2288,2129
2141,2272,2091
2150,2278,2071
2159,2299,2109
2169,2291,2135
2160,2276,2088
2144,2270,2054
2153,2293,2107
2172,2304,2131
2157,2278,2081
2149,2274,2038
2171,2303,2102
2182,2305,2129
2160,2262,2074
2155,2273,2034
2172,2304,2096
2190,2302,2131
2173,2257,2069
2130,2259,2039
2209,2301,2102
2214,2309,2148
2150,2252,2059
2157,2242,2021
2138,2279,2083
2215,2288,2112
2179,2256,2064
2162,2257,2034
2224,2286,2082
2199,2307,2128
2211,2267,2064
2151,2254,2018
2193,2282,2083
2241,2266,2109
2218,2245,2059
2215,2263,2032
2165,2275,2077
2240,2266,2099
2204,2243,2055
2207,2241,2023
2221,2272,2071
2237,2275,2101
2209,2259,2047
2203,2242,2013
2243,2259,2062
2243,2257,2097
2261,2231,2059
2237,2224,2027
2242,2262,2074
2241,2267,2107
2224,2215,2027
2227,2203,1993
2194,2245,2061
2240,2256,2109
2224,2218,2044
2219,2210,1995
2224,2242,2043
2253,2255,2094
2240,2219,2033
2209,2207,2005
2238,2235,2066
2284,2248,2098
2243,2211,2030
2230,2206,2002
2253,2234,2061
2266,2235,2089
2223,2209,2035
2251,2202,2015
2246,2251,2082
2286,2239,2096
2263,2177,2009
2238,2176,1984
2256,2224,2054
2311,2223,2082
2278,2195,2032
2288,2192,2003
2274,2194,2042
2222,2193,2077
2256,2173,2030
2284,2187,2009
2293,2205,2058
2241,2203,2089
2303,2174,2026
2259,2175,2000
2263,2197,2058
2292,2193,2091
2275,2165,2030
2228,2172,2000
2292,2183,2059
2335,2197,2097
2262,2174,2032
2259,2176,2021
2276,2176,2032
2279,2178,2066
2285,2161,2029
2277,2160,1998
2288,2195,2063
2309,2193,2096
2307,2175,2047
2267,2139,1987
2285,2165,2041
2306,2167,2089
2320,2142,2036
2288,2139,2004
2298,2166,2063
2237,2165,2090
2362,2133,2032
2366,2139,2006
2309,2167,2065
2322,2177,2089
2303,2146,2022
2275,2130,1999
2309,2157,2061
2307,2160,2095
2347,2138,2039
2290,2128,2000
2321,2170,2064
2320,2160,2089
2305,2127,2030
2304,2115,2002
2325,2162,2062
2333,2157,2090
2320,2123,2038
2309,2117,2015
2320,2160,2069
2327,2160,2095
2322,2134,2042
2362,2128,2012
2320,2149,2064
2303,2157,2099
2311,2126,2029
2304,2123,1998
2323,2144,2062
2384,2147,2091
2355,2121,2053
2388,2114,2002
2355,2140,2058
2430,2160,2107
2235,2096,2026
2313,2089,1995
2291,2128,2047
2319,2144,2096
2353,2112,2037
2369,2097,2001
2327,2128,2059
2366,2128,2095
2334,2096,2039
2339,2098,2015
2349,2125,2064
2354,2111,2079
2336,2086,2023
2327,2097,2002
2345,2128,2063
2311,2128,2087
2349,2091,2026
2327,2082,2001
2361,2112,2061
2348,2118,2094
2340,2094,2039
2330,2091,2007
2352,2115,2064
2367,2122,2097
2335,2096,2045
2354,2093,2006
2341,2107,2061
2315,2107,2087
2352,2083,2033
2391,2081,2005
2307,2103,2067
2341,2109,2099
2339,2078,2034
2350,2064,2003
2357,2096,2065
2361,2099,2098
2406,2078,2043
2220,2075,2017
2339,2097,2069
2373,2108,2105
2335,2070,2038
2319,2055,2000
2339,2096,2053
2363,2098,2095
2351,2064,2042
2339,2064,2016
2352,2094,2066
2368,2095,2100
2351,2064,2047
2325,2042,1989
2350,2074,2042
2357,2079,2083
2343,2053,2032
2321,2053,2000
2348,2080,2039
2357,2082,2082
2351,2046,2039
2338,2055,2017
2341,2072,2042
2353,2079,2082
2345,2045,2033
2325,2035,1997
2345,2071,2037
2352,2077,2083
2336,2058,2032
2325,2044,1996
2340,2080,2053
2356,2089,2096
2337,2047,2029
2334,2039,1997
2349,2074,2064
2352,2073,2087
2334,2033,2032
2320,2028,1997
2334,2068,2053
2353,2071,2093
2345,2045,2032
2335,2035,2000
2355,2070,2047
2352,2080,2088
2335,2043,2034
2326,2037,2000
2351,2070,2043
2356,2068,2083
2339,2032,2019
2324,2036,1995
2339,2066,2042
2347,2064,2081
2330,2042,2032
2317,2043,1995
2331,2065,2039
2338,2067,2080
2336,2043,2031
2325,2032,1993
2325,2055,2032
2343,2064,2075
2347,2045,2036
2320,2028,1995
2329,2062,2032
2343,2064,2070
2336,2036,2015
2319,2030,1984
2327,2061,2038
2342,2065,2075
2326,2032,2021
2317,2034,1981
2320,2057,2027
2343,2062,2070
2335,2039,2021
2323,2029,1981
2336,2062,2032
2337,2064,2074
2320,2033,2025
2311,2032,1985
2324,2059,2030
2341,2059,2074
2335,2037,2029
2321,2043,1989
2319,2054,2025
2328,2055,2064
2320,2031,2018
2311,2022,1986
2320,2058,2033
2327,2079,2069
2305,2029,2003
2290,2022,1968
2307,2064,2026
2309,2054,2061
2301,2019,2011
2288,2020,1974
2301,2047,2021
2320,2053,2064
2302,2019,2007
2291,2019,1974
2306,2045,2023
2330,2080,2078
2298,2025,2009
2281,2020,1971
2299,2045,2011
2306,2047,2062
2294,2021,2009
2277,2021,1980
2289,2039,2021
2307,2055,2057
2295,2023,2003
2283,2013,1972
2293,2041,2015
2309,2057,2064
2298,2032,2020
2279,2027,1971
2272,2032,1997
2288,2039,2032
2275,2016,1999
2259,2011,1963
2275,2043,2009
2294,2061,2044
2277,2029,1998
2271,2025,1962
2275,2054,2003
2283,2058,2035
2271,2019,1986
2262,2021,1956
2271,2046,2002
2280,2058,2036
2272,2027,1991
2262,2019,1953
2274,2047,2005
2279,2047,2038
2263,2027,1986
2243,2020,1954
2256,2042,2001
2283,2058,2037
2259,2018,1984
2253,2011,1949
2261,2043,1987
2275,2045,2033
2259,2027,1985
2255,2029,1953
2254,2047,1982
2261,2057,2019
2260,2029,1981
2226,2013,1945
2238,2037,1984
2256,2053,2018
2246,2021,1975
2241,2023,1939
2255,2038,1984
2267,2046,2021
2254,2029,1986
2230,2015,1942
2238,2047,1983
2254,2064,2029
2238,2017,1973
2221,2019,1934
2225,2035,1973
2249,2038,2012
2231,2011,1971
2222,2057,1936
2229,2006,1973
2256,2069,2032
2231,2012,1970
2206,2000,1922
2217,1991,1969
2231,2034,2007
2223,2017,1969
2213,2023,1931
2229,1989,1973
2247,2062,2023
2226,2000,1970
2204,1985,1930
2214,2009,1975
2229,2032,2014
2221,2017,1969
2214,2064,1936
2224,2032,1986
2224,2059,2015
2210,2021,1963
2193,1982,1926
2205,2037,1974
2223,2074,2022
2199,2014,1968
2192,1984,1931
2208,2057,1984
2223,2066,2011
2215,2069,1971
2198,1981,1930
2202,2034,1968
2214,2032,2006
2201,2023,1963
2183,2038,1921
2204,2057,1969
2214,2016,2015
2187,1983,1951
2171,2015,1921
2192,2038,1968
2210,2098,2017
2195,2009,1967
2176,2002,1926
2190,2045,1969
2202,2067,2000
2184,2030,1946
2171,2011,1908
2188,2033,1959
2208,2059,2000
2192,2064,1959
2174,2021,1913
2177,2058,1955
2195,2005,1997
2192,1997,1961
2179,1997,1922
2173,2038,1943
2187,2012,1979
2185,2013,1953
2165,2007,1919
2177,2016,1958
2188,2009,1990
2181,1973,1946
2161,2037,1906
2175,2023,1955
2186,2067,2000
2173,2015,1959
2160,2002,1915
2173,2037,1954
2182,2036,1987
2175,2015,1947
2160,2010,1920
2167,2033,1964
2178,2047,2000
2161,2003,1959
2146,2023,1917
2159,2043,1953
2171,2047,1995
2157,2019,1952
2153,2003,1925
2162,2056,1970
2165,2043,1991
2139,2005,1936
2139,2003,1902
2161,2043,1954
2176,2063,2003
2154,2011,1948
2138,2000,1907
2151,2064,1955
2173,2058,1991
2150,2005,1945
2128,2016,1911
2138,2037,1943
2157,2045,1987
2146,1964,1945
2128,2013,1909
2142,2035,1954
2159,2059,1989
2134,2014,1943
2128,2004,1904
2140,2030,1952
2163,2047,2004
2141,2007,1946
2118,1994,1904
2128,2030,1955
2139,2043,1987
2117,2009,1936
2109,1968,1901
2125,1984,1951
