2036,2000,2022
1970,1957,1889
1975,1978,1817
2035,2013,1938
2035,1997,2020
1975,1962,1897
1975,1977,1827
2031,2011,1949
2035,1998,2022
1977,1954,1892
1969,1968,1811
2027,2005,1942
2033,1990,2023
1980,1957,1887
1977,1978,1819
2034,2017,1942
2034,2007,2030
1974,1962,1886
1957,1975,1817
2025,2015,1953
2032,2001,2029
1985,1965,1889
1959,1984,1818
2012,2015,1948
2065,2000,2026
1995,1965,1892
1969,1982,1825
2044,2017,1952
2064,2000,2018
1997,1963,1887
1998,1981,1827
2082,2014,1954
2032,1995,2019
1949,1957,1872
1984,1983,1822
1996,2021,1964
2047,2000,2033
2022,1959,1890
1979,1979,1821
2030,2018,1945
2021,1991,2010
1962,1958,1882
1958,1981,1820
2029,2009,1945
2063,1987,2012
1962,1948,1874
1994,1986,1827
2046,2027,1968
2032,1999,2022
1962,1962,1885
1968,1984,1821
2031,2011,1955
2067,1993,2030
1996,1949,1889
1965,1974,1814
2029,2013,1943
2047,1996,2021
2001,1952,1895
1977,1972,1823
2007,2002,1954
2001,1990,2032
1991,1951,1897
1962,1965,1817
2023,1997,1954
2031,1980,2019
1953,1944,1893
1968,1968,1825
2030,2000,1945
2036,1990,2022
1975,1952,1883
1985,1975,1813
2013,2009,1949
2036,1983,2018
1968,1942,1873
1938,1973,1827
2036,2007,1956
2018,1987,2027
1997,1949,1893
1977,1965,1820
2011,2000,1943
2013,1991,2018
1973,1950,1876
1962,1968,1813
1994,2009,1950
2064,1991,2019
1968,1943,1876
1996,1965,1800
2015,1999,1936
2009,1981,2017
1966,1949,1889
1971,1962,1812
2061,2000,1941
2016,1984,2013
1984,1955,1886
1946,1969,1813
2021,2000,1940
2034,1980,2005
1975,1945,1879
1936,1957,1810
2026,2000,1951
2020,1990,2032
1963,1951,1875
1974,1962,1806
2029,2001,1937
2010,1993,2026
1983,1966,1894
1976,1983,1823
2035,2009,1942
2060,1991,2029
1975,1954,1902
1958,1973,1813
2021,2006,1947
2035,1984,2023
1968,1951,1890
1906,1963,1810
2064,1999,1936
2055,1985,2032
1984,1955,1903
1980,1978,1823
2036,2006,1953
2037,1984,2019
1965,1953,1895
1968,1973,1822
2023,2002,1948
2030,1984,2032
1968,1951,1898
1967,1968,1818
2026,2005,1939
2068,1989,2013
1965,1956,1889
1996,1975,1824
2043,2011,1948
2073,1988,2017
1982,1962,1909
1979,1984,1803
2084,2022,1911
2032,2000,2021
1941,1955,1888
1958,1970,1825
2010,2010,1931
2058,2000,2017
2001,1957,1942
1981,1983,1808
2033,2011,1975
2043,1997,2047
1979,1959,1904
2010,1984,1827
2045,2020,1961
2058,1997,1993
1984,1961,1904
1986,1983,1839
2037,2021,1945
2065,1999,2031
1981,1965,1904
2005,1984,1837
2061,2015,1957
2035,1999,2030
1974,1953,1903
1975,1978,1817
2057,2016,1945
2061,1997,2013
1983,1952,1886
1936,1967,1813
2047,2013,1975
2066,2000,2041
1986,1963,1898
1968,1979,1783
2043,2007,1948
2047,2000,2034
1984,1962,1911
1929,1977,1813
2046,2017,1967
2045,2000,2047
1987,1954,1899
1982,1967,1833
2041,2003,1958
2017,1989,2045
1984,1959,1886
1983,1984,1872
2036,2017,2015
2058,2000,2064
1964,1958,1920
1951,1968,1847
2033,2005,1939
2019,1993,2079
1926,1952,1878
1997,1968,1821
2010,2004,1955
2012,1998,2000
1983,1962,1920
1970,1968,1815
2043,2007,1972
2043,1995,2026
1991,1958,1904
1993,1967,1810
2066,2003,1968
2032,1990,2033
1970,1955,1894
1929,1979,1836
2032,2013,1945
2053,1997,2035
1962,1951,1899
1946,1968,1823
2027,2001,1955
2079,1991,2047
2000,1964,1909
1971,1979,1826
2033,2010,1938
2051,1993,2019
1984,1951,1899
1949,1972,1830
2031,2016,1981
2039,2000,2064
1979,1951,1903
1973,1969,1824
2038,2002,1922
2033,1993,2013
1967,1952,1879
1968,1970,1819
2022,2011,1863
2032,1997,1981
1997,1959,1904
2025,1971,1834
2043,2006,1963
2014,1999,2044
1972,1961,1889
1969,1972,1807
1968,2010,1932
2054,2000,2020
1982,1959,1891
1968,1964,1798
2029,2000,1927
2047,2000,2032
1977,1955,1907
2035,1968,1795
2030,2010,1941
2039,1998,2027
2005,1959,1886
1966,1971,1814
2047,2015,1934
2096,2003,2039
1969,1959,1951
1985,1971,1747
1998,2014,1930
2058,1998,2019
2010,1958,1877
1975,1973,1745
2091,2021,1968
2092,1999,2041
1974,1957,1878
1974,1974,1790
2074,2011,1945
2014,2003,1985
1981,1959,1894
1957,1967,1789
2020,2010,1919
2035,2004,2037
1968,1968,1904
1987,1974,1827
2027,2006,1941
2032,2006,2081
1979,1959,1898
2022,1968,1810
2026,2002,1951
2018,2000,2045
1977,1954,1938
1957,1968,1799
2017,2000,1955
2038,1994,2030
1904,1953,1904
2015,1968,1767
2059,2006,1929
2073,1997,2074
1986,1955,1899
1907,1967,1843
2010,2001,1943
2017,1989,2005
2039,1952,1895
1949,1972,1803
2014,2007,1941
2117,1997,2029
1967,1951,1889
1965,1963,1837
2107,2006,1921
2046,1999,2010
1980,1955,1904
1985,1956,1800
2016,1996,1933
2023,1989,2034
1969,1951,1904
1967,1962,1819
2027,1998,1933
2041,1988,2032
1984,1954,1907
1969,1966,1824
2019,2002,1936
2045,1997,2029
1975,1961,1909
2009,1966,1824
2013,2001,1939
2033,1994,2026
1936,1957,1895
1958,1968,1813
2012,2003,1947
2055,2000,2032
1968,1957,1896
1968,1968,1799
2035,2010,1932
2046,2002,2030
1998,1968,1899
1943,1966,1802
2002,2000,1929
2039,1989,2024
1973,1955,1915
1925,1965,1826
2014,2000,1936
2059,1996,2025
1973,1957,1904
1957,1966,1821
2016,2006,1941
2044,2002,2032
1971,1978,1895
1954,1969,1801
2045,2010,1927
2043,2000,2021
1989,1968,1893
1984,1971,1818
2041,2006,1942
2034,1993,2022
1981,1946,1885
1971,1967,1807
1995,2000,1937
1995,1989,2030
1954,1954,1898
1937,1966,1809
2030,2007,1936
2057,2000,2029
1983,1958,1890
1964,1963,1803
2023,2000,1930
2042,1989,2019
2005,1951,1889
1921,1968,1802
2084,2007,1936
2035,1990,2021
1968,1955,1882
1965,1970,1807
2032,2004,1931
2047,1997,2016
1970,1958,1891
1969,1971,1821
2057,2002,1937
2081,1995,2025
1952,1947,1883
1963,1963,1790
1995,2000,1934
2091,1991,2046
1980,1950,1913
1997,1963,1795
2038,1990,1907
2030,1985,2019
2000,1955,1895
1971,1968,1814
2037,2010,1943
2032,2002,2060
1964,1947,1920
1970,1933,1775
2023,2000,1937
2030,2016,2093
1973,1998,1975
1937,1973,1795
1990,1968,1879
2033,1975,2032
1931,1946,1934
1968,1955,1831
2009,1987,1936
2064,1999,2066
1968,1951,1910
1938,1906,1773
2007,1943,1904
2057,1961,2057
1966,1919,1862
1941,1906,1738
2015,1971,1975
2007,1955,2097
1898,1923,1926
1973,1915,1810
2002,1941,1943
2128,1944,2075
2012,1921,1978
1983,1895,1861
2047,1930,1981
2121,1937,2109
2043,1887,1991
1985,1883,1886
2066,1910,1974
2068,1894,2055
2010,1861,1929
2002,1869,1828
2067,1899,1936
2079,1872,2015
2025,1853,1898
2015,1873,1818
2069,1901,1905
2064,1853,1966
2057,1827,1852
2015,1862,1779
2096,1867,1886
2065,1858,1962
2059,1827,1842
2000,1835,1776
2097,1856,1879
2054,1855,1974
2081,1839,1867
1951,1843,1776
2080,1883,1868
2098,1849,1929
2015,1817,1826
1954,1830,1757
2003,1854,1857
2038,1841,1939
2016,1825,2173
2019,1843,2041
1980,1856,1864
2024,1831,1854
1946,1808,1786
2000,1835,1749
1978,1889,1842
1970,1832,1889
1926,1808,1808
1969,1837,1744
1910,1847,1824
1942,1824,1904
1898,1808,1809
1919,1837,1728
1889,1845,1824
1897,1830,1903
1872,1812,1825
1855,1840,1746
1852,1854,1829
1863,1834,1905
1825,1815,1819
1813,1845,1749
1857,1886,1850
1856,1856,1919
1794,1819,1824
1808,1839,1746
1826,1874,1839
1801,1847,1909
1743,1831,1823
1811,1853,1747
1790,1872,1850
1776,1856,1918
1742,1842,1834
1732,1856,1763
1770,1878,1858
1751,1856,1933
1758,1840,1844
1705,1872,1767
1731,1885,1840
1776,1872,1925
1730,1869,1876
1729,1890,1807
1733,1890,1872
1728,1865,1943
1712,1875,1873
1715,1878,1785
1730,1887,1872
1731,1875,1969
1721,1886,1903
1728,1883,1811
1741,1901,1879
1728,1893,1970
1718,1887,1899
1741,1917,1829
1739,1921,1903
1712,1888,1975
1703,1876,1899
1733,1895,1826
1751,1904,1894
1743,1904,1983
1734,1904,1915
1751,1911,1833
1744,1935,1886
1713,1899,1959
1710,1887,1872
1731,1901,1802
1765,1930,1911
1751,1937,1997
1745,1906,1905
1753,1917,1793
1744,1931,1872
1731,1920,1967
1744,1927,1911
1759,1937,1823
1756,1952,1872
1759,1956,1961
1777,1951,1898
1783,1962,1951
1746,1937,1810
1717,1910,1750
1723,1898,2038
1719,1901,1851
1717,1901,1725
1705,1888,1738
1715,1887,1808
1747,1920,1843
1776,1953,1840
1770,1946,1834
1762,1947,1826
1791,1967,1827
1790,1968,1828
1775,1937,1831
1773,1933,1829
1831,1951,1829
1839,1985,1827
1817,1948,1825
1823,1937,1825
1841,1973,1830
1835,1976,1831
1829,1947,1831
1830,1935,1828
1869,1956,1827
1861,1962,1834
1840,1943,1835
1844,1937,1827
1871,1959,1830
1868,1967,1834
1867,1945,1824
1856,1937,1828
1878,1966,1831
1898,1968,1838
1871,1957,1811
1872,1948,1739
1893,1972,1683
1895,1983,1751
1873,1963,1826
1876,1950,1759
1904,1970,1697
1936,1968,1809
1896,1961,1861
1863,1962,1767
1877,1959,1682
1907,1970,1783
1904,1963,1863
1892,1956,1804
1905,1978,1736
1907,1971,1783
1882,1952,1850
1869,1935,1773
1914,1957,1734
1918,1965,1803
1890,1937,1875
1869,1925,1797
1886,1938,1741
1908,1957,1822
1895,1941,1903
1872,1936,1811
1885,1954,1744
1888,1955,1819
1869,1937,1903
1859,1920,1840
1891,1947,1778
1907,1963,1858
1851,1952,1904
1821,1936,1813
1870,1955,1775
1898,1981,1863
1872,1958,1934
1856,1952,1857
1863,1969,1782
1853,1980,1833
1840,1968,1921
1843,1962,1861
1883,1969,1808
1873,2001,1851
1822,1978,1918
1803,1965,1840
1808,1968,1759
1837,1991,1851
1840,1987,1966
1840,1982,1895
1840,1994,1808
1824,2003,1855
1799,1983,1923
1794,1991,1873
1814,2003,1815
1812,2011,1874
1779,2000,1936
1770,1995,1872
1803,2012,1809
1808,2023,1887
1792,2001,1962
1793,1985,1915
1799,2029,1840
1799,2014,1878
1781,2016,1955
1782,2015,1904
1805,2030,1847
1797,2030,1889
1808,2006,1977
1800,2031,1905
1794,2064,1835
1805,2064,1895
1790,2031,1971
1791,2022,1918
1807,2031,1853
1805,2034,1917
1782,2021,1982
1779,2017,1915
1802,2029,1857
1802,2033,1920
1783,2016,1986
1785,2009,1935
1803,2029,1867
1805,2027,1911
1760,2001,1970
1744,1988,1911
1775,1991,1856
1805,1999,1927
1780,1961,1999
1761,1968,1926
1783,1984,1856
1808,1997,1943
1776,1988,2000
1767,1957,1924
1835,1942,1903
1790,1985,1917
1744,1984,1985
1745,1959,1934
1774,1943,1877
1794,1947,1943
1777,1941,2019
1775,1930,1966
1797,1961,1905
1777,1978,1935
1750,1906,1995
1747,1887,1955
1759,1917,1882
1743,1857,1907
1763,1915,2013
1795,1891,2000
1815,1885,1927
1781,1899,1954
1727,1901,1970
1725,1861,1931
1823,1904,1947
1812,1861,1980
1754,1908,2013
1747,1902,1957
1776,1858,1906
1781,1861,1962
1765,1849,2009
1761,1831,1954
1778,1842,1926
1774,1863,1968
1744,1850,1997
1731,1829,1935
1791,1856,1932
1818,1913,2003
1808,1870,2062
1792,1822,1984
1778,1852,1919
1776,1866,1968
1774,1853,2023
1778,1839,1979
1805,1847,1941
1814,1872,1993
1787,1854,2035
1761,1842,1957
1798,1863,1920
1818,1849,1984
1810,1841,2042
1782,1807,1975
1767,1841,1908
1775,1843,1938
1783,1842,2022
1808,1842,2001
1854,1841,1968
1823,1865,1968
1776,1847,2007
1798,1829,1978
1819,1867,1919
1811,1882,1965
1775,1830,2001
1737,1863,1915
1757,1811,1856
1857,1813,1995
1855,1870,2075
1813,1845,1969
1789,1813,1865
1817,1869,1945
1856,1873,2059
1809,1856,1956
1778,1843,1851
1805,1840,1905
1850,1828,2030
1843,1826,1981
1845,1856,1894
1836,1819,1914
1808,1849,1982
1798,1866,1946
1842,1840,1905
1838,1846,1933
1769,1855,1946
1803,1817,1931
1891,1868,1931
1885,1871,1969
1825,1856,1999
1826,1846,1939
1857,1856,1879
1835,1906,1914
1811,1909,1984
1826,1899,1936
1856,1904,1872
1840,1930,1906
1833,1904,2001
1866,1939,1983
1894,2000,1909
1893,1874,1947
1843,2093,1989
1839,1966,1931
1891,2010,1903
1895,2014,1939
1866,2035,2001
1869,2032,1962
1897,2064,1897
1882,2064,1927
1873,2075,2006
1883,2110,1968
1931,2078,1904
1917,2082,1937
1874,2070,1989
1889,2090,1959
1920,2126,1905
1932,2160,1947
1901,2235,2007
1915,2190,1963
1967,2239,1927
1934,2272,1937
1909,2288,2013
1920,2288,1969
1949,2266,1902
1953,2336,1952
1938,2318,2030
1929,2405,1959
1939,2435,1890
1935,2369,1937
1920,2382,2015
1950,2431,1984
1968,2396,1904
1934,2497,1919
1920,2435,2006
1966,2401,2002
1997,2509,1921
1979,2522,1957
1935,2468,2011
1935,2448,1955
1967,2498,1895
1975,2471,1951
1949,2453,2013
1955,2446,1966
1987,2432,1888
1959,2510,1927
1937,2462,1994
1951,2488,1954
1982,2493,1886
1967,2492,1919
1965,2469,2015
2000,2469,1983
2009,2506,1903
1986,2515,1936
1959,2493,2000
1963,2368,1936
1997,2473,1877
2005,2469,1940
1987,2465,2007
1988,2499,1949
2011,2449,1872
2032,2437,1934
1982,2434,1970
1982,2509,1920
2022,2401,1857
2020,2438,1908
2010,2422,1979
2000,2415,1923
2045,2412,1872
2059,2400,1931
2015,2460,1990
1991,2419,1904
2020,2478,1840
2036,2390,1914
2011,2338,1986
2006,2352,1921
2018,2350,1841
2017,2362,1885
2011,2357,1971
2021,2350,1925
2046,2335,1856
2053,2326,1907
2006,2320,1954
1994,2307,1883
2032,2303,1828
2044,2301,1898
2018,2295,1963
2013,2269,1906
2042,2263,1841
2047,2263,1883
2026,2256,1965
2034,2247,1917
2067,2249,1840
2034,2241,1885
2006,2229,1943
2012,2206,1901
2053,2215,1835
2059,2227,1891
2018,2207,1947
2012,2190,1889
2017,2178,1806
2037,2176,1857
2061,2200,1979
2069,2198,1943
2067,2181,1840
2043,2191,1878
2023,2181,1954
2057,2159,1915
2069,2176,1836
2064,2173,1886
2037,2161,1968
2045,2147,1917
2084,2143,1844
2065,2144,1883
2025,2133,1943
2064,2128,1919
2110,2128,1872
2095,2143,1906
2047,2134,1968
2059,2112,1921
2089,2096,1845
2096,2104,1901
2044,2101,1954
2041,2085,1902
2077,2073,1843
2074,2089,1894
2032,2086,1956
2030,2064,1898
2068,2064,1843
2063,2068,1895
2046,2071,1973
2054,2043,1968
2080,2029,2609
2074,2044,2192
2038,2055,1904
2044,2030,1808
2083,2017,1808
2073,2035,1877
2031,2042,1957
2047,2020,1895
2081,2013,1840
2091,2022,1888
2058,2025,1953
2064,2000,1903
2087,2013,1836
2073,2014,1876
2043,1999,1957
2066,1987,1911
2094,1986,1842
2083,1999,1888
2046,2000,1953
2055,1978,1897
2094,1979,1842
2096,1989,1900
2057,1983,1950
2064,1982,1904
2098,1973,1841
2095,1978,1904
2067,1971,1970
2067,1947,1917
2091,1948,1847
2086,1954,1894
2047,1949,1951
2064,1936,1907
2103,1938,1853
2101,1945,1899
2075,1939,1962
2073,1936,1914
2099,1925,1853
2095,1945,1890
2066,1924,1963
2075,1927,1914
2103,1921,1849
2097,1931,1895
2066,1924,1974
2079,1908,1930
2111,1910,1864
2102,1919,1904
2081,1919,1981
2084,1905,1923
2111,1895,1857
2098,1907,1904
2064,1906,1975
2077,1885,1921
2113,1881,1858
2111,1888,1908
2072,1888,1970
2087,1872,1927
2110,1872,1857
2096,1892,1899
2079,1885,1981
2095,1872,1930
2111,1872,1859
2103,1876,1908
2080,1877,1979
2086,1875,1921
2103,1870,1856
2095,1881,1904
2083,1879,1982
2089,1853,1935
2118,1845,1868
2106,1870,1909
2069,1869,1983
2073,1855,1933
2106,1849,1872
2102,1861,1907
2076,1865,1975
2074,1843,1934
2110,1854,1874
2113,1870,1922
2083,1865,2001
2096,1857,1940
2096,1869,1859
2098,1874,1905
2081,1872,1986
2091,1872,1943
2111,1857,1871
2109,1875,1915
2080,1871,1985
2078,1872,1926
2107,1874,1858
2104,1894,1911
2075,1902,1983
2082,1892,1941
2109,1901,1870
2109,1906,1913
2085,1905,1999
2094,1904,1949
2126,1904,1904
2112,1923,1954
2087,1936,1999
2075,1918,1970
2097,1920,1841
2107,1932,1922
2082,1933,1984
2085,1930,1934
2118,1927,1901
2125,1943,1915
2095,1949,2017
2083,1927,1935
2122,1920,1909
2113,1954,1924
2084,1949,2018
2090,1920,1950
2118,1926,1876
2111,1936,1919
2083,1939,1936
2078,1937,1959
2102,1926,1861
2105,1943,1910
2078,1945,1994
2070,1926,1939
2112,1920,1814
2111,1939,1925
2085,1960,1959
2079,1930,1957
2107,1921,1872
2109,1938,1904
2081,1941,2045
2071,1927,1963
2087,1910,1857
2101,1923,1921
2079,1941,1968
2078,1933,1936
2112,1920,1872
2112,1932,1923
2074,1925,1971
2064,1904,1925
2108,1904,1847
2102,1922,1934
2069,1931,2001
2069,1915,1943
2087,1903,1863
2080,1924,1865
2064,1925,1988
2079,1926,1926
2106,1923,1879
2113,1936,1911
2081,1937,1994
2070,1910,1949
2083,1900,1886
2090,1918,1921
2068,1931,2021
2070,1915,1907
2095,1911,1850
2086,1918,1898
2047,1920,1967
2064,1907,1934
2102,1910,1899
2109,1919,1938
2083,1933,1977
2074,1905,1904
2085,1903,1864
2087,1918,1878
2064,1929,2023
2069,1909,1941
2097,1905,1867
2090,1919,1905
2061,1920,1988
2067,1909,1970
2096,1903,1856
2109,1922,1933
2072,1929,2007
2064,1905,1951
2083,1897,1853
2086,1922,1913
2076,1933,1995
2070,1907,1947
2091,1904,1867
2086,1918,1913
2062,1923,1983
2041,1906,1926
2084,1901,1978
2092,1911,1894
2059,1919,1989
2063,1904,1923
2089,1897,1810
2079,1911,1919
2060,1914,1995
2045,1909,1918
2077,1913,1841
2081,1921,1917
2069,1927,1984
2064,1914,1971
2082,1901,1856
2087,1910,1908
2058,1921,1986
2059,1915,1931
2085,1904,1856
2085,1914,1909
2054,1921,1982
2054,1908,1936
2073,1911,1863
2071,1920,1904
2039,1926,1973
2047,1910,1937
2079,1915,1839
2075,1925,1890
2045,1922,1966
2039,1905,1867
2074,1907,1857
2073,1929,1872
2038,1918,1962
2043,1907,1918
2078,1902,1875
2082,1916,1904
2039,1910,2031
2045,1904,1955
2079,1904,1871
2083,1919,1882
2047,1925,1967
2043,1907,1975
2064,1902,1850
2075,1922,1920
2046,1936,1993
2059,1917,1942
2064,1904,1856
2065,1921,1919
2041,1927,1984
2045,1921,1889
2080,1915,1878
2080,1911,1924
2044,1936,1969
2045,1922,1936
2066,1917,1847
2073,1934,1909
2039,1934,1968
2032,1915,1960
2064,1916,1868
2064,1932,1904
2042,1939,1995
2044,1935,1951
2066,1923,1828
2059,1924,1903
2035,1932,2021
2045,1922,1941
2070,1921,1854
2065,1942,1931
2032,1947,2045
2038,1935,1926
2065,1935,1903
2074,1940,1936
2042,1939,2027
2033,1927,1914
2064,1922,1863
2058,1934,1964
2032,1940,2017
2037,1931,1949
2064,1922,1875
2058,1936,1907
2028,1941,1991
2029,1930,1950
2063,1922,1875
2064,1939,1921
2032,1946,2000
2026,1922,1942
2052,1917,1857
2047,1937,1907
2031,1950,2002
2027,1943,1949
2054,1932,1871
2054,1946,1926
2032,1962,2006
2027,1942,1949
2059,1936,1869
2054,1946,1907
2022,1957,1991
2016,1947,1939
2045,1934,1866
2053,1943,1918
2032,1945,2000
2018,1936,1946
2039,1936,1867
2047,1951,1915
2031,1963,1999
2012,1943,1936
2038,1936,1861
2039,1951,1907
2013,1954,1984
2012,1939,1936
2071,1933,1874
2027,1947,1921
2000,1967,2003
2010,1940,1937
2031,1930,1859
2064,1937,1902
2000,1949,1990
2016,1938,1952
2057,1943,1865
2043,1962,1910
2069,1961,1999
2009,1941,1954
2023,1927,1872
2070,1936,1902
2000,1936,1983
2066,1936,1947
2059,1936,1872
2035,1941,1905
1991,1947,1986
1995,1925,1936
2042,1926,1859
2058,1946,1907
2030,1943,1987
2017,1929,1935
2045,1921,1855
2034,1935,1902
2064,1946,1981
1987,1940,1959
2047,1936,1877
2027,1945,1914
2022,1950,1979
1985,1946,1939
2064,1936,1856
2038,1951,1911
2019,1957,1993
2035,1938,1949
2053,1935,1869
2054,1949,1915
2019,1966,1990
2015,1937,1934
2098,1923,1853
2059,1950,1910
2032,1966,2000
2037,1944,1947
2063,1932,1853
2057,1946,1894
2032,1962,1984
2037,1955,1945
2055,1952,1859
2081,1966,1904
2006,1965,1985
2045,1947,1941
2043,1941,1856
2038,1954,1904
1984,1968,1997
2039,1955,1951
2083,1949,1856
2064,1958,1899
2064,1965,1979
2033,1950,1951
2068,1941,1859
2090,1947,1900
2053,1964,1983
2083,1947,1936
2053,1936,1851
2064,1958,1902
2040,1968,2000
2002,1964,1957
2039,1938,1852
2006,1950,1894
2043,1970,1991
2032,1954,1954
2037,1938,1870
2043,1951,1904
2026,1966,1984
2023,1952,1938
2044,1936,1867
2055,1955,1914
2030,1968,1999
2029,1953,1945
2045,1934,1857
2054,1957,1907
2041,1968,2001
2031,1949,1962
2043,1936,1866
2038,1954,1914
1990,1962,1994
2083,1952,1953
2059,1946,1866
2057,1966,1907
2041,1973,1987
2041,1963,1953
2106,1954,1865
2099,1965,1906
1952,1970,1989
2055,1957,1943
2047,1951,1854
2043,1968,1902
2029,1983,1993
2026,1964,1946
2044,1952,1863
2054,1962,1903
2025,1965,1984
2021,1949,1939
2047,1948,1867
2128,1962,1914
2023,1966,1990
1996,1936,1932
2076,1932,1851
2099,1956,1904
2047,1967,1997
2057,1954,1947
2022,1943,1856
2123,1959,1897
2004,1965,1989
2000,1955,1947
2074,1939,1865
2043,1962,1910
2001,1971,1988
2060,1947,1937
2000,1940,1850
2063,1959,1894
2006,1968,1985
2039,1958,1936
2058,1953,1856
2039,1970,1904
2026,1983,1978
2032,1968,1938
1994,1951,1851
1995,1955,1890
1979,1970,1984
2027,1963,1938
2031,1947,1854
2043,1957,1888
2002,1967,1977
2013,1959,1939
2068,1953,1865
2075,1968,1906
2013,1983,1987
2015,1957,1938
2037,1945,1857
2043,1966,1897
1999,1980,1986
2064,1966,1945
2041,1941,1856
2053,1968,1906
2035,1978,2000
2029,1957,1937
2063,1938,1847
2034,1954,1895
1989,1968,1976
2000,1962,1937
2038,1957,1863
2026,1968,1904
2028,1984,1998
2021,1968,1936
2128,1946,1855
2075,1965,1903
2004,1971,1983
2034,1954,1942
2074,1946,1857
2041,1968,1894
2023,1967,1982
2013,1946,1925
2034,1942,1851
2045,1950,1893
2021,1975,1986
2018,1962,1941
2046,1946,1861
2032,1949,1879
2011,1973,1969
2013,1956,1934
2038,1946,1861
2047,1965,1903
2027,1978,1990
2010,1962,1930
2019,1939,1839
2046,1961,1895
2030,1974,1998
2018,1968,1949
2030,1955,1851
2023,1964,1875
2019,1975,1979
2022,1968,1946
2031,1953,1854
2025,1965,1883
1999,1985,1969
2003,1971,1934
2032,1953,1855
2032,1971,1901
2000,1986,1971
2000,1971,1922
2032,1968,1853
2030,1986,1894
2003,2000,1978
1999,1982,1934
2014,1962,1842
2012,1978,1878
2014,2000,1982
2023,1995,1956
2028,1984,1854
2022,2002,1889
2013,2015,1983
2000,1999,1931
2015,1985,1842
2026,2000,1896
2005,2013,1984
2001,2001,1939
2023,1987,1849
2031,1997,1884
2002,2011,1971
1995,2005,1923
2017,2002,1840
2026,2018,1888
2007,2023,1987
2000,2018,1949
2015,2000,1851
2022,2010,1885
2011,2033,1982
2004,2016,1931
2012,2004,1856
2028,2021,1903
2015,2036,1994
2005,2021,1947
2013,2015,1851
2015,2032,1891
2012,2044,1987
2011,2023,1943
2032,2017,1856
2038,2029,1901
2017,2039,1990
2019,2026,1942
2035,2014,1858
2035,2033,1899
2013,2041,1981
2011,2025,1943
2030,2011,1860
2035,2028,1904
2014,2034,1991
2010,2025,1943
2043,2010,1859
2043,2025,1900
2018,2046,1982
2009,2032,1935
2029,2005,1842
2035,2021,1895
2012,2029,1975
2005,2015,1938
2038,1999,1859
2041,2017,1900
2007,2029,1983
2000,2014,1934
2016,2001,1847
2015,2019,1891
2013,2036,1978
2010,2009,1930
2031,1998,1841
2032,2017,1887
2015,2030,1968
2007,2015,1927
2022,2005,1853
2015,2023,1877
1997,2045,1972
1989,2032,1926
2014,2022,1845
2017,2032,1877
2006,2066,1969
2000,2064,1923
2011,2042,1834
2016,2066,1872
2000,2082,1969
2000,2071,1937
2006,2047,1840
2028,2053,1888
2007,2065,1974
2000,2035,1930
2017,2017,1847
2022,2018,1887
2000,2022,1983
1997,1991,1936
2015,1953,1844
2031,1936,1894
2000,1881,1980
1987,1776,1927
2011,1681,1846
2026,1631,1904
2011,1591,1991
2001,1518,1946
2016,1445,1857
2015,1413,1898
1995,1380,1998
2007,1344,1970
2022,1291,1886
2013,1279,1916
1994,1255,1999
2000,1216,1975
2024,1191,1897
2018,1190,1930
1997,1187,2002
1987,1139,1963
2019,1114,1881
2022,1115,1931
1995,1130,2012
1984,1108,1970
2000,1078,1878
2006,1089,1917
2000,1103,2017
1997,1077,1975
2011,1058,1872
2002,1072,1909
1986,1078,2009
1995,1006,1969
2017,1040,1884
2031,1010,1928
2003,1130,2007
2000,1045,1972
2014,1037,1878
2007,1104,1908
1990,1072,2001
1986,1055,1957
2019,1015,1872
2020,1089,1915
1989,1074,1998
1989,1091,1956
2013,1091,1872
2023,1076,1919
2011,1110,2009
1999,1115,1967
2010,1136,1879
2026,1106,1923
2001,1161,2013
1995,1114,1968
2012,1155,1872
2021,1168,1918
2011,1200,2019
2013,1200,1985
2018,1173,1887
2021,1198,1923
2005,1231,2016
2005,1178,1975
2026,1213,1882
2023,1216,1921
2014,1286,2003
1995,1254,1963
2009,1229,1873
2032,1315,1926
2016,1296,2021
2001,1295,1975
2027,1294,1885
2033,1322,1926
2021,1341,2016
2002,1333,1968
2017,1292,1866
2023,1355,1904
2013,1389,1999
2007,1396,1979
2033,1387,1888
2028,1411,1919
2013,1440,2005
2016,1439,1974
2016,1424,1873
2026,1479,1913
2007,1473,2009
2003,1499,1968
2022,1437,1877
2023,1487,1919
1995,1565,2000
1985,1566,1962
2015,1493,1874
2017,1562,1914
2007,1599,2009
2002,1556,1961
2012,1520,1865
2018,1535,1901
2010,1597,2001
2002,1609,1959
2023,1573,1877
2015,1590,1904
2004,1648,1999
2000,1619,1961
2021,1639,1870
2021,1663,1902
1996,1706,1985
2000,1669,1951
2022,1644,1862
2027,1709,1904
2015,1706,1984
2002,1710,1955
2031,1717,1869
2019,1730,1904
2005,1755,2000
1999,1747,1953
2015,1748,1861
2019,1773,1894
2011,1792,1988
2000,1797,1945
2017,1794,1859
2015,1839,1890
1986,1840,1973
1987,1815,1936
2022,1844,1866
2027,1878,1902
2002,1816,1984
1986,1871,1936
2003,1867,1847
2016,1888,1889
1995,1888,1984
1985,1850,1933
2004,1891,1846
2003,1777,1875
1996,1918,1973
2000,1920,1942
2019,1910,1852
2029,1921,1898
2010,1945,1986
2002,1938,1935
2012,1935,1844
2023,1935,1895
2014,2045,1984
1995,1962,1936
2007,1958,1846
2012,2013,1878
1998,1996,1982
1998,1957,1949
2018,1968,1862
2026,2000,1899
2001,2002,1993
1999,2000,1947
2010,1998,1851
2011,2042,1884
2000,2037,1983
2000,2025,1949
2013,1936,1847
2012,2067,1887
2000,2027,1984
1984,2035,1939
2007,2032,1843
2020,2047,1898
2014,2091,1995
2000,2037,1943
2017,2059,1851
2010,2082,1876
2002,2130,1984
1999,1987,1941
2020,2073,1855
2017,2101,1883
1999,2096,1968
1985,2086,1935
2002,2090,1848
2023,2111,1883
2001,2120,1974
2003,2110,1935
2014,2107,1838
2007,2107,1875
2013,2133,1987
2000,2127,1942
2019,2102,1839
2019,2141,1872
2003,2090,1970
2000,2119,1940
2025,2115,1849
2029,2082,1879
2005,2179,1968
