1830,1840,1734
1831,1841,1793
1837,1823,1741
1834,1840,1744
1834,1898,1839
1829,1949,1870
1827,1825,1750
1828,1769,1689
1830,1839,1789
1837,1921,1801
1828,1831,1743
1834,1871,1761
1831,1872,1815
1830,1869,1827
1835,1819,1793
1831,1808,1762
1827,1929,1810
1829,1909,1855
1834,1821,1778
1838,1835,1719
1848,1846,1773
1842,1815,1811
1867,1886,1796
1897,1818,1748
1895,1872,1793
1878,1927,1841
1831,1871,1795
1846,1808,1747
1935,1850,1824
1947,1877,1862
1859,1789,1763
1808,1833,1677
1855,1839,1774
1889,1838,1840
1920,1819,1786
1923,1840,1775
1919,1845,1823
1861,1839,1808
1840,1811,1732
1886,1794,1731
1927,1905,1798
1946,1856,1838
1920,1806,1803
1894,1828,1744
1930,1824,1776
1869,1815,1827
1871,1787,1798
1897,1857,1752
1901,1847,1805
1909,1829,1826
1893,1811,1786
1938,1840,1773
1947,1852,1820
1897,1819,1808
1856,1765,1739
1855,1775,1715
1881,1817,1779
1917,1911,1847
1885,1809,1783
1962,1840,1733
1906,1862,1744
1856,1827,1775
1840,1779,1757
1850,1895,1776
1894,1845,1808
1919,1815,1835
1904,1835,1775
1905,1804,1731
1904,1825,1811
1904,1840,1854
1883,1808,1757
1872,1813,1711
1901,1840,1764
1899,1826,1819
1919,1809,1798
1926,1837,1789
1915,1828,1801
1881,1789,1796
1870,1791,1753
1889,1790,1756
1886,1807,1771
1850,1794,1765
1875,1791,1737
1874,1808,1748
1879,1830,1799
1882,1849,1811
1878,1808,1769
1871,1808,1735
1898,1807,1789
1910,1813,1819
1914,1802,1770
1865,1763,1703
1826,1795,1787
1875,1808,1841
1895,1799,1787
1911,1811,1782
1920,1815,1758
1881,1795,1774
1808,1780,1744
1812,1787,1743
1862,1807,1804
1868,1826,1813
1882,1808,1751
1871,1808,1754
1859,1792,1776
1851,1764,1776
1872,1785,1766
1878,1796,1765
1845,1809,1792
1840,1821,1802
1840,1793,1766
1841,1798,1746
1858,1839,1770
1886,1857,1847
1855,1808,1785
1862,1794,1719
1829,1805,1739
1821,1763,1776
1851,1792,1770
1857,1785,1735
1856,1803,1790
1885,1822,1807
1846,1794,1717
1839,1781,1744
1795,1775,1770
1842,1798,1799
1815,1770,1746
1824,1779,1738
1870,1826,1788
1858,1802,1781
1846,1770,1745
1826,1759,1730
1843,1792,1783
1861,1806,1811
1823,1805,1772
1840,1813,1764
1829,1797,1782
1832,1793,1807
1815,1776,1754
1836,1795,1746
1856,1810,1788
1846,1808,1803
1824,1799,1776
1819,1798,1754
1856,1815,1806
1861,1808,1828
1831,1777,1757
1839,1771,1723
1835,1795,1770
1818,1801,1776
1783,1767,1744
1817,1765,1722
1843,1798,1783
1843,1809,1827
1850,1812,1789
1840,1793,1758
1835,1809,1799
1865,1823,1840
1863,1823,1785
1840,1773,1697
1809,1790,1788
1808,1792,1824
1818,1779,1776
1808,1786,1739
1825,1809,1786
1840,1809,1831
1820,1777,1787
1821,1795,1744
1842,1797,1799
1845,1819,1835
1833,1797,1787
1810,1787,1747
1819,1795,1794
1840,1792,1831
1846,1792,1791
1831,1808,1771
1837,1822,1808
1830,1811,1819
1847,1813,1794
1847,1776,1745
1847,1786,1789
1828,1797,1840
1797,1771,1776
1766,1750,1718
1814,1795,1791
1870,1818,1849
1843,1797,1798
1821,1776,1771
1830,1796,1792
1823,1801,1807
1809,1786,1773
1810,1777,1754
1849,1819,1818
1856,1821,1856
1846,1807,1812
1811,1803,1773
1830,1812,1808
1847,1802,1839
1840,1798,1808
1830,1799,1778
1834,1799,1810
1845,1812,1843
1840,1794,1799
1823,1781,1762
1843,1806,1811
1862,1830,1854
1846,1811,1808
1818,1797,1756
1809,1793,1801
1799,1802,1838
1807,1794,1808
1754,1800,1771
1774,1818,1808
1785,1808,1859
1702,1808,1822
1801,1821,1802
1901,1863,1889
1922,1857,1895
1819,1783,1771
1757,1757,1727
1776,1802,1817
1826,1833,1806
1817,1806,1801
1786,1786,1751
1823,1808,1769
1849,1830,1867
1829,1794,1783
1792,1791,1808
1836,1824,1817
1809,1834,1840
1628,1822,1843
961,1814,1760
0,1813,1866
0,1807,1835
0,1796,1793
0,1803,1776
0,1807,1786
0,1808,1808
0,1795,1802
0,1791,1784
0,1814,1829
0,1834,1852
803,1807,1799
1950,1831,1781
2138,1867,1851
1891,1831,1887
1765,1741,1735
1805,1770,1741
1813,1823,1815
1857,1825,1854
1872,1744,1756
1846,1776,1745
1823,1799,1825
1830,1805,1836
1759,1787,1807
1826,1813,1788
1856,1828,1809
1847,1808,1827
1839,1793,1767
1825,1807,1739
1835,1846,1841
1829,1833,1863
1837,1776,1750
1835,1775,1795
1830,1811,1815
1835,1811,1855
1829,1795,1810
1827,1818,1803
1832,1831,1857
1829,1809,1819
1835,1790,1778
1838,1808,1809
1844,1835,1808
1827,1831,1830
1818,1808,1801
1815,1792,1734
1835,1811,1789
1855,1837,1866
1819,1792,1775
1808,1797,1731
1829,1819,1767
1861,1813,1840
1818,1792,1776
1813,1798,1783
1847,1822,1822
1861,1840,1862
1857,1808,1826
1884,1827,1792
1874,1833,1840
1829,1808,1808
1790,1754,1758
1805,1734,1739
1860,1822,1778
1918,1851,1866
1850,1813,1846
1785,1779,1731
1820,1805,1785
1850,1808,1840
1837,1791,1782
1819,1787,1741
1853,1817,1841
1862,1829,1873
1825,1771,1757
1827,1791,1735
1853,1808,1784
1881,1838,1857
1879,1862,1807
1823,1794,1756
1821,1787,1814
1813,1804,1809
1813,1795,1759
1840,1805,1762
1866,1826,1834
1869,1840,1856
1840,1808,1853
1838,1808,1762
1870,1839,1812
1873,1850,1870
1845,1821,1797
1840,1803,1770
1871,1825,1872
1869,1841,1950
1865,1840,1798
1845,1825,1740
1845,1825,1822
1861,1831,1831
1869,1842,1820
1856,1830,1802
1874,1851,1968
1841,1821,1839
1806,1790,1703
1847,1827,1761
1883,1851,1808
1823,1799,1843
1809,1802,1774
1819,1809,1838
1847,1831,1792
1855,1828,1792
1841,1821,1770
1851,1840,1762
1847,1851,1806
1836,1843,1847
1840,1841,1817
1840,1838,1826
1842,1838,1856
1831,1833,1883
1825,1821,1809
1833,1827,1751
1888,1879,1869
1892,1877,2001
1806,1808,1758
1805,1806,1680
1837,1827,1766
1833,1838,1838
1831,1837,1815
1817,1819,1759
1839,1841,1837
1827,1838,1834
1818,1827,1777
1838,1829,1786
1827,1819,1777
1833,1836,1847
1828,1825,1827
1845,1840,1759
1877,1872,1875
1843,1840,1856
1778,1778,1758
1776,1790,1783
1822,1829,1789
1838,1840,1829
1840,1827,1840
1837,1846,1806
1849,1862,1808
1850,1856,1904
1849,1841,1843
1783,1790,1744
1808,1808,1841
1841,1827,1856
1840,1825,1795
1818,1820,1761
1840,1853,1749
1847,1854,1868
1840,1840,1823
1847,1856,1809
1843,1850,1828
1823,1830,1840
1822,1826,1808
1822,1825,1744
1840,1841,1831
1845,1854,1865
1846,1840,1829
1866,1855,1816
1856,1859,1840
1841,1833,1851
1817,1803,1786
1819,1808,1765
1843,1842,1825
1859,1845,1865
1844,1839,1822
1841,1839,1789
1863,1862,1837
1858,1853,1858
1850,1831,1822
1846,1829,1789
1883,1875,1851
1890,1853,1875
1835,1807,1793
1842,1822,1778
1855,1837,1823
1819,1803,1814
1826,1798,1788
1840,1811,1782
1840,1821,1818
1858,1828,1859
1855,1847,1835
1841,1829,1782
1869,1831,1819
1839,1852,1859
1805,1821,1807
1851,1816,1774
1871,1851,1835
1854,1852,1862
1872,1834,1817
1856,1840,1796
1856,1875,1861
1901,1853,1866
1807,1815,1795
1829,1831,1783
1822,1867,1840
1838,1867,1873
1833,1862,1841
1833,1851,1808
1853,1849,1840
1827,1820,1837
1826,1818,1805
1824,1823,1783
1862,1852,1852
1859,1857,1871
1840,1840,1810
1825,1840,1795
1865,1865,1858
1883,1865,1885
1850,1856,1837
1833,1850,1802
1849,1862,1846
1856,1861,1883
1843,1842,1831
1839,1839,1793
1840,1861,1851
1856,1851,1879
1872,1840,1824
1840,1841,1795
1852,1866,1835
1850,1855,1883
1850,1835,1825
1843,1851,1808
1893,1867,1840
1840,1867,1873
1823,1838,1814
1839,1840,1810
1854,1866,1869
1855,1870,1876
1829,1857,1808
1856,1853,1799
1847,1843,1824
1819,1840,1861
1831,1840,1808
1808,1860,1810
1866,1872,1869
1859,1862,1886
1839,1837,1824
1824,1829,1788
1808,1845,1819
1783,1823,1807
1808,1777,1775
1791,1791,1786
1877,1815,1850
1801,1808,1853
1737,1778,1767
1767,1777,1712
1774,1781,1744
1764,1779,1834
1751,1734,1796
1742,1719,1748
1735,1729,1782
1709,1744,1790
1700,1712,1710
1753,1715,1699
1755,1731,1761
1748,1713,1779
1712,1693,1709
1697,1703,1667
1727,1728,1734
1735,1732,1774
1717,1699,1715
1724,1697,1700
1743,1724,1771
1728,1725,1776
1677,1712,1698
1691,1744,1665
1712,1719,1737
1710,1680,1790
1682,1654,1730
1728,1698,1735
1847,1723,1776
1702,1695,1774
1683,1664,1722
1702,1686,1698
1703,1726,1731
1663,1712,1766
1680,1619,1715
1713,1633,1647
1724,1666,1714
1680,1681,1813
1661,1681,1775
1739,1708,1717
1761,1715,1775
1673,1684,1808
1648,1674,1763
1708,1669,1687
1743,1694,1750
1714,1709,1855
1705,1693,1797
1733,1695,1693
1745,1713,1761
1724,1686,1817
1619,1687,1758
1693,1680,1653
1754,1641,1723
1686,1700,1842
1711,1787,1803
1744,1680,1682
1709,1642,1691
1647,1659,1809
1639,1659,1779
1680,1664,1701
1746,1664,1797
1672,1665,1870
1667,1659,1726
1661,1643,1571
1692,1648,1661
1681,1683,1808
1664,1677,1787
1687,1680,1691
1728,1739,1722
1738,1675,1872
1677,1598,1804
1710,1595,1678
1693,1667,1723
1591,1648,1810
1648,1725,1775
1730,1884,1755
1690,1680,1849
1585,1535,1797
1515,1411,1625
1610,1475,1688
1713,1648,1907
1613,1634,1909
1598,1530,1778
1607,1600,1667
1680,1637,2414
1646,1648,4095
1584,1600,3144
1569,1557,1701
1661,1582,1346
1680,1648,1610
1650,1655,1762
1626,1596,1658
1535,1587,1628
1529,1609,1723
1456,1612,1686
1616,1616,1613
1627,1647,1678
1535,1628,1749
1490,1598,1664
1572,1648,1563
1617,1674,1724
1521,1625,1782
1485,1581,1723
1535,1599,1635
1568,1628,1673
1535,1658,1779
1553,1629,1742
1567,1614,1658
1602,1635,1724
1555,1637,1798
1483,1603,1701
1521,1601,1595
1602,1638,1667
1563,1646,1776
1495,1628,1737
1525,1611,1623
1597,1657,1733
1574,1669,1813
1534,1639,1717
1566,1647,1599
1632,1683,1719
1653,1680,1847
1531,1616,1701
1535,1636,1597
1627,1699,1723
1607,1707,1821
1571,1671,1731
1632,1695,1674
1681,1737,1766
1649,1744,1846
1628,1734,1803
1670,1749,1680
1696,1751,1736
1638,1773,1841
1623,1776,1769
1695,1760,1655
1723,1747,1753
1712,1759,1897
1610,1748,1769
1647,1727,1645
1719,1774,1766
1719,1805,1872
1654,1740,1757
1648,1744,1648
1701,1782,1767
1712,1813,1903
1744,1827,1869
1739,1801,1725
1765,1808,1776
1715,1808,1843
1678,1824,1793
1690,1762,1643
1692,1774,1708
1680,1791,1915
1711,1799,1904
1776,1845,1782
1757,1823,1807
1710,1803,1955
1728,1831,1995
1835,1867,1766
1811,1840,1735
1729,1798,1798
1719,1821,1782
1701,1825,1701
1777,1880,1762
1839,1886,1929
1786,1851,1858
1728,1830,1681
1798,1905,1749
1840,1904,1901
1808,1868,1872
1778,1854,1756
1792,1861,1776
1746,1865,1840
1803,1865,1827
1862,1882,1718
1761,1855,1751
1723,1908,1942
1749,1888,1899
1788,1856,1749
1907,1947,1905
1834,1875,1913
1771,1869,1814
1751,1886,1691
1734,1883,1730
1793,1927,1911
1846,1930,1934
1843,1918,1753
1904,1964,1833
1756,1877,1968
1743,1906,1901
1815,1945,1786
1867,1975,1814
1802,1951,1872
1792,1979,1862
1803,1941,1776
1872,1988,1777
1840,1986,1937
1748,1941,1929
1746,1945,1799
1899,2006,1861
1875,2015,1978
1801,1942,1872
1872,1995,1789
1923,2006,1838
1758,1968,1981
1754,1998,1935
1872,1999,1849
1862,1985,1843
1854,2000,1918
1874,2003,1867
1895,2037,1791
1890,2023,1872
1755,1939,1926
1787,1932,1871
1833,2007,1829
1889,2079,1861
1835,1995,1955
1869,1969,1895
1847,1968,1765
1858,1974,1792
1827,2001,1903
1856,2061,1905
1867,1983,1799
1870,2000,1872
1839,2013,1999
1855,2000,1922
1843,1983,1796
1943,2119,1948
1908,2079,1920
1829,1948,1855
1808,1946,1792
1856,2043,1837
1923,2075,1933
1807,1995,1899
1794,1978,1755
1877,2017,1855
1883,2016,1973
1922,2053,1980
1942,2080,1823
1861,2000,1770
1817,1958,1839
1823,1965,1881
1857,2001,1788
1897,2039,1853
1845,2017,1953
1840,1984,1902
1951,2000,1865
1901,1995,1849
1808,2018,1840
1935,2030,1905
1877,2022,1793
1808,1955,1787
1790,2015,1872
1872,1983,1914
1919,1987,1817
1901,2085,1907
1843,1953,1983
1831,1977,1891
1889,1968,1742
1933,2026,1841
1811,1962,1877
1796,1986,1887
1877,1947,1789
1947,1989,1831
1917,1955,1920
1863,1941,1905
1869,1950,1765
1904,1975,1801
1893,2005,1994
1814,1982,1872
1834,1878,1600
1886,1959,1799
1893,1948,1980
1857,1935,1896
1873,1956,1795
1894,1999,1877
1903,1958,1936
1819,1923,1872
1869,1947,1785
1898,1999,1807
1899,1948,1869
1808,1889,1849
1797,1915,1773
1850,1918,1807
1888,1923,1951
1909,1931,1909
1999,1968,1751
1898,1937,1811
1798,1968,1971
1834,1951,1935
1888,1931,1775
1909,1946,1818
1917,1959,1967
1891,1943,1883
1829,1906,1665
1872,1890,1761
1839,1897,1895
1840,1878,1878
1904,1904,1776
1904,1907,1793
1861,1969,1939
1911,1967,1967
1868,1905,1778
1873,1914,1750
1925,1921,1897
1888,1905,1925
1872,1814,1776
1874,1877,1754
1851,1931,1947
1827,1890,1893
1867,1882,1771
1951,1890,1830
1981,1914,1962
1900,1871,1931
1831,1893,1754
1858,1873,1783
1873,1895,1927
1878,1889,1872
1890,1904,1776
1953,1922,1856
1898,1898,1970
1847,1846,1877
1881,1826,1735
1936,1927,1817
1920,1907,1969
1859,1823,1892
1915,1927,1738
1938,1934,1844
1854,1850,1898
1874,1823,1846
1921,1882,1833
1951,1895,1857
1877,1867,1927
1865,1862,1886
1885,1855,1776
1936,1857,1803
1872,1872,1919
1875,1875,1872
1968,1887,1786
1906,1859,1828
1838,1855,1914
1843,1840,1865
1943,1872,1765
2025,1895,1830
1924,1847,1984
1881,1882,1938
1883,1899,1783
1953,1830,1808
1893,1878,1920
1829,1828,1893
1936,1878,1743
1967,1833,1821
1921,1851,1964
1856,1843,1907
1925,1833,1737
1981,1871,1808
1909,1875,1998
1839,1845,1876
1891,1823,1735
2027,1875,1815
1939,1844,1968
1824,1866,1887
1888,1847,1774
1935,1845,1877
1882,1903,1937
1854,1857,1840
1921,1906,1776
1937,1933,1849
1923,1856,1936
1933,1853,1887
1919,1883,1757
1940,1877,1821
1920,1918,1973
1966,1852,1927
1947,1835,1682
1858,1837,1766
1830,1843,1940
1860,1898,1935
1936,1846,1776
1951,1776,1806
1895,1841,1920
1879,1827,1877
1968,1890,1847
1941,1848,1829
1878,1825,1919
1872,1808,1840
1936,1842,1712
2018,1819,1788
1946,1815,1952
1873,1815,1909
1920,1840,1803
1913,1830,1793
1908,1811,1918
1898,1836,1914
1934,1855,1817
1915,1919,1817
1904,1838,1964
1899,1823,1891
1895,1816,1717
1954,1848,1787
1968,1826,1920
1910,1818,1872
1961,1840,1779
1968,1806,1829
1840,1802,1949
1827,1747,1863
1901,1799,1744
1970,1896,1845
1941,1837,1943
1841,1815,1871
1891,1807,1794
1957,1838,1840
2006,1818,1889
1970,1820,1822
1883,1802,1787
1893,1843,1871
1857,1826,1962
1886,1827,1873
1881,1805,1713
1966,1842,1776
1979,1845,1936
1872,1781,1856
1900,1811,1805
1959,1815,1831
1936,1843,1898
1922,1807,1832
1857,1808,1774
1851,1791,1805
1898,1806,1877
1909,1808,1811
1982,1835,1829
1997,1837,1907
1871,1836,1921
1841,1788,1780
1967,1830,1754
1904,1834,1755
1854,1798,1821
1853,1733,1717
1889,1798,1762
1934,1867,1871
2064,1855,1947
1886,1779,1821
1815,1808,1747
1920,1884,1843
1921,1821,1808
1856,1745,1791
1802,1759,1723
1875,1814,1791
1904,1834,1922
1922,1802,1815
1903,1840,1741
1923,1868,1776
1895,1792,1886
1861,1776,1909
1937,1819,1718
2070,1913,1825
1922,1815,1867
1725,1751,1831
1787,1811,1749
2006,1870,1670
1971,1767,1853
1776,1773,1855
1776,1795,1786
1921,1830,1827
1957,1875,1965
1851,1785,1779
1925,1766,1665
1895,1813,1729
1858,1810,1844
1769,1780,1849
1825,1787,1719
1936,1823,1760
1897,1842,1904
1890,1870,1926
1935,1823,1791
1899,1778,1744
1875,1791,1827
1802,1783,1801
1803,1827,1745
1999,1840,1755
1907,1808,1842
1799,1778,1835
1872,1792,1712
1930,1830,1851
1814,1803,1918
1818,1823,1840
1869,1846,1735
1993,1827,1739
1911,1796,1810
1744,1786,1845
1749,1782,1717
1954,1869,1823
1943,1830,1935
1817,1770,1814
1872,1830,1726
1913,1849,1787
1866,1823,1938
1805,1790,1872
1849,1806,1751
1887,1839,1729
1908,1817,1847
1840,1794,1867
1872,1821,1739
1935,1840,1765
1835,1784,1856
1776,1743,1842
1871,1837,1791
1940,1913,1844
1867,1809,1825
1813,1787,1827
1844,1802,1772
1871,1844,1822
1823,1831,1916
1797,1813,1872
1904,1850,1726
1935,1857,1734
1909,1791,1937
1861,1808,1889
1843,1835,1758
1838,1809,1788
1798,1791,1836
1873,1818,1849
1953,1893,1856
1871,1821,1812
1862,1809,1848
1813,1808,1813
1834,1834,1734
1875,1828,1795
1857,1801,1894
1909,1840,1930
1871,1798,1782
1813,1801,1781
1807,1823,1872
1843,1792,1872
1938,1786,1719
1933,1840,1793
1837,1830,1938
1791,1811,1934
1806,1820,1766
1842,1803,1724
1873,1857,1904
1875,1840,1908
1921,1818,1791
1878,1836,1796
1839,1837,1907
1803,1828,1874
1898,1808,1698
1913,1808,1777
1844,1824,1927
1811,1838,1934
1840,1841,1787
1855,1838,1805
1856,1822,1904
1847,1821,1862
1917,1830,1681
1873,1823,1758
1821,1806,1958
1796,1793,1919
1840,1819,1776
1932,1851,1745
1963,1885,1958
1873,1846,1936
1820,1793,1745
1827,1797,1730
1841,1857,1920
1906,1853,1887
1871,1792,1667
1889,1823,1803
1858,1829,2003
1822,1826,1911
1840,1840,1727
1965,1861,1795
1878,1843,1891
1789,1838,1881
1828,1844,1779
1908,1808,1789
1899,1819,1905
1879,1856,1872
1871,1839,1748
1898,1856,1846
1842,1819,1934
1783,1782,1847
1861,1826,1744
1933,1887,1859
1888,1874,1966
1817,1808,1797
1819,1827,1717
1819,1834,1795
1859,1847,1950
1887,1859,1933
1838,1833,1757
1889,1854,1806
1875,1823,1899
1818,1811,1826
1825,1850,1743
1889,1898,1883
1907,1875,1966
1875,1850,1840
1883,1808,1725
1872,1853,1810
1823,1899,1934
1826,1869,1852
1854,1780,1757
1872,1815,1840
1840,1834,1917
1842,1827,1871
1871,1871,1829
1872,1870,1827
1822,1823,1869
1830,1840,1869
1918,1845,1779
1890,1867,1807
1808,1846,1904
1831,1809,1853
1872,1836,1778
1943,1875,1834
1854,1840,1922
1777,1810,1863
1889,1834,1727
1907,1856,1754
1850,1835,1910
1829,1824,1903
1856,1818,1782
1890,1866,1840
1899,1869,1957
1798,1826,1857
1811,1815,1715
1936,1869,1759
1882,1853,1893
1807,1831,1924
1804,1819,1794
1870,1858,1798
1856,1835,1847
1845,1824,1840
1938,1875,1824
1872,1870,1847
1795,1845,1893
1792,1850,1860
1872,1852,1745
1883,1840,1777
1873,1847,1909
1846,1845,1871
1875,1874,1775
1872,1843,1808
1883,1826,1867
1806,1824,1811
1853,1861,1790
1891,1850,1817
1879,1842,1888
1854,1855,1899
1824,1856,1751
1831,1843,1769
1822,1839,1889
1863,1828,1843
1855,1841,1709
1850,1868,1802
1858,1866,1951
1844,1861,1937
1873,1865,1793
1853,1853,1775
1859,1827,1882
1821,1837,1867
1811,1803,1697
1889,1862,1786
1840,1848,1894
1828,1814,1869
1842,1851,1749
1867,1873,1807
1840,1828,1867
1842,1853,1886
1856,1858,1739
1957,1869,1797
1819,1841,1904
1772,1811,1863
1858,1826,1744
1869,1841,1777
1817,1846,1872
1808,1828,1855
1872,1847,1783
1917,1895,1819
1840,1862,1894
1804,1813,1872
1858,1809,1728
1941,1874,1795
1921,1840,1897
1790,1794,1830
1762,1811,1712
1841,1851,1696
1863,1814,1911
1815,1831,1927
1814,1827,1726
1859,1841,1787
1818,1825,1859
1851,1791,1818
1874,1824,1762
1860,1817,1781
1835,1855,1886
1744,1802,1805
1831,1834,1717
1832,1840,1822
1808,1794,1904
1866,1822,1872
1818,1815,1718
1872,1824,1767
1885,1850,1899
1893,1839,1889
1799,1856,1712
1807,1840,1808
1873,1808,1897
1869,1821,1851
1905,1814,1733
1919,1821,1714
1729,1845,1947
1738,1822,1923
1935,1845,1792
1858,1830,1806
1783,1750,1744
1935,1840,1897
1922,1847,1742
1867,1758,1629
1732,1840,1965
1744,1815,1997
1818,1821,1850
1914,1811,1652
1856,1828,1869
1821,1802,1893
1858,1833,1762
1872,1858,1808
1830,1839,1872
1810,1804,1840
1915,1847,1786
1888,1837,1836
1803,1827,1933
1911,1856,1878
1861,1869,1711
1875,1825,1813
1849,1798,1860
1755,1762,1854
1808,1808,1769
1859,1837,1760
1872,1808,1855
1905,1849,1881
1786,1849,1807
1838,1850,1808
1840,1813,1906
1887,1812,1909
1899,1872,1821
1786,1837,1731
1776,1780,1857
1834,1806,1887
1857,1804,1755
1853,1859,1738
1808,1844,1891
1782,1781,1919
1808,1795,1781
1842,1822,1786
1853,1885,1881
1898,1825,1865
1858,1840,1770
1785,1840,1792
1776,1787,1865
1801,1791,1891
1872,1839,1835
1889,1849,1799
1802,1830,1872
1763,1806,1841
1817,1835,1727
1845,1855,1815
1824,1852,1920
1863,1849,1893
1835,1808,1783
1799,1808,1787
1771,1795,1874
1808,1829,1871
1877,1856,1788
1823,1850,1776
1824,1838,1914
1877,1827,1872
1827,1818,1730
1872,1834,1801
1776,1811,1904
1808,1814,1869
1859,1851,1776
1819,1850,1809
1807,1831,1907
1815,1813,1888
1853,1872,1759
1854,1846,1765
1798,1826,1884
1754,1830,1904
1819,1849,1808
1875,1849,1744
1871,1849,1934
1811,1812,1875
1845,1843,1759
1831,1855,1773
1808,1830,1894
1791,1828,1893
1830,1831,1761
1910,1862,1801
1855,1852,1901
1853,1856,1875
1883,1834,1741
1831,1833,1751
1759,1860,1887
1761,1830,1874
1854,1790,1730
1835,1819,1789
1847,1866,1975
1808,1893,1942
1815,1811,1715
1881,1846,1702
1854,1859,1855
1767,1820,1856
1814,1853,1809
1861,1863,1776
1907,1883,1854
1830,1791,1855
1730,1822,1792
1759,1846,1791
1782,1821,1866
1803,1824,1845
1840,1857,1774
1889,1872,1827
1814,1872,1918
1805,1860,1893
1872,1871,1749
1887,1847,1746
1826,1849,1919
1808,1871,1913
1809,1845,1738
1864,1840,1776
1867,1872,1959
1803,1842,1872
1847,1846,1714
1880,1836,1722
1858,1840,1874
1785,1841,1922
1823,1847,1797
1864,1849,1771
1915,1867,1904
1904,1847,1907
1886,1840,1792
1840,1856,1774
1823,1873,1886
1878,1847,1876
1912,1817,1731
1809,1842,1769
1830,1846,1919
1777,1826,1881
1814,1809,1752
1867,1871,1808
1846,1856,1904
1776,1835,1884
1840,1838,1745
1920,1856,1786
1861,1859,1894
1909,1851,1899
1835,1845,1799
1744,1836,1777
1865,1841,1878
1895,1856,1883
1848,1818,1786
1867,1840,1823
1845,1815,1878
1797,1829,1857
1862,1863,1808
1968,1863,1775
1907,1872,1886
1808,1840,1879
1808,1840,1793
1851,1859,1808
1899,1855,1892
1841,1839,1895
1789,1806,1776
1778,1821,1797
1822,1836,1915
1860,1855,1882
1901,1819,1726
1935,1840,1739
1871,1857,1941
1823,1856,1889
1863,1860,1820
1838,1850,1839
1826,1853,1899
1811,1839,1891
1870,1850,1804
1907,1861,1793
1872,1854,1933
1798,1811,1843
1808,1837,1744
1870,1872,1790
1878,1834,1829
1826,1872,1897
1877,1837,1798
1833,1813,1809
1866,1833,1895
1862,1845,1886
1885,1847,1743
1872,1881,1787
1782,1857,1951
1770,1820,1867
1839,1812,1750
1895,1898,1765
1901,1888,1902
1834,1861,1872
1776,1776,1805
1807,1834,1825
1818,1860,1882
1810,1817,1833
1860,1831,1760
1856,1872,1829
1869,1883,1957
1855,1834,1802
1787,1814,1711
1851,1844,1805
1838,1840,1919
1884,1818,1902
1830,1855,1755
1858,1869,1782
1893,1846,1920
1919,1844,1903
1834,1839,1761
1860,1853,1819
1808,1810,1871
1835,1818,1841
1872,1862,1749
1850,1857,1808
1790,1812,1923
1810,1815,1843
1858,1855,1739
1865,1859,1808
1831,1857,1932
1857,1869,1891
1869,1847,1721
1825,1840,1789
1789,1838,1910
1802,1814,1872
1863,1840,1794
1855,1863,1803
1791,1847,1904
1789,1838,1907
1888,1861,1766
1895,1881,1762
1867,1872,1871
1776,1834,1904
1786,1840,1774
1851,1899,1798
1820,1819,1854
1834,1808,1917
1843,1776,1783
1867,1856,1770
1805,1870,1904
1786,1861,1882
1826,1822,1757
1917,1874,1772
1818,1813,1855
1791,1831,1887
1794,1843,1792
1840,1875,1805
1872,1847,1909
1808,1818,1877
1806,1831,1786
1862,1858,1776
1834,1847,1874
1801,1809,1869
1793,1803,1731
1842,1866,1785
1915,1907,1937
1811,1819,1853
1820,1842,1777
1904,1855,1712
1827,1827,1909
1744,1840,1894
1797,1863,1783
1869,1846,1789
1901,1842,1872
1861,1841,1871
1819,1847,1741
1840,1872,1823
1792,1831,1923
1785,1813,1847
1926,1889,1819
1928,1895,1803
1794,1840,1904
1773,1840,1906
1837,1857,1806
1856,1867,1765
1830,1839,1843
1859,1841,1904
1851,1833,1777
1879,1872,1784
1851,1862,1872
1793,1834,1843
1754,1824,1731
1891,1893,1845
1899,1863,1933
1776,1835,1910
1770,1838,1763
1841,1840,1757
1846,1855,1911
1827,1865,1930
1867,1857,1765
1942,1878,1777
1835,1886,1946
1776,1872,1931
1835,1869,1749
1853,1842,1760
1812,1840,1915
1846,1862,1948
1843,1838,1726
1858,1852,1734
1847,1863,1903
1833,1879,1899
1877,1872,1792
1871,1887,1825
1827,1831,1858
1808,1800,1834
1798,1818,1734
1873,1849,1786
1862,1869,1939
1827,1856,1927
1862,1838,1772
1867,1844,1725
1818,1842,1874
1776,1840,1913
1859,1873,1813
1921,1888,1817
1825,1863,1898
1750,1834,1841
1811,1856,1753
1929,1865,1792
1889,1861,1904
1761,1827,1885
1789,1844,1777
1871,1857,1771
1909,1853,1913
1845,1871,1904
1762,1826,1728
1822,1852,1741
1808,1840,1882
1817,1846,1875
1877,1859,1741
1916,1888,1779
1840,1852,1919
1838,1837,1925
1824,1842,1775
1815,1871,1761
1898,1857,1856
1836,1856,1923
1776,1829,1706
1843,1847,1745
1886,1899,1978
1825,1872,1920
1783,1829,1755
1843,1846,1712
1883,1854,1808
1801,1837,1922
1781,1827,1828
1862,1881,1776
1918,1877,1827
1799,1814,1813
1759,1821,1739
1866,1894,1818
1842,1874,1932
1779,1828,1882
1834,1845,1781
1909,1915,1765
1867,1846,1829
1840,1815,1907
1831,1840,1795
1808,1847,1725
1830,1869,1861
1853,1865,1895
1819,1871,1820
1840,1863,1776
1862,1856,1883
1874,1854,1895
1841,1849,1769
1815,1838,1748
1761,1793,1870
1794,1886,1879
1879,1883,1785
1884,1929,1774
1873,1846,1872
1840,1840,1887
1827,1901,1766
1821,1839,1756
1841,1874,1834
1849,1854,1872
1827,1823,1824
1829,1902,1819
1806,1826,1887
1774,1814,1871
1822,1821,1751
1904,1863,1840
1878,1887,1950
1811,1803,1851
1856,1827,1743
1799,1827,1712
1782,1840,1844
1762,1812,1847
1831,1858,1811
1936,1873,1839
1915,1840,1879
1754,1815,1826
1765,1869,1727
1835,1882,1806
1804,1873,1917
1840,1863,1949
1841,1822,1729
1828,1866,1674
1869,1835,1904
1821,1809,1920
1790,1817,1753
1826,1853,1779
1875,1863,1903
1891,1822,1809
1819,1808,1786
1805,1840,1792
1853,1852,1904
1850,1814,1869
1827,1815,1763
1808,1830,1778
