2294,1754,1823
2384,1969,2004
2322,2001,1853
2196,2018,1680
2161,1904,1744
2142,1713,1821
2176,1712,1725
2261,1773,1735
2300,1858,1872
2205,1955,1816
2178,1947,1725
2237,1901,1701
2270,1937,1860
2223,1932,1870
2192,1901,1782
2248,1858,1724
2287,1908,1873
2183,2003,1809
2135,1926,1715
2237,1932,1747
2266,2095,1837
2155,2032,1842
2119,1791,1744
2187,1799,1738
2219,1986,1919
2161,2015,1920
2157,1889,1775
2205,1815,1717
2206,1926,1823
2171,2033,1965
2163,2081,1798
2175,1860,1709
2181,1855,1819
2151,1955,1928
2125,1888,1743
2180,2031,1712
2177,2018,1877
2103,1822,1813
1715,1842,1788
1447,1841,1723
1715,1919,1794
1870,1918,1855
1874,1904,1757
1840,1888,1707
1829,1887,1810
1829,1942,1883
1830,1925,1781
1835,1922,1712
1829,2033,1811
1830,1916,1891
1834,1787,1744
1829,1824,1674
1830,1919,1798
1835,1965,1889
1840,1997,1819
1837,1863,1694
1834,1850,1794
1836,1883,1851
1830,1871,1776
1831,1873,1705
1837,1935,1863
1835,1967,1870
1828,1908,1773
1837,1881,1683
1836,1934,1840
1835,1964,1863
1826,1936,1791
1840,1949,1778
1837,1979,1867
1829,1936,1857
1837,1856,1711
1808,1858,1679
1802,1935,1822
1740,1962,1886
1770,1921,1739
1893,1897,1723
1922,1938,1808
1888,1959,1904
1894,1929,1805
1898,1914,1735
1895,1961,1840
1873,1942,1889
1890,1883,1744
1943,1894,1747
1936,1936,1868
1872,1947,1910
1871,1931,1835
1998,1947,1856
2019,1984,1883
1899,1936,1923
1841,1846,1723
1947,1852,1735
1987,1918,1883
1894,1905,1901
1875,1860,1781
1981,1877,1687
2027,1947,1880
1949,1925,1917
1886,1855,1787
1889,1821,1692
1906,1871,1815
1890,1904,1904
1892,1849,1713
1949,1827,1751
1983,1895,1865
1961,1936,1955
1897,1847,1808
1891,1779,1712
1906,1829,1829
1903,1874,1909
1904,1846,1826
1955,1858,1770
1959,1889,1870
1965,1927,1939
1945,1859,1808
1904,1787,1715
1925,1856,1855
1909,1899,1947
1886,1830,1804
1925,1807,1734
1967,1878,1874
1905,1882,1923
1869,1822,1782
1967,1828,1734
2009,1934,1877
1886,1904,1935
1819,1772,1771
1870,1766,1719
1925,1857,1840
1939,1901,1904
1974,1873,1832
1886,1803,1726
1840,1826,1808
1845,1840,1876
1857,1801,1770
1920,1791,1712
1937,1871,1854
1904,1900,1943
1860,1861,1807
1915,1795,1714
1914,1834,1829
1892,1879,1899
1917,1855,1828
1936,1792,1733
1872,1864,1867
1894,1910,1940
1810,1821,1754
1850,1821,1687
1931,1875,1833
1887,1892,1895
1826,1859,1805
1789,1792,1694
1792,1843,1803
1904,1930,1925
1915,1861,1797
1837,1792,1674
1859,1840,1831
1871,1922,1952
1839,1888,1792
1812,1813,1695
1853,1867,1818
1850,1923,1910
1817,1865,1773
1915,1839,1675
1943,1917,1856
1808,1946,1956
1867,1918,1851
1823,1823,1712
1827,1882,1800
1826,1935,1893
1831,1900,1840
1877,1869,1759
1874,1934,1840
1900,2000,1927
1867,1962,1824
1856,1909,1719
1891,1935,1823
1879,1968,1838
1773,1942,1792
1858,1927,1771
1927,2035,1886
1844,2045,1934
1839,2001,1863
1876,1987,1715
1872,2064,1828
1783,2032,1905
1769,2007,1745
1838,2026,1663
1821,2079,1791
1850,2134,1933
1890,2127,1863
1885,2112,1742
1895,2149,1826
1803,2181,1885
1857,2158,1789
1840,2160,1708
1840,2149,1757
1817,2197,1853
1776,2154,1766
1897,2147,1728
1862,2199,1863
1811,2209,1857
1846,2181,1792
1821,2170,1738
1868,2222,1820
1827,2235,1869
1840,2207,1762
1866,2165,1678
1931,2240,1777
1806,2231,1921
1781,2139,1807
1835,2138,1718
1904,2241,1813
1816,2245,1889
1753,2149,1739
1819,2139,1694
1847,2207,1825
1871,2272,1937
1847,2189,1791
1854,2140,1727
1823,2178,1801
1751,2209,1816
1801,2148,1722
1889,2161,1748
1856,2193,1855
1797,2203,1893
1784,2160,1717
1841,2112,1678
1865,2162,1847
1871,2213,1927
1905,2223,1757
1888,2103,1707
1819,2111,1857
1757,2156,1926
1755,2112,1751
1872,2103,1690
1899,2145,1821
1813,2136,1811
1787,2103,1748
1830,2058,1691
1860,2103,1901
1837,2151,1967
1789,2086,1801
1813,2054,1728
1850,2113,1872
1795,2122,1929
1786,2062,1774
1799,2019,1682
1877,2097,1868
1872,2112,1970
1805,1984,1781
1847,1971,1622
1785,2033,1842
1821,2073,1942
1872,2011,1844
1889,2001,1776
1908,2037,1840
1865,2062,1917
1813,1977,1811
1891,1968,1735
1887,2003,1831
1866,2069,1968
1830,1986,1821
1818,1932,1745
1810,1943,1842
1810,2000,1904
1761,1951,1787
1904,1943,1766
1921,1990,1953
1759,1950,1968
1779,1905,1792
1911,1958,1751
1900,2003,1887
1776,1936,1879
1780,1914,1765
1858,1891,1693
1913,1902,1910
1798,1929,2007
1773,1927,1831
1886,1969,1670
1850,1903,1889
1808,1907,1984
1867,1893,1879
1921,1893,1777
1886,1885,1866
1756,1907,1941
1725,1851,1815
1812,1848,1690
1919,1915,1805
1838,1870,1983
1776,1812,1867
1933,1891,1759
1861,1918,1875
1815,1883,1965
1791,1835,1877
1860,1799,1728
1889,1882,1807
1938,1944,1980
1845,1857,1874
1787,1801,1778
1821,1882,1825
1799,1904,1882
1847,1835,1906
1920,1837,1885
1819,1839,1841
1786,1886,1930
1810,1853,1835
1857,1791,1690
1922,1854,1888
1874,1893,2046
1840,1855,1899
1811,1794,1727
1852,1843,1799
1840,1894,1893
1844,1808,1793
1884,1785,1805
1875,1842,1919
1815,1859,1935
1809,1818,1844
1858,1776,1756
1915,1885,1921
1879,1882,2032
1791,1783,1823
1825,1749,1686
1847,1840,1850
1848,1921,1963
1833,1861,1790
1867,1763,1723
1863,1813,1936
1839,1893,1977
1840,1793,1878
1840,1756,1767
1868,1837,1889
1886,1901,1979
1878,1823,1824
1889,1761,1722
1859,1778,1803
1829,1841,1962
1793,1795,1854
1851,1789,1785
1857,1804,1865
1863,1846,1930
1889,1821,1882
1891,1775,1786
1862,1840,1871
1844,1866,1902
1822,1776,1841
1827,1706,1771
1862,1777,1882
1857,1843,1967
1837,1819,1840
1879,1776,1770
1856,1806,1862
1822,1821,1963
1828,1793,1869
1872,1767,1793
1878,1812,1877
1851,1821,1941
1867,1818,1872
1879,1744,1744
1859,1779,1840
1822,1835,1915
1856,1815,1792
1878,1747,1718
1854,1766,1789
1874,1840,1857
1839,1776,1713
1863,1725,1579
1889,1788,1670
1840,1845,1776
1814,1793,1638
1878,1775,1567
1909,1794,1645
1818,1799,1719
1787,1749,1598
1846,1751,1509
1873,1790,1600
1840,1825,1647
1856,1781,1584
1891,1768,1520
1897,1817,1637
1849,1819,1685
1834,1762,1581
1883,1756,1500
1897,1798,1603
1903,1831,1685
1867,1785,1584
1849,1727,1433
1859,1770,1574
1870,1839,1700
1894,1806,1631
1886,1744,1479
1842,1790,1593
1807,1808,1658
1831,1757,1563
1904,1717,1412
1891,1747,1589
1836,1830,1731
1850,1782,1616
1888,1734,1535
1861,1775,1616
1850,1859,1718
1840,1761,1575
1861,1728,1523
1849,1773,1602
1810,1820,1651
1824,1785,1623
1862,1735,1555
1872,1790,1662
1870,1827,1729
1854,1773,1655
1888,1723,1573
1915,1808,1680
1851,1839,1746
1811,1749,1621
1841,1702,1490
1874,1767,1649
1879,1841,1819
1850,1776,1684
1885,1742,1589
1865,1744,1647
1826,1793,1766
1804,1723,1658
1875,1735,1584
1901,1800,1727
1867,1811,1779
1823,1743,1721
1834,1709,1602
1851,1770,1680
1820,1799,1751
1831,1776,1716
1939,1791,1635
1938,1821,1751
1794,1767,1841
1797,1717,1713
1899,1717,1611
1886,1792,1734
1824,1840,1845
1831,1767,1744
1874,1722,1670
1885,1777,1771
1819,1815,1771
1826,1750,1685
1843,1709,1690
1874,1793,1805
1871,1831,1903
1843,1776,1776
1862,1745,1693
1867,1795,1777
1856,1851,1884
1834,1814,1678
1872,1616,1662
1854,1731,1823
1781,1799,1877
1825,1799,1762
1903,1759,1687
1935,1811,1821
1808,1760,1898
1789,1783,1823
1844,1739,1715
1856,1777,1807
1823,1830,1914
1838,1794,1811
1899,1759,1770
1878,1772,1806
1857,1799,1894
1831,1767,1787
1879,1727,1751
1893,1847,1858
1822,1815,1911
1838,1779,1815
1863,1761,1743
1872,1805,1836
1861,1830,1875
1861,1774,1834
1840,1729,1775
1855,1807,1872
1840,1822,1946
1823,1765,1826
1846,1808,1719
1904,1851,1883
1882,1868,1988
1845,1726,1849
1898,1691,1725
1874,1839,1893
1809,1799,1963
1789,1791,1863
1846,1778,1776
1872,1806,1867
1904,1852,1950
1858,1771,1858
1837,1714,1750
1841,1796,1902
1831,1884,2013
1839,1792,1891
1861,1753,1761
1874,1811,1871
1879,1867,2000
1872,1815,1905
1877,1776,1744
1863,1817,1843
1808,1819,1981
1826,1792,1900
1862,1771,1794
1878,1805,1885
1902,1854,2038
1851,1780,1891
1834,1775,1760
1859,1857,1830
1838,1804,1979
1830,1831,1919
1867,1761,1805
1859,1831,1892
1847,1877,1995
1861,1825,1881
1873,1785,1827
1898,1809,1936
1857,1872,1991
1841,1820,1855
1872,1808,1837
1845,1808,1919
1825,1820,2031
1822,1803,1907
1887,1808,1818
1888,1870,1905
1854,1872,2032
1845,1846,1904
1903,1803,1807
1873,1837,1935
1826,1856,2031
1802,1797,1891
1847,1755,1779
1881,1850,1926
1848,1875,2015
1877,1821,1884
1904,1823,1825
1879,1959,1936
1802,1936,2000
1802,1802,1899
1876,1805,1802
1883,1872,1907
1829,1890,1983
1840,1813,1915
1865,1744,1789
1891,1850,1909
1823,1863,2042
1793,1807,1923
1830,1776,1806
1882,1847,1908
1882,1895,2033
1872,1833,1936
1872,1805,1828
1893,1831,1872
1813,1877,1982
1819,1831,1920
1870,1806,1838
1877,1870,1901
1844,1890,2002
1809,1855,1907
1858,1726,1822
1892,1889,1915
1867,1876,2009
1835,1763,1893
1853,1742,1778
1874,1860,1865
1823,1840,1964
1818,1799,1923
1892,1754,1844
1886,1807,1863
1835,1882,2016
1838,1847,1934
1847,1774,1799
1856,1791,1889
1837,1863,1985
1840,1851,1910
1854,1852,1765
1871,1852,1878
1840,1957,2011
1814,1865,1894
1839,1794,1783
1851,1837,1883
1855,1883,2011
1858,1839,1928
1881,1791,1809
1876,1850,1903
1851,1869,1981
1830,1885,1873
1868,1821,1821
1911,1855,1914
1833,1872,1969
1789,1790,1872
1824,1776,1784
1867,1856,1902
1847,1904,2002
1826,1821,1861
1862,1783,1803
1920,1854,1959
1883,1919,2042
1831,1841,1837
1855,1829,1786
1867,1808,1913
1845,1871,1985
1808,1831,1851
1846,1830,1807
1879,1835,1919
1882,1811,2002
1856,1865,1907
1835,1840,1789
1832,1839,1854
1822,1843,1961
1822,1837,1887
1863,1812,1802
1904,1909,1943
1857,1902,1998
1830,1855,1883
1872,1787,1787
1882,1860,1873
1845,1881,1996
1795,1834,1872
1842,1809,1808
1860,1853,1867
1831,1903,1963
1845,1872,1920
1825,1781,1776
1837,1830,1883
1847,1903,2005
1835,1849,1882
1857,1795,1808
1847,1821,1885
1837,1866,1968
1838,1846,1865
1834,1798,1738
1874,1824,1877
1862,1890,1985
1796,1847,1862
1845,1840,1792
1877,1857,1905
1840,1870,1953
1827,1840,1872
1862,1810,1782
1879,1872,1883
1819,1875,1979
1773,1808,1823
1854,1830,1779
1887,1867,1842
1840,1845,1937
1811,1811,1890
1852,1809,1799
1845,1850,1876
1835,1895,1950
1837,1841,1865
1870,1779,1751
1885,1853,1857
1842,1916,1983
1826,1874,1895
1874,1826,1799
1866,1829,1868
1808,1860,1920
1819,1863,1879
1849,1837,1765
1846,1840,1857
1843,1895,1968
1844,1835,1855
1878,1840,1765
1867,1847,1863
1840,1873,1967
1833,1856,1883
1891,1835,1787
1871,1834,1840
1808,1893,1947
1819,1863,1873
1840,1783,1744
1857,1853,1869
1811,1874,1931
1808,1840,1840
1830,1807,1743
1871,1856,1861
1856,1901,1985
1839,1860,1885
1869,1799,1741
1872,1840,1830
1831,1891,1930
1847,1856,1879
1859,1811,1792
1874,1863,1855
1839,1899,1914
1813,1839,1865
1824,1821,1793
1856,1878,1883
1823,1878,1922
1808,1814,1829
1827,1772,1711
1861,1818,1839
1850,1890,1979
1833,1829,1841
1871,1792,1728
1879,1843,1855
1839,1897,1968
1804,1863,1872
1872,1840,1751
1927,1873,1899
1824,1879,1919
1757,1809,1791
1813,1786,1754
1866,1847,1871
1843,1909,1946
1813,1840,1830
1872,1812,1776
1895,1850,1865
1839,1872,1906
1837,1837,1833
1877,1794,1771
1871,1863,1856
1810,1891,1945
1823,1840,1839
1850,1796,1737
1887,1834,1845
1883,1907,1936
1853,1869,1856
1829,1803,1751
1846,1839,1815
1856,1891,1930
1830,1855,1792
1859,1823,1746
1907,1863,1895
1847,1892,1978
1786,1818,1833
1857,1808,1753
1874,1837,1839
1850,1901,1945
1822,1873,1850
1870,1840,1775
1909,1851,1840
1844,1874,1920
1811,1851,1886
1851,1809,1776
1887,1853,1851
1815,1877,1931
1804,1841,1856
1890,1802,1757
1933,1853,1840
1855,1882,1949
1806,1845,1840
1823,1788,1742
1872,1836,1863
1861,1895,1947
1831,1839,1859
1856,1808,1761
1897,1888,1872
1835,1886,1944
1823,1824,1871
1843,1787,1710
1861,1823,1805
1840,1854,1936
1817,1839,1869
1862,1795,1776
1887,1869,1782
1840,1881,1921
1808,1840,1883
1850,1824,1767
1872,1824,1833
1858,1872,1953
1871,1855,1859
1879,1814,1756
1839,1815,1831
1810,1867,1984
1786,1813,1858
1838,1790,1729
1881,1822,1794
1866,1858,1897
1806,1839,1845
1835,1835,1744
1868,1853,1802
1823,1874,1920
1813,1828,1862
1862,1807,1771
1920,1824,1853
1845,1850,1919
1808,1812,1825
1863,1796,1722
1858,1840,1823
1798,1871,1903
1824,1843,1815
1852,1795,1767
1872,1819,1792
1825,1878,1945
1808,1860,1803
1872,1828,1773
1904,1850,1787
1843,1850,1884
1818,1819,1903
1863,1790,1835
1871,1836,1779
1840,1893,1941
1823,1842,1863
1854,1821,1726
1852,1839,1815
1821,1875,1914
1823,1838,1887
1867,1797,1771
1869,1807,1775
1804,1858,1852
1794,1820,1840
1861,1802,1809
1899,1840,1867
1841,1863,1874
1840,1840,1870
1845,1795,1776
1856,1839,1850
1820,1889,1909
1843,1855,1878
1856,1794,1782
1850,1830,1801
1855,1877,1918
1824,1833,1870
1841,1793,1767
1875,1872,1861
1845,1897,1918
1812,1819,1895
1834,1766,1735
1873,1850,1859
1870,1886,1934
1842,1814,1823
1847,1790,1779
1895,1846,1812
1879,1893,1938
1829,1871,1859
1841,1776,1743
1856,1807,1810
1851,1878,1921
1834,1861,1890
1871,1827,1750
1915,1885,1807
1840,1872,1921
1789,1813,1850
1868,1817,1714
1887,1842,1810
1837,1881,1984
1819,1837,1886
1842,1770,1722
1882,1840,1838
1839,1887,1951
1829,1853,1877
1840,1775,1738
1894,1845,1830
1856,1878,1936
1835,1840,1827
1840,1802,1759
1921,1873,1910
1865,1914,1964
1803,1833,1798
1816,1770,1719
1861,1805,1798
1857,1883,1945
1833,1849,1888
1859,1805,1755
1878,1852,1797
1874,1895,1882
1815,1837,1824
1859,1789,1733
1891,1841,1831
1843,1871,1942
1828,1840,1872
1863,1808,1726
1901,1857,1840
1882,1888,1956
1823,1816,1859
1881,1831,1766
1895,1856,1808
1820,1863,1911
1798,1851,1812
1843,1815,1740
1877,1831,1808
1874,1887,1918
1831,1869,1838
1847,1806,1799
1862,1831,1813
1841,1863,1957
1840,1842,1826
1902,1853,1808
1923,1872,1810
1814,1856,1825
1805,1831,1825
1886,1791,1723
1877,1839,1810
1857,1902,1930
1830,1847,1806
1842,1777,1731
1870,1838,1812
1877,1917,1968
1834,1886,1818
1850,1803,1745
1882,1840,1833
1849,1897,1965
1847,1855,1858
1876,1813,1793
1863,1835,1791
1854,1889,1886
1845,1863,1843
1870,1814,1789
1848,1852,1794
1847,1929,1861
1826,1842,1817
1854,1788,1803
1889,1855,1870
1871,1902,1939
1826,1860,1860
1852,1819,1751
1891,1861,1841
1886,1945,1902
1859,1873,1803
1813,1787,1738
1854,1835,1808
1837,1891,1947
1815,1866,1840
1857,1810,1712
1882,1840,1793
1858,1900,1947
1829,1854,1817
1870,1818,1755
1882,1849,1878
1845,1884,1938
1837,1861,1872
1856,1816,1728
1907,1871,1792
1853,1917,1951
1808,1845,1856
1849,1803,1714
1904,1869,1872
1850,1904,1950
1855,1891,1877
1875,1819,1702
1869,1835,1757
1845,1877,1923
1808,1849,1889
1823,1813,1771
1873,1879,1870
1866,1917,1946
1851,1881,1878
1842,1799,1715
1877,1839,1829
1891,1918,1978
1825,1867,1857
1854,1811,1751
1872,1840,1803
1904,1923,1968
1858,1872,1886
1870,1818,1730
1845,1862,1792
1840,1887,1931
1810,1842,1863
1838,1791,1750
1872,1847,1836
1847,1904,1936
1833,1862,1861
1870,1796,1779
1901,1856,1857
1885,1936,1968
1830,1857,1856
1849,1822,1738
1905,1872,1782
1936,1954,1968
1855,1850,1911
1791,1782,1727
1801,1812,1759
1837,1910,1883
1837,1862,1834
1861,1846,1798
1857,1872,1831
1851,1886,1953
1863,1869,1871
1856,1802,1775
1840,1867,1863
1920,1936,1949
1866,1894,1851
1901,1832,1750
1962,1840,1829
1835,1895,1932
1833,1879,1871
1883,1851,1787
1903,1859,1837
1837,1898,1916
1825,1851,1838
1870,1822,1735
1882,1869,1815
1904,1936,1956
1834,1872,1874
1847,1839,1749
1931,1856,1835
1849,1876,1921
1803,1840,1834
1872,1806,1699
1920,1889,1843
1850,1936,1959
1840,1856,1863
1877,1817,1752
1903,1842,1808
1872,1905,1910
1874,1889,1867
1883,1833,1757
1862,1874,1810
1837,1906,1920
1872,1835,1883
1868,1791,1743
1877,1846,1801
1857,1934,1914
1816,1876,1857
1827,1819,1795
1895,1862,1866
1874,1902,1953
1822,1845,1831
1847,1817,1718
1879,1887,1840
1865,1921,1939
1872,1873,1844
1845,1821,1752
1875,1829,1818
1890,1895,1927
1904,1879,1861
1846,1819,1734
1911,1847,1786
1927,1914,1951
1908,1883,1889
1827,1807,1712
1808,1840,1793
1827,1899,1923
1843,1855,1869
1887,1840,1753
1926,1875,1818
1865,1884,1921
1793,1837,1831
1851,1781,1717
1952,1877,1810
1887,1932,1952
1815,1830,1843
1843,1789,1715
1883,1843,1811
1856,1910,1959
1843,1882,1881
1898,1829,1771
1941,1881,1792
1893,1885,1902
1810,1861,1838
1829,1776,1730
1873,1834,1817
1871,1887,1927
1797,1856,1854
1863,1799,1774
1920,1837,1804
1911,1904,1911
1773,1869,1845
1878,1837,1731
1861,1845,1801
1851,1885,1946
1838,1854,1872
1892,1837,1744
1892,1862,1783
1841,1874,1947
1808,1837,1872
1879,1809,1750
1911,1873,1837
1867,1893,1941
1823,1872,1846
1820,1797,1706
1872,1817,1815
1872,1895,1961
1835,1899,1901
1871,1839,1763
1853,1821,1803
1808,1872,1909
1840,1836,1839
1898,1785,1729
1914,1831,1806
1866,1887,1906
1809,1853,1882
1894,1821,1810
1785,1828,1819
1857,1890,1905
1810,1843,1838
1861,1812,1735
1872,1846,1803
1916,1933,1951
1805,1895,1875
1804,1775,1741
1796,1798,1808
1894,1887,1943
1822,1863,1863
1857,1787,1750
1904,1835,1793
1872,1881,1922
1823,1853,1842
1776,1803,1691
1866,1853,1835
1879,1903,1965
1794,1847,1856
1857,1782,1731
1925,1857,1815
1856,1914,1930
1783,1841,1857
1798,1795,1741
1859,1840,1811
1825,1871,1910
1783,1840,1803
1839,1808,1713
1900,1850,1874
1858,1891,1982
1721,1866,1873
1842,1829,1712
1901,1873,1809
1901,1891,1924
1814,1849,1879
1833,1799,1733
1873,1823,1792
1842,1883,1936
1791,1851,1873
1866,1822,1774
1859,1829,1803
1824,1862,1927
1857,1855,1839
1872,1840,1786
1793,1850,1844
1811,1862,1923
1814,1861,1899
1850,1798,1770
1883,1841,1810
1846,1890,1921
1813,1830,1840
1873,1808,1755
1866,1808,1776
1805,1871,1886
1808,1856,1838
1866,1809,1746
1904,1856,1831
1856,1904,1967
1815,1861,1871
1833,1799,1734
1901,1826,1822
1913,1921,1984
1827,1856,1873
1850,1806,1756
1870,1840,1811
1837,1871,1893
1855,1840,1859
1874,1815,1760
1865,1840,1787
1817,1876,1926
1809,1861,1903
1856,1807,1751
1884,1837,1810
1840,1890,1906
1841,1857,1872
1873,1824,1791
1885,1865,1829
1872,1921,1936
1847,1884,1867
1859,1808,1764
1882,1851,1833
1856,1887,1949
1821,1840,1860
1821,1771,1712
1857,1802,1772
1861,1897,1913
1833,1881,1884
1872,1815,1782
1884,1823,1806
1829,1872,1919
1829,1851,1883
1846,1795,1750
1862,1838,1813
1835,1894,1930
1801,1841,1845
1855,1779,1731
1906,1827,1830
1927,1904,2005
1793,1840,1858
1796,1772,1711
1860,1818,1787
1873,1894,1950
1821,1856,1855
1829,1798,1722
1879,1840,1820
1822,1857,1895
1793,1814,1810
1854,1783,1737
1898,1843,1837
1857,1900,1954
1830,1859,1885
1855,1831,1770
1884,1847,1795
1834,1881,1899
1802,1818,1826
1834,1770,1738
1881,1824,1791
1867,1920,1937
1819,1856,1856
1838,1783,1744
1894,1838,1827
1851,1885,1953
1813,1856,1859
1852,1806,1701
1877,1845,1821
1846,1890,1948
1835,1869,1886
1872,1799,1771
1914,1858,1857
1862,1899,1933
1789,1841,1824
1818,1769,1715
1868,1831,1803
1867,1893,1965
1838,1857,1872
1819,1803,1712
1750,1851,1775
1785,1891,1927
1808,1872,1906
1859,1810,1775
1890,1851,1835
1884,1907,1968
1853,1863,1865
1866,1793,1718
1878,1827,1831
1872,1887,1959
1825,1865,1855
1836,1809,1737
1888,1856,1837
1847,1903,1951
1812,1860,1873
1862,1808,1731
1889,1839,1789
1858,1898,1938
1875,1902,1919
1873,1841,1776
1848,1859,1831
1722,1888,1933
1785,1877,1878
1895,1827,1775
1923,1838,1828
1850,1867,1967
1818,1882,1904
1829,1851,1749
1865,1849,1779
1857,1879,1907
1830,1842,1879
1854,1813,1744
1904,1869,1856
1881,1903,1973
1853,1855,1872
1879,1830,1764
1898,1840,1831
1870,1879,1955
1831,1872,1855
1854,1831,1715
1919,1869,1822
1895,1872,1935
1851,1842,1866
1858,1827,1766
1898,1877,1861
1869,1918,1950
1843,1886,1872
1839,1796,1720
1872,1821,1815
1872,1889,1967
1851,1911,1898
1882,1840,1753
1894,1839,1795
1871,1881,1953
1815,1849,1872
1856,1844,1742
1905,1872,1785
1887,1890,1952
1811,1857,1898
1816,1791,1755
1886,1840,1807
1882,1918,1938
1829,1883,1870
1842,1836,1744
1898,1856,1825
1872,1877,1933
1834,1840,1899
1845,1782,1734
1874,1824,1795
1861,1916,1925
1839,1883,1857
1889,1881,1783
1897,1821,1829
1850,1875,1933
1827,1835,1902
1872,1813,1748
1872,1867,1776
1872,1908,1932
1854,1936,1905
1898,1835,1803
1888,1839,1808
1815,1814,1904
1815,1842,1885
1853,1762,1760
1881,1835,1802
1872,1873,1910
1840,1872,1843
1855,1819,1773
1901,1850,1851
1866,1911,1985
1853,1882,1873
1881,1836,1759
1879,1813,1790
1841,1881,1933
1802,1855,1841
1858,1802,1777
1899,1814,1847
1872,1842,1963
1829,1861,1846
1845,1793,1734
1895,1807,1803
1877,1885,1922
1840,1861,1886
1856,1811,1779
1919,1851,1841
1869,1874,1943
1829,1881,1870
1844,1796,1734
1871,1814,1791
1872,1874,1947
1840,1847,1858
1859,1821,1744
1909,1843,1839
1857,1823,1968
1813,1827,1898
1840,1748,1745
1903,1847,1799
1856,1872,1922
1833,1843,1860
1869,1810,1759
1910,1859,1813
1826,1863,1915
1839,1911,1877
1879,1831,1785
1875,1818,1806
1839,1840,1911
1819,1879,1872
1841,1808,1747
1919,1872,1854
1905,1870,1970
1829,1867,1883
1815,1808,1718
1817,1850,1778
1811,1859,1931
1847,1942,1900
1869,1840,1759
1859,1837,1809
1844,1840,1933
1771,1776,1872
1794,1799,1777
1857,1857,1808
1811,1882,1927
1763,1840,1871
1820,1798,1783
1917,1841,1843
1883,1905,1919
1802,1856,1846
1850,1806,1776
1866,1850,1846
1843,1879,1943
1825,1894,1874
1851,1795,1754
1913,1829,1840
1828,1840,1927
1767,1849,1849
1842,1792,1739
1884,1829,1803
1851,1809,1954
1805,1824,1860
1841,1897,1762
1862,1863,1798
1463,1902,1885
1563,1859,1885
1834,1815,1793
1964,1865,1840
1911,1894,1904
1872,1889,1881
1865,1829,1761
1863,1835,1807
1834,1872,1888
1828,1847,1893
1855,1803,1786
1872,1830,1808
1858,1904,1920
1857,1899,1899
1861,1814,1747
1858,1786,1805
1829,1883,1904
1815,1909,1854
1856,1797,1773
1910,1839,1839
1857,1901,1937
1831,1831,1879
1840,1774,1758
1873,1840,1821
1854,1878,1954
1795,1808,1862
1838,1851,1710
1883,1822,1815
1860,1856,1954
1833,1883,1892
1856,1822,1749
1933,1936,1819
1856,1871,1931
1825,1849,1883
1801,1787,1676
1872,1838,1833
1860,1883,2000
1835,1857,1911
1849,1808,1732
1875,1815,1794
1826,1926,1930
1836,1873,1865
1877,1775,1745
1878,1806,1799
1844,1882,1943
1803,1865,1882
1838,1813,1776
1903,1858,1792
1881,1906,1879
1841,1894,1910
1821,1777,1770
1850,1803,1803
1847,1904,1947
1829,1879,1910
1840,1794,1751
1871,1875,1765
1843,1948,1891
1815,1850,1852
1835,1743,1743
1859,1690,1791
1851,1841,1926
1840,1850,1883
1840,1779,1765
1843,1875,1818
1826,1887,1923
1824,1855,1876
1844,1778,1737
1879,1834,1773
1840,1891,1866
1744,1805,1817
1791,1729,1712
1867,1803,1817
1841,1856,1935
1791,1824,1862
1823,1776,1744
1903,1825,1807
1839,1859,1891
1781,1823,1821
1827,1776,1701
1879,1792,1809
1824,1853,1941
1803,1850,1902
1802,1776,1709
1858,1801,1759
1858,1854,1921
1803,1814,1854
1830,1746,1741
1850,1787,1760
1826,1831,1863
1769,1791,1827
1826,1762,1735
1872,1805,1761
1850,1854,1878
1830,1827,1850
1831,1769,1737
1851,1802,1806
1845,1871,1904
1793,1808,1850
1821,1753,1731
1894,1797,1798
1855,1837,1920
1749,1803,1817
1755,1730,1634
1819,1748,1727
1812,1812,1910
1814,1808,1898
1833,1762,1711
1868,1781,1740
1856,1858,1909
1775,1823,1869
1776,1712,1699
1817,1732,1744
1814,1808,1906
1789,1797,1872
1809,1744,1727
1860,1793,1766
1861,1863,1915
1840,1815,1863
1789,1703,1651
1795,1744,1707
1787,1829,1866
1755,1801,1843
1811,1744,1733
1833,1750,1743
1814,1797,1856
1793,1799,1856
1806,1732,1712
1839,1763,1745
1830,1834,1922
1783,1787,1843
1788,1726,1691
1829,1756,1742
1793,1811,1872
1772,1807,1843
1811,1737,1712
1872,1776,1777
1838,1855,1903
1758,1812,1795
1776,1702,1657
1821,1730,1711
1837,1805,1874
1786,1777,1858
1805,1739,1733
1811,1761,1753
1787,1808,1856
1797,1791,1811
1832,1723,1714
1841,1760,1762
1847,1842,1901
1760,1793,1813
1775,1713,1662
1782,1721,1707
1789,1802,1877
1783,1839,1845
1802,1730,1709
1834,1745,1730
1799,1814,1882
1739,1765,1806
1770,1731,1710
1809,1755,1728
1792,1808,1847
1791,1779,1827
1813,1738,1726
1861,1775,1767
1811,1794,1872
1745,1774,1795
1798,1741,1669
1870,1776,1764
1808,1815,1849
1768,1789,1808
1781,1723,1686
1835,1756,1734
1794,1804,1872
1775,1801,1850
1790,1729,1674
1834,1740,1706
1798,1802,1866
1774,1805,1849
1815,1759,1706
1811,1737,1697
1799,1786,1853
1771,1789,1857
1799,1775,1724
1840,1773,1723
1830,1790,1843
1767,1773,1830
1765,1728,1687
1806,1750,1718
1794,1791,1841
1787,1797,1840
1795,1728,1714
1834,1749,1750
1822,1818,1855
1781,1791,1817
1781,1735,1666
1841,1773,1735
1801,1797,1855
1757,1790,1821
1807,1766,1727
1869,1799,1762
1808,1821,1845
1733,1783,1808
1783,1711,1693
1811,1731,1711
1802,1799,1837
1794,1791,1811
1815,1728,1700
1838,1762,1757
1802,1822,1850
1774,1809,1821
1791,1760,1664
1823,1729,1709
1810,1795,1861
1786,1791,1853
1811,1727,1726
1840,1754,1763
1809,1838,1872
1774,1803,1846
1792,1753,1695
1856,1782,1735
1805,1791,1841
1776,1776,1787
1808,1739,1701
1843,1774,1746
1817,1829,1883
1778,1791,1901
1787,1731,1701
1847,1755,1695
