1856,1840,1872
1804,1872,1885
1808,1719,1846
1834,1823,1824
1843,1778,1859
1856,1809,1902
1841,1823,1859
1820,1739,1831
1872,1767,1884
1870,1767,1904
1823,1731,1866
1767,1806,1817
1799,1841,1863
1842,1777,1906
1834,1785,1870
1808,1759,1807
1835,1856,1868
1879,1872,1932
1851,1786,1863
1799,1673,1766
1806,1724,1841
1821,1786,1910
1819,1795,1879
1814,1776,1829
1840,1813,1869
1822,1825,1895
1817,1789,1870
1837,1806,1857
1825,1762,1849
1821,1805,1879
1813,1791,1851
1815,1827,1810
1834,1891,1856
1835,1716,1899
1821,1724,1856
1809,1746,1808
1843,1761,1840
1844,1795,1901
1797,1838,1857
1784,1803,1808
1819,1760,1870
1835,1786,1932
1817,1770,1877
1795,1815,1798
1840,1872,1870
1835,1743,1895
1776,1690,1841
1789,1667,1798
1819,1723,1846
1822,1775,1902
1785,1820,1875
1779,1742,1824
1809,1783,1872
1819,1776,1915
1809,1724,1903
1776,1695,1812
1798,1719,1856
1812,1763,1901
1808,1727,1862
1794,1765,1819
1823,1795,1867
1825,1786,1898
1803,1774,1862
1778,1766,1821
1813,1789,1855
1817,1787,1916
1798,1767,1891
1779,1751,1815
1797,1791,1847
1817,1803,1905
1797,1778,1876
1785,1768,1819
1800,1776,1840
1811,1777,1887
1805,1773,1861
1798,1786,1823
1814,1801,1902
1825,1756,1904
1794,1735,1835
1782,1747,1809
1802,1789,1868
1813,1796,1935
1809,1789,1898
1793,1773,1850
1804,1773,1851
1822,1781,1936
1822,1765,1902
1792,1769,1815
1806,1802,1842
1818,1797,1910
1796,1764,1904
1786,1744,1869
1821,1801,1885
1839,1920,1947
1806,1807,1873
1762,1642,1786
1779,1677,1837
1821,1744,1921
1814,1827,1911
1803,1783,1887
1808,1856,1886
1825,1851,1910
1796,1643,1923
1809,1858,1879
1904,1935,1874
1858,1663,1888
1811,1575,1877
1727,1590,1866
1854,1712,1850
1793,1879,1907
1728,1894,1941
1722,1667,1888
1775,1662,1845
1821,1887,1920
1869,2192,1911
1743,1490,1766
1744,1407,1840
1798,1616,1920
1837,1994,1872
1803,1779,1770
1753,1525,1805
1757,1604,1883
1779,1774,1865
1796,1837,1795
1791,1808,1860
1794,1699,1923
1744,1670,1850
1779,1687,1790
1843,1749,1765
1799,1697,1846
1750,1751,1865
1751,1756,1777
1766,1742,1837
1742,1728,1862
1744,1735,1857
1742,1776,1810
1763,1723,1846
1810,1717,1886
1805,1680,1812
1742,1649,1746
1743,1693,1873
1721,1751,1866
1738,1787,1789
1741,1775,1763
1766,1903,1845
1759,1801,1892
1724,1559,1794
1744,1652,1762
1773,1797,1838
1772,1754,1874
1741,1701,1854
1701,1710,1798
1712,1840,1798
1726,1878,1859
1713,1690,1837
1662,1567,1769
1626,1663,1825
1649,1751,1872
1654,1760,1824
1634,1813,1808
1675,1939,1865
1707,1712,1904
1690,1617,1872
1564,1744,1776
1554,1757,1805
1601,1724,1887
1621,1696,1854
1648,1815,1812
1671,1857,1838
1616,1749,1845
1568,1639,1847
1566,1664,1782
1627,1817,1831
1680,1853,1913
1618,1765,1859
1593,1728,1783
1622,1842,1843
1630,1759,1898
1616,1658,1831
1629,1801,1805
1649,1811,1838
1638,1712,1885
1626,1671,1865
1631,1707,1832
1680,1797,1886
1664,1824,1874
1664,1789,1808
1641,1788,1765
1610,1810,1837
1634,1776,1893
1663,1776,1851
1678,1852,1829
1718,1805,1856
1673,1831,1904
1578,1712,1856
1569,1648,1787
1636,1699,1845
1680,1761,1904
1671,1771,1871
1679,1798,1810
1686,1840,1837
1674,1757,1933
1657,1716,1917
1677,1733,1831
1697,1808,1855
1717,2084,1971
1683,1865,1911
1645,1520,1744
1690,1577,1791
1712,1715,1872
1689,1750,1876
1699,1757,1833
1727,1773,1789
1699,1765,1884
1698,1751,1904
1716,1776,1871
1734,1850,1901
1735,1890,1937
1704,1632,1859
1678,1587,1810
1705,1698,1853
1715,1753,1913
1718,1745,1875
1715,1718,1819
1747,1744,1873
1746,1776,1905
1727,1779,1904
1722,1767,1840
1733,1725,1857
1747,1747,1938
1740,1733,1873
1726,1751,1814
1765,1734,1870
1776,1713,1924
1758,1699,1878
1734,1857,1826
1744,1808,1895
1714,1573,1902
1766,1585,1828
1739,1667,1815
1774,1735,1885
1788,1750,1930
1744,1737,1881
1726,1730,1834
1761,1787,1869
1785,1820,1923
1776,1794,1879
1774,1670,1789
1781,1638,1835
1791,1710,1887
1825,1755,1846
1776,1711,1822
1733,1709,1866
1772,1827,1915
1805,1925,1906
1782,1782,1791
1776,1535,1823
1778,1583,1864
1778,1683,1854
1777,1753,1813
1796,1823,1813
1842,1822,1918
1789,1703,1842
1787,1747,1775
1839,1789,1831
1840,1722,1840
1773,1671,1831
1762,1700,1805
1791,1755,1830
1803,1772,1885
1795,1798,1837
1837,1849,1827
1807,1739,1854
1801,1683,1827
1829,1700,1856
1829,1771,1829
1824,1744,1838
1808,1692,1858
1780,1677,1833
1809,1751,1817
1867,1771,1836
1878,1777,1873
1791,1782,1846
1767,1734,1796
1808,1712,1835
1830,1735,1883
1826,1741,1859
1833,1771,1818
1863,1759,1853
1861,1789,1935
1810,1731,1834
1808,1746,1771
1825,1856,1824
1840,1792,1875
1843,1728,1843
1839,1776,1819
1854,1744,1821
1840,1687,1840
1819,1702,1805
1818,1742,1789
1830,1781,1833
1839,1817,1905
1831,1824,1871
1809,1793,1808
1835,1805,1811
1873,1856,1875
1855,1784,1844
1807,1822,1787
1840,1798,1803
1855,1760,1867
1814,1685,1853
1821,1696,1775
1875,1840,1866
1917,1895,1844
1834,1712,1872
1802,1738,1757
1842,1830,1804
1853,1890,1891
1843,1811,1813
1840,1781,1771
1863,1821,1830
1877,1785,1855
1855,1706,1828
1823,1715,1814
1837,1815,1817
1862,1927,1859
1873,1892,1832
1860,1771,1787
1871,1874,1834
1871,1803,1861
1871,1721,1823
1885,1822,1778
1840,1951,1809
1855,1790,1849
1892,1809,1835
1873,1867,1815
1869,1781,1833
1829,1787,1821
1808,1776,1813
1825,1774,1747
1851,1853,1809
1872,1931,1883
1897,1799,1840
1868,1773,1796
1889,1829,1847
1872,1809,1847
1819,1803,1803
1843,1904,1842
1867,1872,1810
1859,1853,1859
1856,1851,1808
1891,1940,1779
1826,1782,1790
1808,1765,1797
1865,1863,1826
1856,1877,1743
1840,1755,1724
1851,1782,1846
1856,1831,1808
1885,1923,1754
1888,2003,1806
1858,1881,1851
1856,1712,1817
1859,1799,1724
1872,1919,1815
1872,1855,1827
1856,1808,1827
1878,1936,1793
1841,1856,1775
1802,1805,1810
1813,1866,1803
1905,1866,1759
1873,1807,1776
1886,1911,1877
1871,1893,1842
1854,1877,1758
1831,1883,1803
1857,1829,1855
1859,1776,1791
1856,1823,1763
1867,1823,1790
1883,1866,1834
1877,1971,1856
1872,1904,1807
1868,1856,1840
1879,1881,1829
1891,1810,1781
1887,1769,1712
1835,1840,1755
1877,1918,1828
1871,1840,1791
1799,1838,1776
1835,1969,1810
1891,2013,1862
1865,1808,1795
1901,1761,1718
1838,1819,1779
1871,1885,1862
1872,1915,1810
1834,1799,1744
1911,1883,1781
1889,1898,1829
1925,1899,1793
1886,1831,1776
1847,1868,1827
1825,1925,1855
1849,1824,1802
1814,1760,1733
1901,1877,1789
1891,1863,1817
1857,1846,1829
1883,1899,1787
1875,1895,1792
1851,1936,1847
1904,1872,1808
1872,1851,1744
1875,1892,1791
1867,1875,1850
1862,1911,1835
1874,1997,1799
1902,1871,1793
1890,1873,1830
1840,1737,1797
1855,1791,1767
1894,1866,1809
1963,1968,1864
1910,1932,1825
1885,1895,1781
1878,1828,1781
1879,1828,1872
1905,1850,1843
1850,1920,1762
1904,1888,1762
1936,1889,1817
1896,1840,1792
1827,1856,1766
1872,1867,1805
1888,1894,1862
1864,1978,1856
1875,1808,1785
1873,1882,1789
1907,2045,1845
1891,1825,1793
1851,1694,1721
1888,1797,1771
1898,1906,1839
1939,1939,1840
1926,1958,1779
1906,1904,1804
1894,1885,1809
1804,1853,1778
1930,1791,1743
1959,1848,1767
1794,1889,1875
1780,1870,1859
1840,1908,1785
1856,2001,1794
1885,1894,1847
1888,1834,1809
1861,1812,1757
1875,1842,1806
1921,1874,1855
1903,1902,1815
1871,1969,1760
1872,2010,1799
1910,1872,1865
1886,1805,1833
1887,1804,1739
1899,2014,1779
1904,1835,1875
1934,1776,1838
1893,1876,1739
1927,1918,1767
1878,1958,1841
1920,1827,1808
1872,1770,1741
1837,1835,1775
1885,1891,1817
1839,1840,1850
1838,1823,1797
1883,1906,1819
1919,2073,1887
1937,1937,1847
1819,1729,1728
1819,1867,1771
1853,1856,1838
1808,1821,1808
1842,1846,1750
1902,1962,1823
1792,1919,1857
1867,1881,1795
1918,1817,1748
1953,1866,1819
1862,1813,1853
1899,1856,1803
1853,1820,1760
1919,1919,1824
1836,1917,1862
1769,1875,1808
1804,1781,1755
1943,1772,1783
1839,1837,1863
1774,1888,1841
1797,1981,1783
1869,1895,1808
1943,1978,1870
1825,1753,1803
1789,1648,1719
1948,1863,1781
1910,2029,1885
1883,1931,1825
1850,1907,1790
1847,1822,1801
1814,1692,1770
1791,1856,1813
1776,1863,1782
1846,1882,1799
1988,1878,1840
1866,1856,1840
1957,1840,1787
1908,1727,1714
1760,1735,1774
1781,1806,1815
1810,1851,1810
1815,1968,1879
1849,1926,1883
1853,1803,1805
1843,1914,1791
1871,1875,1830
1870,1856,1856
1865,1907,1845
1826,1763,1781
1811,1762,1799
1866,1895,1868
1839,1797,1801
1934,1840,1737
1877,1804,1767
1825,1969,1847
1782,1778,1829
1817,1677,1762
1797,1867,1818
1806,1857,1866
1866,1776,1807
1875,1862,1779
1821,1921,1786
1863,1777,1839
1893,1856,1857
1907,1927,1814
1774,1840,1822
1779,1673,1821
1776,1730,1766
1812,1809,1771
1839,1853,1819
1841,1812,1847
1875,1883,1840
1867,2037,1823
1808,1887,1808
1853,1737,1855
1843,1649,1820
1855,1732,1719
1793,1911,1800
1785,1863,1867
1856,1809,1850
1927,2007,1803
1919,1767,1798
1805,1712,1863
1790,1823,1840
1776,2000,1781
1776,1810,1781
1839,1786,1840
1824,1815,1826
1789,1851,1793
1807,1815,1825
1839,1991,1872
1823,1875,1825
1818,1711,1759
1852,1840,1816
1836,1872,1872
1817,1951,1857
1791,1782,1741
1829,1951,1807
1853,1872,1877
1894,1809,1831
1890,1710,1749
1807,1755,1817
1847,1847,1867
1818,1853,1842
1753,1867,1808
1802,1875,1847
1856,1994,1919
1843,1965,1871
1823,1757,1762
1852,1699,1787
1854,1834,1867
1829,1856,1853
1807,1917,1799
1828,1868,1819
1863,1899,1897
1842,1841,1844
1814,1777,1776
1840,1904,1807
1851,1920,1861
1868,1850,1843
1859,1839,1811
1855,1851,1870
1846,1782,1893
1870,1825,1835
1844,1842,1746
1819,1870,1808
1829,1825,1856
1849,1839,1824
1815,1892,1823
1849,1812,1840
1834,1845,1856
1811,1831,1806
1809,1807,1764
1824,1916,1826
1838,1830,1852
1802,1730,1805
1767,1766,1778
1808,1901,1810
1839,1811,1850
1845,1879,1856
1777,1865,1747
1765,1710,1744
1809,1879,1840
1808,1795,1837
1765,1700,1705
1760,1733,1714
1793,1806,1771
1761,1775,1761
1717,1786,1726
1709,1936,1771
1744,1744,2199
1770,1695,2029
1712,1808,1731
1680,1846,1669
1726,1747,1712
1719,1712,1710
1651,1763,1675
1701,1819,1702
1776,1949,1797
1732,1744,1674
1682,1664,1602
1633,1702,1619
1617,1773,1706
1633,1827,1703
1638,1709,1616
1655,1810,1618
1640,1758,1679
1628,1793,1651
1601,1701,1552
1605,1680,1608
1633,1750,1697
1623,1691,1617
1615,1726,1521
1648,1805,1568
1634,1760,1671
1639,1703,1645
1616,1664,1522
1590,1783,1575
1615,1821,1714
1657,1757,1759
1664,1675,1967
1665,1759,1915
1674,1874,1885
1653,1639,1779
1588,1648,1791
1655,1675,1825
1675,1709,1833
1650,1840,1831
1648,1765,1824
1648,1631,1827
1681,1707,1828
1727,1860,1827
1689,1791,1825
1679,1707,1826
1729,1725,1830
1718,1797,1825
1701,1745,1826
1683,1703,1830
1728,1775,1828
1781,1717,1825
1730,1689,1826
1706,1776,1829
1715,1792,1827
1713,1840,1826
1695,1834,1827
1714,1691,1826
1747,1620,1828
1712,1712,1830
1687,1743,1828
1712,1739,1831
1718,1790,1826
1725,1789,1826
1712,1694,1830
1758,1776,1821
1830,1733,1737
1761,1728,1748
1690,1755,1675
1652,1680,1742
1667,1734,1862
1715,1818,1857
1717,1773,1723
1704,1675,1721
1715,1762,1810
1707,1834,1808
1707,1794,1697
1731,1664,1702
1773,1744,1801
1778,1821,1810
1765,1825,1714
1762,1766,1728
1790,1631,1758
1840,1581,1685
1677,1673,1715
1703,1715,1761
1739,1791,1809
1724,1777,1782
1761,1744,1695
1754,1733,1740
1739,1760,1805
1726,1767,1799
1732,1775,1735
1759,1854,1756
1765,1717,1766
1794,1651,1726
1794,1659,1675
1744,1807,1794
1740,1808,1831
1780,1726,1774
1833,1747,1704
1713,1867,1753
1648,1739,1783
1695,1639,1744
1737,1781,1712
1762,1765,1731
1782,1744,1799
1744,1738,1771
1718,1695,1703
1743,1661,1702
1823,1723,1782
1785,1773,1787
1765,1873,1728
1808,1877,1761
1841,1714,1776
1855,1629,1773
1731,1709,1691
1675,1796,1729
1719,1802,1813
1814,1834,1809
1835,1856,1739
1815,1739,1745
1750,1798,1808
1761,1787,1744
1747,1681,1681
1803,1675,1743
1839,1743,1810
1883,1810,1795
1802,1796,1719
1800,1728,1786
1831,1779,1829
1859,1742,1810
1806,1776,1747
1808,1810,1789
1842,2098,1872
1831,1833,1842
1781,1655,1754
1826,1695,1750
1872,1722,1759
1838,1884,1853
1844,2009,1808
1886,1690,1739
1878,1755,1782
1865,1831,1802
1858,1877,1775
1876,1790,1808
1794,1748,1833
1763,1791,1823
1797,1734,1761
1871,1845,1809
1963,2033,1914
1930,1961,1917
1857,1770,1749
1868,1775,1727
1829,1798,1798
1821,1751,1806
1860,1791,1779
1893,1904,1823
1918,1904,1889
1867,1934,1865
1847,1805,1753
1972,1903,1792
1872,1788,1834
1808,1772,1850
1810,1741,1799
1891,1845,1775
1951,1955,1885
1930,1855,1881
1877,2015,1857
1896,1904,1797
1865,1808,1789
1841,1838,1872
1927,1886,1836
1941,1870,1837
1881,1861,1889
1883,1877,1861
1958,2037,1840
1903,1872,1827
1833,1850,1840
1835,1778,1866
1872,1983,1837
1926,1918,1847
1906,1882,1889
1929,1905,1879
1935,1988,1794
1994,1929,1807
1929,1866,1930
1904,1888,1884
1829,1904,1775
1867,2033,1856
1920,1899,1863
1997,1776,1842
1846,1803,1801
1827,1867,1840
1913,2025,1923
1938,2001,1867
1891,1863,1808
1887,1955,1824
1903,1950,1851
1965,2004,1869
1878,1959,1819
1851,1794,1818
1893,1871,1845
1952,2047,1879
1904,1999,1806
1909,1885,1840
1959,1921,1908
1878,1957,1856
1827,2001,1803
1875,2013,1855
1921,1941,1899
1933,1827,1827
1936,1904,1776
1903,1939,1824
1904,1868,1837
1859,1936,1894
1858,2007,1856
1949,2129,1877
1937,1940,1873
1919,1873,1791
1853,1858,1793
1931,1957,1899
1959,1970,1927
1834,1894,1851
1862,2083,1814
1924,1953,1791
1900,1868,1821
1905,1899,1836
1935,1844,1762
1874,1875,1827
1877,1963,1904
1927,1952,1883
1936,2059,1839
1967,1993,1845
1953,1847,1854
1872,1850,1847
1783,1873,1815
1872,1881,1805
2013,1970,1878
1935,2025,1872
1834,1915,1826
1871,1890,1831
1943,1945,1861
1929,2047,1899
1866,2023,1828
1849,1933,1831
1904,1926,1877
1933,1840,1855
1895,1857,1810
1968,2064,1840
1971,2027,1915
1840,1844,1823
1827,1757,1728
1883,1840,1794
1941,1963,1906
2007,2071,1895
1871,1917,1801
1814,1887,1817
1831,1901,1883
1872,1985,1886
1931,1979,1824
1948,1987,1839
1999,1989,1897
1845,1915,1845
1776,1808,1809
1856,1891,1855
1936,1937,1866
1985,2018,1890
1925,1984,1831
1852,1868,1827
1838,1809,1862
1904,1927,1819
1873,1954,1792
1888,1994,1841
1902,1955,1926
1934,1868,1879
1995,1938,1776
1885,1872,1840
1872,1843,1920
1865,1855,1904
1867,1961,1783
1955,1942,1785
1871,1902,1879
1814,1834,1861
1889,1921,1849
1935,2027,1859
1949,1945,1914
1888,1969,1879
1862,1840,1808
1957,1833,1808
2013,1904,1887
1871,1979,1920
1849,1958,1869
1893,1856,1791
1855,1771,1854
1840,1789,1841
1821,1865,1790
1911,1997,1821
1927,1867,1908
1915,1825,1861
1856,1946,1809
1977,1965,1870
1910,1985,1904
1821,1883,1857
1835,1808,1782
1851,1894,1829
1919,2000,1915
1918,1902,1826
1811,1775,1765
1835,1843,1833
1935,2044,1953
1950,1968,1906
1911,1757,1759
1853,1853,1779
1875,1990,1905
1904,1964,1872
1958,1914,1798
1885,1778,1761
1847,1926,1869
1863,1925,1898
1808,1753,1775
1856,1808,1810
1888,1881,1844
1904,1921,1840
1877,1851,1762
1906,1907,1851
1992,1999,1904
1919,1904,1880
2017,1839,1792
1819,1930,1856
1766,1959,1902
1873,2012,1889
1829,1814,1794
1863,1792,1786
1968,1954,1867
1947,1897,1865
1821,1885,1824
1850,1859,1818
1839,1744,1855
1887,1823,1873
1902,1951,1817
1893,1982,1840
1866,1885,1874
1835,1725,1834
1842,1799,1807
1878,1970,1854
1911,1904,1859
1905,1831,1855
1940,1839,1831
1876,1931,1827
1931,1997,1859
1850,1903,1888
1815,1807,1835
1791,1821,1849
1863,1936,1881
1842,1899,1808
1834,1739,1723
1949,1734,1802
1878,1868,1917
1830,2056,1936
1886,2014,1830
1878,1827,1781
1823,1654,1840
1875,1756,1859
1854,1861,1801
1904,1935,1837
2002,2076,1952
1823,1823,1823
1729,1717,1728
1811,1808,1798
1888,1914,1871
1904,2000,1911
1882,1861,1826
1827,1808,1781
1808,1845,1868
1862,1804,1840
1861,1850,1808
1877,1913,1823
2063,2023,1849
1849,1863,1838
1719,1745,1791
1782,1844,1808
1909,1857,1871
1917,1734,1842
1840,1761,1801
1831,1856,1827
1936,1946,1899
1879,2009,1847
1818,1862,1790
1897,1783,1794
1936,1861,1845
1792,1870,1872
1760,1797,1812
1873,1825,1807
1985,1859,1840
1859,1872,1858
1743,1776,1814
1792,1807,1808
1871,1914,1901
1908,2091,1868
1851,1773,1791
1838,1739,1780
1856,1875,1856
1890,1957,1845
1935,1842,1827
1887,1728,1808
1843,1936,1851
1849,1982,1856
1904,1774,1835
1853,1695,1808
1825,1808,1846
1813,1862,1834
1843,1947,1834
1865,1927,1867
1912,1842,1844
1895,1958,1855
1808,1751,1823
1844,1686,1811
1938,1936,1875
1904,1842,1887
1803,1751,1779
1799,1892,1813
1842,1894,1865
1895,1867,1841
1882,1808,1782
1875,1899,1840
1875,2092,1917
1851,1894,1874
1843,1621,1821
1861,1714,1804
1911,1831,1840
1938,1853,1899
1906,1856,1843
1867,1941,1840
1917,2027,1904
1834,1824,1838
1797,1680,1753
1873,1778,1822
1863,1840,1869
1860,1888,1840
1913,1924,1870
1885,1936,1840
1869,1835,1856
1878,1824,1846
1877,1822,1799
1886,1878,1819
1899,1985,1914
1936,1869,1853
1801,1674,1755
1806,1750,1789
1872,1850,1892
1920,1909,1871
1887,1886,1827
1872,1849,1825
1910,1936,1906
1859,1893,1889
1832,1748,1786
1836,1750,1776
1853,1843,1903
1885,1967,1827
1904,1834,1813
1871,1869,1799
1849,1850,1895
1875,1947,1853
1855,1791,1802
1875,1746,1811
1868,1849,1900
1876,1913,1859
1819,1738,1773
1873,1758,1814
1916,1845,1901
1986,1936,1833
1835,1853,1838
1823,1855,1821
1873,1862,1873
1817,1808,1852
1814,1884,1797
1879,1907,1840
1904,1907,1886
1878,1853,1872
1875,1843,1841
1863,1823,1808
1851,1761,1838
1834,1765,1811
1903,1946,1808
1977,1968,1844
1835,1690,1824
1744,1776,1862
1823,1745,1742
1895,1763,1801
1859,1831,1918
1888,1920,1984
1855,1907,1798
1847,1795,1822
1846,1797,1889
1827,1873,1862
1844,1982,1835
1858,1987,1840
1877,1829,1861
1890,1645,1827
1808,1728,1756
1801,1863,1781
1878,1819,1856
1877,1811,1849
1825,1937,1810
1801,1891,1818
1861,1776,1854
1872,1674,1823
1867,1729,1817
1888,1847,1795
1926,1892,1907
1808,1879,1861
1776,1817,1821
1887,1900,1843
1874,1959,1890
1797,1763,1879
1808,1754,1761
1826,1808,1797
1884,1813,1841
1857,1877,1893
1840,1936,1757
1854,1840,1841
1935,2068,1939
1872,1904,1843
1808,1606,1709
1808,1697,1763
1887,1805,1866
1830,1871,1840
1806,1889,1789
1906,1929,1840
1951,1909,1904
1827,1658,1789
1813,1680,1733
1861,1815,1776
1797,1870,1910
1867,1902,1903
1844,1894,1761
1845,1859,1840
1865,1963,1905
1775,1831,1839
1824,1835,1808
1868,1883,1819
1824,1758,1828
1795,1737,1807
1791,1744,1747
1886,1853,1803
1890,1862,1920
1825,1789,1833
1873,1791,1717
1900,1812,1737
1806,1814,1841
1791,1918,1867
1807,1793,1775
1821,1799,1809
1857,1929,1897
1858,2111,1885
1792,1747,1749
1843,1636,1774
1853,1779,1866
1859,1920,1808
1775,1883,1729
1782,1699,1719
1845,1851,1915
1857,2053,1845
1835,1795,1754
1801,1669,1744
1856,1735,1822
1902,1858,1826
1840,1863,1804
1840,1796,1830
1823,1904,1862
1802,1913,1866
1810,1874,1783
1827,1891,1793
1872,1768,1872
1819,1851,1898
1783,1850,1791
1802,1789,1785
1840,1840,1834
1877,1909,1839
1827,1870,1782
1820,1870,1799
1841,1761,1850
1839,1775,1829
1808,1849,1776
1919,1839,1793
1874,1904,1885
1929,1892,1870
1792,1774,1803
1755,1788,1809
1770,1834,1875
1840,1981,1877
1849,1738,1746
1813,1826,1741
1872,1984,1866
1845,1791,1845
1786,1697,1762
1786,1796,1828
1909,1956,1920
1897,1974,1871
1786,1715,1731
1774,1735,1775
1869,2108,1903
1900,1786,1838
1785,1626,1733
1799,1744,1770
1885,1887,1840
1904,2023,1890
1811,1893,1803
1827,1742,1811
1810,1847,1863
1911,1835,1851
1821,1758,1776
1792,1839,1803
1947,1918,1855
1831,1871,1846
1741,1823,1808
1806,1906,1835
1826,1792,1835
1855,1831,1819
1839,1832,1791
1851,1808,1795
1837,1771,1867
1865,1857,1831
1895,1939,1818
1777,1849,1826
1795,1744,1844
1887,1796,1833
1875,1946,1790
1835,1824,1806
1826,1754,1843
1926,1840,1823
1795,1861,1758
1838,1808,1808
1847,1983,1942
1811,1951,1899
1702,1711,1738
1771,1747,1761
1902,1875,1906
1807,1867,1875
1790,1743,1733
1872,1810,1788
1935,1870,1875
1811,1942,1858
1823,1779,1765
1895,1867,1771
1792,1790,1845
1693,1771,1882
1844,1888,1794
1839,1865,1785
1899,1776,1897
1866,1797,1870
1760,1857,1762
1788,1872,1787
1884,1843,1850
1901,1866,1839
1923,1923,1742
1781,1839,1798
1754,1906,1882
1826,1829,1853
1807,1793,1767
1813,1763,1769
1821,1884,1850
1889,1971,1919
1863,1773,1808
1778,1755,1792
1847,1797,1850
1808,1913,1840
1842,1977,1760
1850,1731,1775
1888,1750,1872
1789,1853,1886
1796,1847,1805
1887,1936,1793
1811,1958,1904
1773,1802,1790
1759,1773,1743
1789,1703,1803
1831,1815,1853
1856,1858,1840
1855,1858,1792
1851,1835,1790
1938,1811,1874
1770,1984,1888
1818,1814,1788
1846,1805,1807
1885,1853,1876
1906,1982,1869
1899,1938,1776
1935,1839,1776
1775,1723,1858
1690,1694,1850
1808,1789,1754
1889,1875,1809
1793,1904,1894
1781,1871,1893
1817,1986,1823
1874,1911,1815
1847,1762,1818
1899,1808,1840
1800,1779,1777
1744,1963,1839
1802,1922,1890
1881,1690,1855
1935,1819,1763
1867,1883,1840
1876,1865,1885
1876,1783,1776
1762,1775,1758
1805,1840,1850
1938,1939,1891
1903,1904,1851
1859,1778,1765
1755,1755,1803
1861,1829,1888
1904,1938,1867
1761,1865,1755
1738,1849,1829
1771,1778,1841
1823,1774,1823
1862,1825,1767
1839,1903,1855
1808,2018,1899
1846,1810,1838
1808,1611,1741
1776,1772,1772
1894,1968,1893
1892,2005,1891
1863,1776,1773
1882,1778,1745
1870,1770,1826
1766,1808,1855
1818,1894,1839
1850,2003,1857
1843,1852,1843
1825,1796,1859
1811,1939,1823
1811,1841,1782
1831,1797,1840
1822,1872,1863
1823,1890,1759
1919,1940,1786
1825,1895,1869
1771,1675,1835
1770,1618,1757
1840,1761,1778
1954,1930,1882
1903,1915,1890
1906,1865,1782
1854,2029,1831
1776,1809,1841
1856,1648,1786
1743,1700,1774
1715,1817,1809
1900,1880,1886
1872,1873,1891
1991,2222,1931
1978,2154,1783
1698,1503,1747
1668,1497,1778
1776,1717,1789
1854,1859,1829
1904,1950,1904
1931,2162,1946
1881,1869,1763
1802,1595,1721
1783,1679,1822
1821,1797,1852
1858,1844,1821
1886,1874,1839
1860,1890,1885
1850,1891,1878
1969,1900,1835
1921,2097,1863
1774,1872,1849
1734,1657,1791
1802,1712,1761
1840,1821,1810
1875,1924,1894
2023,2256,1953
1935,2069,1817
1770,1535,1724
1747,1511,1794
1819,1680,1850
1894,1819,1801
1867,1887,1855
2041,1909,1873
2005,1937,1906
1744,1919,1787
1687,1808,1807
1843,1795,1873
1920,1815,1838
1874,1883,1757
1808,2083,1887
1838,1919,1948
1837,1660,1837
1847,1695,1765
1872,1894,1808
1889,2010,1901
1879,1847,1882
1936,1774,1823
1930,1931,1803
1902,2287,1931
1818,1691,1795
1838,1444,1722
1907,1632,1731
1794,1831,1886
1749,1889,1941
1802,1877,1853
1886,1895,1830
1904,1915,1904
1895,1895,1881
1857,1885,1791
1938,2014,1835
1875,1870,1855
1758,1743,1841
1791,1792,1790
1847,1847,1811
1869,1825,1894
1863,1819,1874
1849,1876,1811
1858,1911,1814
1887,1903,1878
1888,1933,1895
1890,1970,1851
1870,1920,1806
1866,1778,1841
1876,1748,1859
1862,1808,1818
1870,1869,1840
1895,1895,1905
1881,1886,1891
1860,1871,1814
1875,1884,1834
1889,1902,1900
1886,1889,1886
1876,1872,1815
1904,1906,1846
1901,1920,1904
1865,1873,1868
1857,1871,1809
1875,1890,1822
1889,1895,1872
1879,1876,1872
1877,1872,1826
1899,1886,1839
1917,1893,1897
1899,1872,1875
1892,1867,1821
1968,1925,1863
2009,1941,1931
1936,1901,1902
1854,1845,1808
1871,1842,1818
1925,1876,1899
1923,1881,1889
1899,1827,1829
1916,1836,1840
1918,1848,1887
1936,1831,1898
1914,1825,1823
1919,1821,1824
1945,1810,1899
1920,1814,1894
1904,1818,1831
1914,1833,1847
1921,1822,1894
1920,1825,1890
1935,1847,1857
1938,1845,1850
1942,1855,1903
1931,1871,1882
1929,1886,1818
1946,1918,1856
1936,1936,1926
1936,1939,1911
1921,1929,1845
1934,1965,1861
1969,2022,1927
1957,2057,1923
1927,2055,1855
1945,2096,1874
1942,2074,1903
1915,2064,1873
1906,2093,1826
1946,2138,1849
1969,2203,1922
1957,2192,1914
1939,2192,1856
1952,2239,1862
1983,2299,1915
1967,2275,1923
1910,2229,1837
1913,2247,1835
1959,2305,1909
1963,2320,1914
1961,2331,1866
1983,2353,1872
1971,2351,1904
1961,2363,1893
1934,2373,1836
1938,2385,1843
1968,2410,1904
1969,2416,1915
1945,2415,1853
1937,2403,1842
1966,2423,1908
1954,2416,1893
1941,2413,1835
1960,2425,1845
1981,2448,1904
1965,2422,1904
1936,2430,1847
1942,2435,1855
1970,2439,1915
1968,2422,1911
1941,2416,1845
1954,2409,1856
1973,2373,1911
1975,2430,1903
1954,2384,1839
1967,2384,1847
1987,2395,1904
1977,2359,1897
1955,2369,1840
1974,2351,1857
1995,2445,1923
1983,2375,1916
1999,2547,1904
1982,2587,1891
1956,2153,1872
1966,2154,1887
1965,2236,1849
1948,2192,1838
1971,2239,1904
1969,2256,1909
1961,2256,1851
1969,2224,1856
1995,2302,1920
1979,2264,1920
1959,2235,1846
1975,2242,1842
1989,2237,1897
1989,2228,1893
1970,2251,1850
1977,2219,1858
1984,2231,1904
1968,2221,1894
1943,2169,1823
1958,2181,1828
1982,2192,1900
1977,2125,1904
1961,2160,1837
1970,2157,1818
1997,2172,1890
1978,2130,1891
1962,2173,1843
1973,2167,1847
1986,2075,1877
1991,2047,1885
1981,2028,1812
1974,2087,1823
1995,2099,1891
1994,2091,1895
1981,2103,1841
1983,2083,1845
2004,2029,1895
2000,2074,1879
1987,2067,1829
1986,2091,1843
