1834,1857,1878
1838,1861,1750
1856,1856,1765
1829,1862,1833
1807,1854,1904
1827,1837,1763
1857,1857,1743
1840,1859,1858
1807,1837,1829
1828,1848,1788
1866,1857,1750
1854,1855,1853
1830,1843,1872
1835,1840,1769
1883,1860,1738
1856,1858,1818
1808,1852,1851
1822,1860,1796
1859,1872,1773
1859,1841,1872
1825,1823,1863
1836,1825,1761
1857,1849,1746
1845,1857,1887
1828,1833,1887
1842,1831,1761
1863,1856,1758
1847,1859,1865
1807,1839,1872
1825,1840,1791
1866,1859,1770
1856,1860,1871
1829,1841,1909
1830,1845,1792
1870,1867,1711
1852,1875,1857
1828,1851,1872
1840,1853,1772
1872,1869,1715
1856,1858,1876
1823,1843,1870
1828,1842,1764
1865,1871,1733
1852,1857,1859
1825,1863,1904
1840,1850,1808
1860,1840,1769
1838,1840,1840
1796,1835,1866
1827,1840,1779
1866,1865,1750
1855,1850,1872
1824,1831,1955
1825,1837,1770
1867,1847,1761
1855,1854,1899
1813,1824,1914
1825,1837,1810
1867,1867,1724
1856,1867,1894
1822,1856,1947
1825,1840,1711
1860,1845,1744
1856,1851,1847
1826,1839,1825
1840,1837,1807
1870,1861,1744
1845,1862,1839
1811,1835,1810
1829,1836,1744
1872,1857,1758
1868,1851,1812
1834,1825,1868
1824,1827,1735
1872,1866,1770
1867,1861,1891
1830,1845,1895
1831,1838,1781
1867,1863,1701
1871,1874,1870
1840,1852,1904
1843,1840,1783
1865,1854,1741
1871,1872,1871
1830,1856,1902
1849,1858,1808
1908,1897,1829
1871,1870,1866
1825,1840,1926
1811,1825,1766
1851,1840,1734
1847,1842,1856
1811,1840,1883
1837,1840,1819
1877,1872,1771
1867,1871,1857
1847,1856,1874
1868,1846,1763
1879,1855,1745
1841,1853,1847
1808,1844,1905
1813,1838,1791
1843,1843,1753
1840,1855,1847
1839,1843,1901
1845,1841,1808
1877,1866,1773
1871,1862,1885
1818,1826,1904
1811,1810,1774
1856,1840,1751
1859,1845,1866
1827,1831,1889
1831,1834,1808
1886,1857,1789
1903,1867,1882
1808,1826,1895
1783,1813,1778
1840,1843,1761
1849,1850,1873
1821,1822,1904
1830,1818,1797
1868,1840,1765
1856,1843,1867
1811,1819,1901
1811,1824,1781
1861,1846,1749
1872,1850,1869
1842,1834,1903
1851,1831,1790
1872,1846,1749
1840,1850,1872
1797,1830,1903
1793,1818,1770
1841,1838,1741
1838,1841,1859
1838,1837,1919
1859,1826,1808
1869,1825,1744
1834,1827,1851
1807,1817,1911
1830,1823,1808
1871,1842,1745
1865,1845,1851
1836,1829,1903
1845,1823,1794
1879,1838,1759
1866,1854,1872
1839,1829,1902
1826,1831,1778
1872,1845,1758
1876,1840,1874
1839,1827,1906
1846,1827,1792
1874,1840,1749
1859,1861,1867
1819,1845,1904
1840,1834,1786
1885,1855,1747
1872,1854,1883
1847,1845,1921
1842,1849,1797
1875,1841,1744
1867,1838,1856
1836,1823,1888
1841,1826,1776
1894,1856,1758
1878,1850,1872
1823,1833,1894
1837,1840,1779
1881,1856,1748
1881,1858,1863
1847,1834,1898
1846,1827,1772
1872,1846,1739
1875,1857,1868
1840,1840,1911
1831,1833,1795
1887,1852,1753
1875,1841,1861
1821,1819,1889
1822,1816,1787
1859,1849,1758
1856,1858,1865
1838,1838,1904
1835,1829,1787
1870,1855,1758
1863,1861,1857
1831,1847,1881
1845,1850,1790
1876,1862,1774
1860,1855,1868
1829,1835,1893
1838,1835,1788
1882,1876,1779
1883,1881,1877
1861,1865,1911
1855,1841,1787
1869,1845,1745
1856,1857,1852
1825,1846,1902
1855,1843,1793
1889,1857,1773
1872,1859,1882
1840,1845,1914
1853,1839,1782
1897,1866,1757
1895,1878,1902
1839,1842,1917
1839,1840,1792
1891,1854,1755
1897,1861,1880
1859,1867,1929
1853,1865,1805
1875,1872,1747
1877,1872,1871
1840,1840,1917
1847,1838,1793
1885,1871,1759
1887,1870,1873
1845,1840,1914
1847,1840,1800
1885,1871,1763
1883,1872,1874
1846,1867,1933
1839,1850,1796
1867,1856,1744
1903,1897,1873
1849,1859,1920
1840,1846,1808
1903,1881,1795
1887,1879,1887
1831,1855,1917
1835,1853,1793
1870,1856,1752
1872,1861,1872
1840,1843,1914
1849,1855,1814
1891,1873,1764
1887,1888,1866
1845,1871,1915
1851,1865,1809
1887,1879,1766
1881,1876,1870
1850,1859,1923
1837,1851,1811
1883,1870,1773
1903,1879,1891
1888,1886,1951
1840,1855,1808
1872,1870,1744
1865,1873,1856
1827,1856,1901
1839,1856,1808
1876,1859,1764
1874,1859,1871
1843,1844,1909
1847,1856,1821
1874,1873,1795
1883,1894,1887
1862,1858,1917
1822,1867,1785
1872,1918,1764
1882,1857,1893
1836,1808,1907
1838,1827,1793
1899,1872,1776
1898,1884,1883
1834,1857,1883
1815,1819,1776
1872,1843,1756
1857,1859,1851
1802,1854,1873
1869,1889,1851
1884,1865,1791
1850,1827,1867
1841,1803,1892
1902,1826,1815
1957,1949,1859
1846,1936,1902
1791,1766,1910
1809,1723,1679
1917,1779,1646
1867,1803,1853
1793,1805,1959
1786,1793,1817
1914,1865,1791
1920,1855,1858
1840,1825,1875
1792,1758,1717
1862,1787,1732
1865,1837,1917
1864,1839,1924
1824,1791,1698
1942,1849,1735
1997,1926,1968
1875,1854,2021
1790,1793,1808
1776,1813,1679
1757,1789,1728
1819,1776,1797
1891,1825,1744
2015,1875,1781
1839,1878,1904
1714,1834,1815
1808,1790,1595
1958,1899,1696
1875,1918,1936
1809,1904,2006
1763,1891,1817
1844,1965,1694
1830,1968,1843
1768,1904,1873
1766,1885,1729
1826,1931,1725
1838,2001,1859
1856,1968,1775
1803,1930,1661
1913,2017,1739
1925,2025,1850
1791,1966,1811
1764,1933,1729
1779,2000,1689
1869,1943,1810
1825,1935,1872
1719,1954,1771
1791,2000,1695
1776,1971,1776
1744,1979,1839
1837,1963,1600
1830,1979,1646
1699,1954,1746
1754,2032,1889
1769,1939,1739
1744,1921,1691
1819,1985,1777
1821,1951,1857
1826,1996,1837
1808,1998,1695
1805,2013,1744
1733,1998,1730
1781,2010,1534
1835,1927,1471
1823,1945,1696
1777,1915,1587
1727,1908,1394
1909,2026,1556
1843,1980,1693
1647,1923,1658
1718,1963,1527
1838,1984,1477
1787,1967,1561
1746,1963,1589
1798,1968,1449
1935,2023,1566
1776,1911,1501
1648,1844,1505
1739,1906,1472
1855,1980,1535
1950,2023,1607
1786,1946,1600
1746,1893,1491
1705,1925,1501
1761,1944,1587
1728,1917,1506
1776,1915,1474
1824,1968,1511
1808,1949,1631
1791,1920,1638
1810,1959,1600
1902,2019,1510
1799,1883,1504
1643,1847,1535
1727,1905,1566
1778,1925,1611
1812,1949,1710
1776,1920,1684
1717,1923,1555
1807,1950,1482
2000,1991,1616
1879,1968,1794
1613,1873,1568
1690,1857,1471
1834,1914,1648
1802,1953,1776
1786,1918,1618
1789,1901,1570
1792,1945,1739
1775,1937,1779
1746,1904,1631
1795,1904,1569
1856,1892,1584
1843,1894,1715
1789,1914,1698
1812,1929,1668
1802,1930,1740
1911,1925,1761
1867,1882,1713
1707,1882,1573
1664,1843,1622
1713,1843,1759
1764,1827,1694
1888,1843,1535
2017,1985,1862
1765,1892,1907
1643,1821,1648
1728,1855,1583
1839,1861,1783
1830,1868,1867
1813,1876,1740
1834,1887,1695
1908,1923,1828
1840,1851,1850
1727,1798,1680
1744,1862,1675
1787,1883,1811
1792,1865,1877
1813,1842,1753
1854,1863,1703
1852,1885,1830
1821,1850,1841
1974,1900,1803
1885,1840,1713
1693,1808,1715
1739,1802,1744
1748,1799,1749
1782,1839,1757
1806,1841,1852
1889,1786,1698
2114,1846,1764
1722,1826,1823
1622,1861,1907
1686,1841,1891
1789,1807,1758
1874,1847,1753
1868,1841,1890
1814,1808,1930
1859,1822,1826
1898,1824,1741
1818,1838,1808
1759,1778,1866
1809,1797,1771
1885,1813,1766
1890,1869,1941
1972,1905,1997
1840,1786,1825
1786,1787,1735
1799,1808,1825
1819,1792,1834
1877,1815,1841
1834,1827,1771
1804,1817,1876
1888,1822,1915
1916,1808,1854
1825,1813,1822
1746,1771,1913
1790,1766,1893
1854,1846,1796
1881,1846,1827
1887,1776,1941
1809,1789,1926
1825,1728,1825
1906,1854,1839
1904,1835,1922
1879,1814,1974
1831,1734,1808
1825,1779,1758
1808,1743,1865
1747,1780,1913
1838,1827,1926
1929,1813,1823
1898,1742,1861
1872,1767,1891
1852,1776,1928
1846,1822,1858
1814,1782,1873
1776,1730,1941
1838,1777,1866
1872,1811,1824
1856,1806,1886
1841,1773,2002
1840,1778,1909
1874,1840,1810
1894,1802,1905
1926,1761,1974
1882,1728,1865
1854,1808,1815
1890,1808,1917
1800,1744,1962
1776,1760,1836
1891,1822,1808
1887,1776,1899
1827,1782,2003
1843,1787,1971
1893,1808,1886
1872,1805,1946
1835,1808,2000
1827,1794,1858
1895,1803,1834
1915,1810,1915
1856,1755,1968
1836,1783,1871
1869,1792,1806
1894,1808,1954
1852,1739,1989
1834,1749,1815
1892,1783,1805
1885,1803,1925
1886,1773,2010
1862,1813,1902
1847,1797,1823
1904,1787,1921
1877,1815,1986
1809,1809,1890
1872,1776,1783
1879,1776,1913
1841,1727,1947
1879,1743,1874
1886,1831,1893
1857,1761,1972
1834,1807,2021
1823,1803,1882
1870,1771,1789
1915,1818,1917
1941,1788,1969
1855,1819,1867
1872,1775,1850
1857,1771,1929
1814,1706,1987
1842,1743,1858
1879,1778,1812
1921,1807,1920
1911,1808,1968
1905,1789,1907
1858,1792,1846
1801,1755,1886
1823,1730,1947
1975,1805,1872
1940,1792,1867
1812,1792,1927
1797,1807,2018
1862,1792,1900
1886,1783,1836
1876,1804,1891
1842,1761,1984
1870,1815,1910
1910,1843,1839
1867,1678,1907
1856,1769,1964
1846,1771,1883
1931,1783,1866
1872,1803,1907
1821,1744,1933
1863,1748,1863
1872,1781,1834
1853,1815,1947
1823,1792,1974
1850,1767,1857
1896,1792,1824
1923,1837,1894
1872,1808,1969
1840,1776,1920
1872,1808,1861
1973,1866,2000
1863,1770,1961
1810,1755,1809
1883,1699,1798
1891,1831,1920
1835,1791,2018
1840,1778,1911
1883,1744,1847
1875,1744,1924
1855,1844,1902
1826,1686,1797
1943,1840,1805
1948,1807,1949
1751,1792,2011
1743,1840,1886
1860,1748,1803
1891,1770,1882
1873,1766,1982
1887,1771,1904
1957,1831,1872
1919,1807,1930
1808,1871,1950
1789,1751,1823
1861,1810,1808
1891,1825,1903
1872,1798,1957
1871,1805,1890
1906,1866,1808
1920,1873,1905
1855,1803,1929
1827,1835,1811
1809,1771,1777
1846,1762,1894
1819,1777,1970
1842,1815,1875
1918,1827,1808
1919,1841,1889
1859,1814,1966
1872,1841,1844
1879,1799,1710
1840,1730,1797
1813,1807,1950
1829,1766,1872
1887,1840,1814
1875,1867,1908
1798,1735,1934
1830,1757,1891
1889,1821,1810
1889,1837,1882
1855,1821,1891
1866,1693,1799
1835,1835,1773
1879,1815,1874
1835,1793,1947
1819,1798,1823
1872,1787,1763
1862,1803,1856
1825,1781,1940
1833,1797,1866
1881,1824,1786
1919,1850,1904
1840,1767,1885
1860,1808,1823
1895,1818,1804
1807,1782,1839
1776,1760,1919
1847,1781,1875
1877,1823,1767
1930,1795,1809
1811,1820,1963
1813,1808,1865
1851,1786,1754
1883,1826,1869
1847,1835,1952
1794,1782,1834
1946,1821,1772
1915,1840,1873
1781,1779,1891
1744,1765,1831
1859,1802,1802
1890,1783,1808
1841,1815,1952
1785,1824,1878
1874,1819,1738
1920,1825,1904
1822,1810,1941
1804,1786,1863
1936,1840,1772
1905,1789,1779
1772,1787,1935
1759,1782,1793
1888,1845,1766
1916,1840,1872
1824,1823,1978
1811,1802,1838
1866,1815,1735
1858,1824,1790
1808,1823,1945
1853,1797,1840
1873,1767,1744
1827,1803,1836
1818,1811,1943
1838,1810,1879
1879,1828,1759
1859,1805,1801
1855,1811,1937
1838,1803,1851
1810,1815,1770
1872,1822,1825
1839,1766,1846
1861,1808,1856
1854,1847,1808
1898,1829,1887
1910,1829,1936
1820,1807,1827
1885,1808,1729
1873,1819,1829
1808,1781,1925
1741,1786,1815
1893,1834,1722
1906,1831,1808
1852,1840,1954
1795,1840,1888
1872,1830,1791
1905,1820,1843
1899,1846,1935
1831,1808,1821
1792,1777,1700
1878,1835,1849
1795,1813,1958
1713,1798,1776
1856,1811,1730
1898,1849,1831
1850,1827,1945
1855,1809,1846
1942,1839,1782
1871,1833,1850
1815,1802,1883
1737,1776,1840
1828,1810,1776
1889,1866,1840
1907,1839,1903
1840,1794,1792
1789,1833,1807
1812,1859,1899
1883,1831,1974
1819,1785,1810
1851,1845,1734
1872,1829,1818
1904,1808,1905
1889,1808,1874
1838,1822,1826
1820,1840,1821
1808,1788,1863
1819,1803,1827
1914,1820,1737
1866,1831,1874
1795,1796,1919
1873,1802,1776
1904,1821,1808
1895,1840,1941
1841,1855,1952
1758,1775,1765
1847,1799,1733
1887,1841,1869
1858,1851,1953
1803,1794,1829
1850,1840,1774
1854,1809,1813
1812,1792,1903
1849,1799,1822
1843,1840,1790
1821,1827,1857
1813,1808,1920
1869,1797,1840
1835,1840,1771
1838,1840,1847
1847,1835,1939
1827,1824,1839
1819,1813,1763
1858,1818,1879
1834,1804,1895
1858,1781,1741
1931,1840,1805
1867,1823,1839
1760,1794,1881
1806,1811,1870
1873,1855,1826
1915,1855,1899
1844,1813,1909
1803,1817,1818
1847,1840,1755
1769,1867,1920
1786,1830,1906
1822,1808,1799
1872,1825,1747
1898,1817,1828
1810,1808,1935
1713,1816,1849
1904,1835,1797
1878,1839,1883
1854,1809,1939
1797,1825,1808
1890,1856,1745
1876,1868,1878
1820,1805,1915
1791,1786,1779
1830,1807,1743
1840,1840,1901
1777,1819,1902
1803,1795,1871
1904,1847,1760
1874,1838,1803
1767,1819,1954
1849,1845,1890
1839,1839,1786
1904,1850,1829
1885,1863,2026
1808,1809,1884
1857,1827,1725
1882,1808,1762
1798,1806,1938
1777,1809,1915
1841,1836,1808
1854,1862,1885
1782,1850,1904
1827,1860,1841
1869,1847,1793
1872,1855,1866
1886,1841,1894
1888,1806,1813
1840,1808,1721
1821,1804,1831
1835,1838,2000
1807,1835,1906
1862,1852,1696
1902,1865,1837
1898,1850,1933
1861,1840,1797
1807,1821,1733
1812,1811,1835
1790,1802,1923
1843,1822,1873
1940,1841,1831
1862,1837,1842
1787,1831,1926
1815,1850,1793
1850,1840,1699
1839,1869,1832
1879,1865,1979
1853,1829,1872
1873,1838,1741
1847,1826,1808
1794,1799,1897
1830,1786,1846
1810,1837,1769
1870,1856,1899
1815,1885,1989
1776,1839,1786
1824,1825,1709
1840,1840,1843
1850,1842,1953
1857,1834,1823
1903,1849,1764
1840,1857,1846
1825,1865,1970
1861,1793,1770
1939,1830,1673
1881,1872,1917
1807,1849,2036
1751,1819,1811
1887,1872,1715
1893,1906,1899
1828,1837,1940
1774,1806,1754
1829,1856,1727
1826,1844,1808
1776,1818,1850
1845,1856,1839
1859,1869,1819
1847,1867,1851
1843,1840,1858
1826,1826,1835
1834,1858,1811
1837,1866,1858
1863,1866,1875
1870,1808,1762
1802,1833,1737
1824,1878,1879
1823,1863,1954
1863,1833,1840
1810,1854,1743
1855,1857,1849
1857,1824,1870
1803,1823,1802
1841,1888,1715
1841,1876,1807
1851,1840,1933
1779,1838,1879
1813,1868,1769
1842,1861,1809
1936,1870,1923
1852,1827,1849
1821,1824,1820
1819,1866,1834
1840,1869,1919
1725,1861,1833
1866,1861,1779
1763,1845,1861
1773,1838,1931
1764,1805,1786
1824,1839,1666
1957,1863,1812
1823,1875,1989
1797,1867,1840
1808,1823,1648
1841,1865,1868
1820,1867,2010
1846,1847,1840
1835,1868,1664
1791,1854,1824
1753,1790,1870
1803,1799,1871
1859,1829,1728
1841,1871,1855
1825,1874,1943
1827,1840,1834
1861,1842,1715
1935,1857,1840
1857,1855,1935
1859,1808,1731
1818,1831,1680
1869,1869,1904
1799,1831,1931
1795,1829,1775
1815,1853,1782
1878,1856,1825
1783,1840,1887
1919,1859,1927
1893,1871,1759
1851,1821,1763
1827,1808,1845
1847,1844,1795
1866,1840,1771
1859,1839,1794
1765,1827,1911
1795,1837,1829
1856,1846,1760
1808,1853,1810
1783,1813,1918
1829,1840,1819
1915,1843,1776
1936,1840,1874
1823,1834,1945
1747,1834,1789
1853,1858,1697
1881,1838,1794
1783,1801,1947
1802,1813,1823
1873,1846,1735
1903,1875,1902
1776,1819,1933
1746,1843,1791
1847,1890,1689
1879,1862,1854
1821,1792,1910
1830,1798,1833
1947,1872,1774
1815,1868,1892
1744,1819,1903
1698,1802,1783
1835,1824,1742
1871,1846,1839
1879,1883,1980
1899,1859,1855
1858,1847,1782
1773,1808,1776
1788,1830,1856
1818,1803,1838
1872,1825,1838
1879,1840,1841
1840,1853,1889
1877,1860,1793
1838,1841,1718
1773,1794,1779
1783,1801,1892
1854,1840,1808
1846,1855,1744
1855,1851,1874
1835,1851,1942
1839,1841,1847
1862,1858,1773
1939,1839,1808
1765,1803,1858
1729,1801,1786
1873,1866,1834
1873,1870,1872
1854,1831,1853
1826,1846,1804
1910,1826,1731
1787,1840,1823
1760,1808,1885
1846,1877,1808
1858,1858,1781
1943,1851,1872
1831,1813,1915
1773,1821,1825
1811,1839,1727
1874,1862,1781
1904,1842,1905
1783,1814,1818
1744,1860,1745
1901,1855,1795
1788,1833,1901
1853,1793,1828
1867,1794,1731
1925,1841,1841
1785,1818,1934
1809,1839,1869
1866,1854,1754
1902,1873,1785
1785,1856,1909
1767,1849,1846
1808,1831,1744
1878,1847,1813
1950,1843,1905
1862,1806,1824
1808,1844,1786
1820,1857,1841
1776,1781,1872
1789,1810,1845
1862,1887,1728
1862,1858,1792
1814,1820,1893
1847,1807,1839
1865,1817,1732
1775,1829,1841
1785,1840,1906
1890,1839,1776
1856,1819,1735
1884,1844,1872
1793,1841,1922
1775,1808,1819
1821,1852,1773
1845,1863,1861
1840,1815,1861
1847,1835,1797
1873,1851,1775
1958,1878,1819
1851,1861,1889
1819,1814,1856
1770,1818,1738
1799,1813,1765
1808,1811,1870
1872,1822,1815
1887,1853,1789
1868,1882,1902
1788,1875,1925
1735,1809,1767
1869,1815,1728
1838,1825,1781
1763,1814,1867
1822,1817,1895
1907,1871,1819
1835,1818,1792
1839,1777,1818
1791,1808,1839
1805,1846,1767
1863,1893,1845
1869,1849,1950
1797,1826,1776
1840,1824,1703
1877,1856,1840
1855,1840,1934
1757,1805,1863
1788,1851,1754
1872,1854,1840
1830,1812,1898
1743,1810,1773
1710,1846,1726
1953,1871,1844
1819,1810,1879
1798,1791,1842
1890,1846,1814
1863,1863,1854
1834,1850,1905
1831,1857,1835
1857,1830,1707
1930,1859,1850
1808,1797,1853
1773,1851,1900
1750,1808,1751
1862,1839,1808
1793,1839,1898
1870,1847,1843
1925,1856,1766
1904,1843,1840
1718,1828,1907
1748,1833,1837
1921,1866,1721
1973,1885,1884
1863,1838,1956
1659,1791,1797
1782,1849,1773
1835,1828,1820
1904,1830,1888
1885,1846,1841
1857,1808,1706
1879,1840,1806
1815,1856,1997
1808,1814,1899
1840,1855,1739
1890,1819,1776
1910,1861,1936
1903,1852,1841
1841,1850,1802
1917,1863,1819
1840,1861,1915
1790,1828,1845
1776,1840,1717
1811,1851,1759
1871,1823,1902
1882,1818,1907
1847,1854,1795
1936,1873,1875
1835,1832,1935
1861,1840,1819
1920,1867,1697
1773,1841,1783
1798,1837,1936
1781,1857,1918
1835,1867,1776
1850,1859,1776
1854,1847,1913
1845,1793,1813
1806,1815,1712
1803,1879,1869
1811,1843,1936
1808,1834,1913
1858,1850,1807
1919,1856,1807
1885,1842,1901
1918,1881,1803
1849,1851,1798
1860,1831,1874
1783,1840,1901
1758,1819,1819
1867,1865,1771
1902,1866,1856
1802,1813,1915
1817,1827,1877
1865,1854,1775
1877,1874,1854
1807,1831,1853
1818,1810,1811
1867,1847,1776
1914,1860,1867
1849,1797,1907
1863,1824,1855
1879,1869,1767
1899,1867,1872
1773,1813,1908
1762,1793,1831
1868,1833,1772
1931,1856,1872
1839,1845,1899
1751,1840,1840
1789,1818,1709
1847,1819,1785
1886,1853,1931
1895,1838,1888
1865,1856,1825
1879,1854,1887
1825,1810,1899
1805,1846,1829
1812,1879,1759
1845,1846,1800
1839,1839,1897
1795,1810,1853
1829,1827,1789
1869,1840,1840
1902,1847,1946
1836,1802,1781
1824,1826,1717
1810,1840,1809
1851,1856,1952
1870,1845,1886
1862,1845,1774
1931,1878,1817
1872,1853,1897
1723,1776,1742
1791,1793,1762
1858,1875,1897
1782,1824,1933
1791,1832,1827
1950,1856,1771
1927,1875,1858
1839,1838,1909
1775,1815,1778
1840,1833,1738
1854,1856,1860
1803,1851,1950
1778,1835,1845
1835,1849,1765
1877,1840,1810
1887,1858,1916
1844,1867,1841
1871,1887,1835
1826,1870,1872
1820,1830,1921
1836,1815,1805
1858,1847,1751
1867,1855,1804
1827,1844,1920
1840,1879,1873
1884,1893,1808
1876,1847,1840
1835,1851,1894
1799,1799,1803
1845,1811,1754
1911,1875,1889
1843,1849,1931
1782,1820,1792
1827,1863,1745
1909,1855,1856
1886,1869,1969
1830,1830,1840
1835,1872,1763
1831,1851,1805
1824,1824,1899
1819,1799,1840
1867,1847,1771
1899,1877,1843
1884,1840,1933
1875,1840,1870
1851,1882,1766
1827,1872,1808
1825,1825,1899
1803,1808,1872
1830,1835,1757
1948,1861,1827
1855,1840,1914
1821,1820,1846
1846,1817,1761
1854,1829,1862
1873,1868,1961
1863,1884,1888
1890,1845,1734
1929,1871,1830
1809,1818,1901
1822,1811,1877
1867,1824,1732
1904,1853,1776
1808,1839,1886
1804,1833,1872
1856,1842,1791
1883,1842,1864
1829,1825,1937
1804,1805,1808
1887,1856,1710
1863,1873,1857
1823,1890,2002
1811,1815,1851
1886,1833,1711
1950,1887,1820
1866,1823,1933
1723,1777,1822
1859,1829,1746
1926,1895,1899
1869,1875,1936
1856,1862,1790
1840,1840,1779
1812,1852,1903
1789,1843,1927
1822,1820,1823
1911,1827,1773
1955,1842,1835
1846,1809,1895
1749,1850,1875
1885,1904,1815
1865,1877,1845
1791,1808,1879
1776,1837,1856
1811,1821,1764
1878,1866,1808
1909,1865,1933
1837,1832,1859
1886,1818,1790
1905,1870,1850
1840,1861,1928
1808,1837,1904
1851,1825,1759
1865,1814,1792
1829,1840,1893
1827,1835,1861
1874,1866,1779
1917,1875,1840
1827,1837,1949
1759,1829,1872
1847,1862,1774
1942,1861,1807
1848,1839,1883
1797,1854,1873
1819,1835,1747
1808,1856,1767
1811,1867,1935
1875,1843,1930
1911,1841,1795
1840,1840,1776
1808,1824,1875
1904,1824,1857
1884,1819,1791
1905,1842,1824
1818,1821,1907
1834,1829,1839
1869,1887,1751
1834,1869,1823
1769,1795,1861
1807,1810,1819
1855,1901,1782
1857,1938,1840
1820,1842,1961
1849,1798,1829
1895,1810,1745
1904,1893,1861
1853,1906,1920
1841,1866,1852
1822,1809,1755
1856,1881,1858
1832,1881,1937
1817,1798,1803
1846,1823,1740
1879,1814,1774
1857,1842,1918
1806,1845,1862
1839,1881,1775
1945,1872,1811
1856,1853,1906
1850,1840,1867
1840,1843,1750
1821,1853,1826
1842,1851,1891
1872,1840,1825
1862,1806,1820
1840,1841,1839
1823,1807,1876
1858,1826,1831
1894,1840,1776
1934,1862,1845
1830,1775,1904
1801,1829,1870
1833,1842,1773
1934,1810,1813
1904,1808,1930
1808,1813,1901
1847,1849,1770
1827,1852,1797
1778,1808,1890
1837,1817,1892
1904,1837,1735
1897,1838,1837
1857,1782,1968
1815,1792,1839
1846,1836,1763
1890,1869,1827
1899,1872,1925
1829,1840,1856
1841,1833,1791
1872,1798,1727
1808,1808,1890
1808,1821,1885
1841,1833,1789
1847,1832,1840
1842,1856,1872
1863,1791,1808
1871,1917,1776
1858,1842,1852
1821,1805,1915
1767,1761,1830
1905,1801,1746
1963,1846,1847
1798,1841,1895
1779,1799,1792
1904,1846,1697
1872,1874,1892
1834,1801,1919
1854,1840,1902
1835,1817,1787
1808,1833,1744
1806,1834,1868
1840,1808,1865
1909,1882,1776
1915,1872,1822
1875,1850,1901
1847,1851,1890
1863,1812,1746
1865,1808,1771
1782,1826,1936
1823,1837,1850
1867,1824,1713
1907,1840,1760
1808,1867,1933
1758,1831,1806
1843,1840,1734
1983,1840,1872
1940,1798,1943
1845,1753,1865
1831,1809,1721
1838,1806,1776
1851,1851,1931
1785,1806,1882
1838,1816,1709
1922,1824,1779
1872,1925,1945
1809,1829,1845
1792,1792,1695
1867,1874,1859
1883,1885,1975
1862,1817,1870
1833,1767,1653
1887,1856,1792
1844,1886,1967
1812,1859,1895
1831,1821,1776
1894,1872,1855
1821,1829,1855
1822,1781,1808
1840,1822,1762
1857,1835,1807
1859,1801,1823
1874,1825,1901
1860,1819,1819
1856,1787,1866
1823,1840,1930
1829,1744,1835
1843,1821,1729
1895,1786,1844
1846,1825,1935
1798,1783,1818
1847,1789,1747
1863,1841,1846
1843,1791,1925
1857,1831,1844
1834,1813,1760
1863,1883,1875
1904,1840,1917
1817,1799,1843
1817,1872,1747
1869,1799,1803
1845,1816,1922
1851,1808,1831
1876,1840,1715
1837,1828,1808
1782,1807,1897
1785,1825,1888
1857,1847,1776
1920,1869,1807
1942,1868,1943
1808,1833,1882
1866,1862,1712
1905,1893,1794
1808,1783,1909
1779,1821,1852
1858,1823,1734
1883,1838,1787
1810,1802,1898
1783,1815,1875
1867,1891,1785
1936,1872,1809
1904,1782,1899
1798,1808,1852
1785,1838,1751
1823,1887,1791
1883,1801,1872
1893,1785,1891
1904,1937,1823
1811,1815,1794
1775,1861,1909
1808,1808,1874
1842,1778,1721
1948,1857,1798
1876,1840,1890
1807,1850,1903
1832,1830,1727
1899,1887,1840
1893,1825,1909
1809,1795,1829
1867,1827,1779
1872,1857,1809
1819,1859,1936
1798,1802,1866
1935,1872,1755
1902,1840,1809
1785,1801,1872
1753,1790,1842
1824,1851,1776
1856,1850,1819
1824,1838,1895
1865,1846,1853
1980,1813,1751
1904,1887,1855
1820,1867,1930
1749,1847,1838
1807,1838,1713
1856,1829,1805
1873,1868,1968
1833,1852,1818
1859,1843,1714
1897,1808,1813
1809,1810,1927
1798,1822,1856
1893,1885,1766
1936,1872,1813
1826,1823,1934
1791,1813,1857
1853,1840,1804
1856,1858,1818
1813,1857,1941
1816,1808,1808
1856,1801,1708
1951,1857,1823
1849,1838,1958
1824,1850,1890
1872,1873,1774
1905,1836,1840
1808,1781,1899
1766,1815,1827
1872,1867,1785
1899,1823,1769
1819,1829,1885
1840,1862,1857
1829,1859,1770
1874,1842,1850
1856,1799,1920
1850,1807,1855
1811,1867,1779
1838,1841,1799
1840,1814,1903
1857,1872,1861
1885,1836,1749
1904,1829,1808
1819,1817,1901
1815,1826,1881
1872,1861,1792
1862,1855,1807
1840,1808,1884
1805,1796,1808
1906,1875,1761
1872,1840,1856
1818,1799,1918
1762,1808,1831
1845,1835,1764
1913,1868,1808
1885,1858,1901
1810,1829,1866
1779,1808,1749
1871,1841,1825
1863,1820,1907
1819,1840,1870
1858,1895,1758
1953,1878,1839
1863,1818,1886
1779,1811,1872
1872,1855,1802
1930,1842,1829
1811,1799,1881
1819,1839,1906
1892,1856,1744
1865,1861,1789
1830,1827,1874
1755,1787,1840
1847,1831,1777
1900,1836,1808
1942,1845,1936
1923,1837,1885
1899,1889,1774
1853,1827,1800
1716,1788,1890
1763,1815,1821
1846,1855,1718
1856,1862,1840
1845,1819,1933
1859,1853,1931
1875,1854,1786
1920,1843,1789
1851,1842,1874
1860,1841,1838
1871,1857,1786
1840,1841,1827
1826,1845,1949
1824,1794,1840
1892,1869,1727
1827,1819,1722
1789,1838,1913
1852,1850,1927
1883,1889,1839
1845,1850,1791
1893,1842,1887
1909,1841,1898
1847,1838,1798
1861,1834,1793
1834,1823,1882
1807,1815,1867
1837,1859,1807
1904,1870,1841
1855,1851,1909
1808,1808,1848
1863,1826,1746
1872,1846,1823
1818,1857,1927
1830,1841,1861
1938,1873,1763
1941,1851,1783
1828,1877,1943
1826,1885,1940
1835,1811,1793
1851,1804,1796
1811,1840,1897
1827,1858,1901
1873,1856,1794
1895,1853,1807
1866,1869,1953
1845,1854,1922
1845,1843,1744
1919,1848,1775
1936,1831,1874
1838,1843,1879
1809,1860,1813
1900,1846,1825
1821,1820,1866
1758,1792,1856
1856,1839,1797
1895,1889,1856
1813,1813,1840
1839,1815,1808
1937,1854,1802
1899,1875,1844
