1738,1879,1779
1715,1917,1756
1808,1967,1890
1765,1856,1878
1797,1827,1838
1721,1872,1852
1805,1964,1906
1802,1949,1893
1790,1937,1885
1857,1956,1889
1837,1984,1925
1681,1936,1872
1787,1947,1854
1786,1947,1851
1780,1969,1919
1745,1917,1865
1759,1936,1847
1802,2010,1920
1817,1987,1973
1824,1987,2010
1679,1882,3890
1495,1786,1241
1581,1830,1046
1680,1849,1630
1679,1870,1920
1699,1920,1909
1779,1993,1844
1747,2000,1811
1712,1984,1818
1773,2055,1826
1823,2093,1835
1706,2004,1824
1687,1994,1828
1735,2064,1827
1783,2117,1826
1813,2126,1828
1726,2059,1830
1705,2055,1827
1741,2074,1827
1777,2105,1825
1762,2096,1830
1745,2096,1827
1744,2126,1831
1727,2109,1821
1712,2075,1831
1737,2098,1826
1776,2143,1829
1789,2148,1829
1744,2105,1827
1755,2112,1830
1773,2115,1828
1786,2128,1825
1776,2105,1824
1761,2093,1872
1769,2112,2014
1738,2085,1999
1727,2059,1904
1757,2091,1922
1758,2101,1916
1829,2151,1958
1756,2097,1936
1686,2041,1899
1727,2070,1913
1808,2123,1962
1776,2098,1911
1745,2110,1877
1746,2109,1881
1763,2118,1889
1744,2093,1872
1761,2103,1821
1807,2143,1894
1774,2113,1910
1742,2088,1837
1733,2077,1810
1760,2116,1845
1805,2142,1847
1774,2126,1822
1725,2100,1798
1750,2112,1839
1763,2114,1847
1751,2100,1790
1772,2128,1776
1869,2201,1910
1819,2143,1846
1716,2071,1776
1702,2080,1771
1803,2154,1846
1823,2135,1866
1734,2057,1744
1734,2071,1728
1774,2110,1813
1787,2112,1856
1812,2119,1803
1791,2110,1792
1767,2080,1767
1767,2095,1808
1747,2078,1782
1730,2039,1737
1773,2092,1815
1790,2099,1809
1840,2125,1795
1788,2096,1746
1754,2083,1765
1740,2071,1795
1751,2063,1759
1775,2080,1693
1818,2102,1806
1798,2064,1797
1776,2033,1744
1757,2059,1791
1747,2064,1805
1778,2066,1756
1797,2063,1725
1777,2032,1711
1763,2044,1793
1753,2035,1803
1776,2021,1752
1808,2059,1778
1805,2062,1814
1829,2043,1807
1826,2047,1776
1744,2000,1725
1733,1981,1679
1740,1990,1745
1771,1986,1755
1810,2024,1764
1840,2043,1827
1789,1991,1790
1743,1955,1712
1770,1970,1700
1808,1999,1779
1856,2026,1803
1803,1973,1744
1743,1953,1713
1767,1974,1771
1779,1961,1759
1807,1968,1738
1802,1953,1737
1773,1961,1754
1771,1962,1777
1778,1949,1727
1783,1942,1683
1862,2000,1793
1872,1998,1826
1766,1891,1707
1751,1904,1710
1808,1949,1779
1805,1936,1775
1820,1957,1738
1805,1933,1740
1806,1918,1763
1835,1918,1785
1806,1856,1674
1791,1874,1697
1782,1918,1807
1809,1904,1785
1810,1881,1699
1781,1872,1728
1790,1887,1794
1790,1855,1772
1777,1807,1649
1821,1836,1661
1850,1893,1776
1875,1904,1826
1760,1827,1742
1723,1810,1685
1770,1902,1721
1822,1866,1763
1861,1924,1751
1808,1835,1735
1792,1845,1776
1807,1865,1784
1821,1856,1744
1840,1801,1715
1808,1791,1754
1774,1816,1764
1783,1776,1697
1808,1801,1714
1905,1898,1806
1825,1818,1792
1768,1796,1722
1814,1840,1728
1831,1829,1733
1840,1777,1797
1818,1781,1702
1776,1699,1662
1762,1773,1713
1811,1795,1728
1855,1798,1763
1866,1777,1755
1849,1789,1766
1803,1777,1770
1814,1743,1669
1840,1755,1662
1825,1813,1765
1821,1766,1791
1803,1713,1712
1793,1791,1648
1872,1760,1796
1904,1818,1835
1795,1763,1722
1808,1763,1615
1888,1839,1791
1854,1774,1865
1792,1731,1771
1789,1736,1697
1826,1782,1781
1854,1790,1794
1815,1764,1667
1811,1792,1669
1830,1755,1764
1859,1794,1801
1845,1747,1719
1776,1719,1680
1820,1771,1753
1826,1750,1731
1807,1723,1692
1769,1711,1638
1814,1764,1767
1824,1774,1793
1792,1744,1676
1851,1781,1649
1870,1735,1722
1783,1718,1754
1775,1763,1698
1834,1789,1687
1808,1729,1727
1765,1694,1648
1792,1724,1520
1845,1808,1676
1874,1746,1837
1782,1755,1759
1716,1701,1647
1772,1730,1651
1872,1838,1759
1837,1754,1777
1814,1749,1718
1783,1658,1626
1778,1745,1671
1769,1755,1721
1799,1789,1599
1825,1745,1680
1805,1719,1748
1808,1744,1666
1821,1761,1704
1814,1744,1740
1805,1770,1739
1851,1776,1708
1789,1709,1663
1761,1665,1638
1775,1744,1680
1875,1825,1735
1811,1713,1715
1756,1671,1693
1770,1607,1692
1807,1715,1701
1799,1684,1677
1840,1776,1719
1889,1818,1682
1812,1679,1643
1734,1646,1648
1739,1681,1639
1764,1713,1738
1837,1764,1808
1223,1694,1649
1508,1754,1616
1744,1755,1727
1910,1810,1799
1829,1750,1648
1863,1711,1679
1933,1724,1750
1871,1746,1677
1762,1731,1634
1829,1648,1620
1859,1762,1714
1850,1719,1747
1675,1741,1699
1173,1729,1701
2111,1729,1712
1617,1807,1750
1115,1664,1639
1191,1649,1618
2250,1706,1693
2760,1776,1697
2261,1776,1623
1617,1701,1726
1731,1626,1742
2096,1746,1669
1894,1711,1645
2069,1754,1650
1965,1754,1744
1830,1651,1678
1818,1627,1612
1834,1666,1653
1839,1811,1743
1859,1712,1722
2177,1618,1637
2463,1626,1595
2537,1641,1615
2689,1686,1680
2745,1647,1654
2711,1679,1675
1910,1718,1697
2341,1710,1662
3120,1642,1613
3721,1626,1681
3734,1665,1665
3651,1695,1686
3606,1645,1621
3347,1648,1635
3440,1712,1681
3750,1694,1711
3739,1557,1584
3676,1667,1600
3731,1747,1622
3789,1614,1632
3823,1594,1666
3759,1617,1584
3812,1671,1669
3743,1658,1600
3770,1623,1583
3825,1591,1651
3773,1648,1718
3750,1565,1623
3665,1609,1568
3679,1555,1574
3727,1664,1674
3746,1616,1698
3664,1629,1571
3680,1645,1567
3647,1633,1683
3609,1628,1648
3507,1599,1527
3547,1611,1619
3563,1594,1703
3483,1602,1655
3466,1573,1519
3446,1567,1530
3478,1639,1661
3475,1662,1697
3427,1616,1605
3446,1649,1596
3467,1625,1645
3376,1575,1661
3267,1558,1535
3283,1605,1585
3287,1623,1643
3277,1638,1667
3268,1626,1588
3251,1585,1611
3228,1604,1648
3181,1600,1645
3159,1600,1600
3111,1568,1535
3136,1604,1616
3111,1584,1663
3063,1591,1571
3057,1606,1569
3066,1610,1599
3047,1601,1628
3034,1646,1621
3024,1604,1597
2983,1593,1602
2983,1631,1632
2949,1583,1615
2928,1586,1641
2974,1665,1706
2906,1635,1614
2880,1593,1535
2901,1603,1554
2841,1589,1616
2801,1600,1654
2800,1650,1648
2790,1594,1582
2809,1611,1647
2743,1593,1617
2683,1571,1531
2710,1600,1535
2757,1653,1687
2706,1649,1708
2640,1588,1575
2650,1570,1503
2730,1631,1626
2671,1648,1665
2590,1567,1583
2559,1583,1567
2624,1627,1648
2625,1637,1696
2559,1601,1591
2554,1610,1530
2555,1624,1659
2512,1619,1690
2471,1600,1584
2466,1648,1567
2486,1631,1586
2455,1563,1649
2418,1575,1590
2416,1600,1580
2493,1680,1696
2442,1645,1633
2368,1569,1574
2352,1600,1577
2391,1627,1648
2329,1583,1657
2337,1610,1607
2353,1638,1535
2414,1671,1675
2324,1618,1697
2211,1581,1521
2228,1603,1534
2287,1616,1662
2255,1613,1680
2217,1605,1561
2277,1643,1520
2283,1647,1642
2192,1600,1680
2112,1575,1569
2157,1638,1590
2230,1697,1664
2174,1631,1638
2134,1583,1585
2145,1605,1616
2154,1616,1650
2155,1643,1643
2094,1606,1530
2098,1637,1625
2069,1631,1680
2083,1642,1650
2067,1607,1584
2045,1649,1642
2038,1650,1665
2038,1660,1661
2044,1622,1568
2007,1605,1605
2000,1658,1687
1987,1648,1664
1936,1582,1565
1985,1629,1607
1984,1631,1661
1968,1603,1649
1995,1653,1654
1953,1629,1597
1923,1646,1635
1920,1639,1653
1918,1680,1637
1965,1693,1678
1920,1658,1707
1857,1623,1658
1835,1614,1597
1866,1618,1599
1930,1662,1661
1917,1674,1713
1808,1659,1520
1841,1633,1591
1904,1675,1759
1818,1651,1680
1790,1616,1614
1840,1648,1673
1821,1651,1663
1777,1646,1659
1757,1605,1621
1835,1724,1673
1784,1657,1649
1774,1633,1680
1738,1609,1669
1786,1683,1671
1825,1712,1735
1760,1628,1677
1693,1588,1620
1729,1633,1647
1826,1724,1726
1793,1695,1731
1698,1690,1668
1655,1618,1621
1723,1676,1695
1743,1686,1751
1699,1665,1680
1677,1634,1619
1680,1630,1706
1719,1678,1744
1722,1671,1701
1753,1712,1723
1676,1705,1745
1643,1693,1709
1603,1583,1645
1610,1627,1663
1648,1700,1754
1670,1703,1775
1674,1648,1679
1678,1665,1694
1648,1681,1808
1646,1710,1732
1634,1676,1667
1640,1654,1702
1663,1694,1789
1622,1680,1727
1590,1677,1655
1585,1669,1649
1616,1668,1758
1614,1680,1712
1631,1682,1673
1614,1669,1699
1583,1690,1677
1586,1680,1776
1610,1662,1776
1616,1710,1753
1595,1680,1728
1607,1674,1754
1603,1651,1769
1587,1699,1743
1631,1719,1773
1650,1682,1841
1593,1661,1742
1572,1667,1699
1584,1664,1727
1601,1653,1742
1567,1680,1761
1573,1686,1727
1604,1687,1815
1618,1679,1849
1633,1702,1782
1587,1734,1616
1598,1699,1714
1616,1664,1840
1582,1645,1809
1553,1712,1728
1643,1732,1776
1616,1658,1759
1577,1686,1764
1577,1716,1744
1631,1733,1837
1615,1695,1785
1583,1658,1767
1559,1653,1742
1583,1744,1822
1607,1712,1777
1616,1689,1818
1595,1722,1771
1595,1743,1766
1587,1718,1791
1597,1686,1830
1597,1723,1779
1557,1699,1775
1584,1686,1840
1588,1718,1744
1563,1697,1715
1615,1745,1882
1610,1766,1760
1535,1707,1694
1535,1691,1744
1563,1713,1873
1565,1709,1872
1555,1696,1743
1535,1713,1759
1535,1742,1846
1568,1749,1866
1558,1742,1755
1611,1767,1840
1559,1732,1830
1514,1742,1840
1520,1727,1802
1535,1739,1789
1525,1764,1823
1535,1751,1786
1533,1733,1756
1520,1729,1834
1553,1758,1889
1554,1767,1838
1522,1738,1772
1535,1763,1809
1535,1775,1857
1565,1789,1861
1615,1831,1890
1499,1717,1794
1486,1751,1813
1520,1796,1797
1520,1758,1821
1509,1734,1791
1535,1780,1799
1525,1755,1783
1533,1759,1776
1519,1764,1817
1530,1806,1936
1561,1825,1935
1519,1785,1854
1535,1787,1794
1535,1821,1811
1534,1798,1877
1489,1738,1812
1520,1802,1761
1520,1811,1825
1555,1793,1894
1530,1758,1843
1494,1759,1811
1515,1795,1850
1531,1823,1879
1518,1787,1776
1561,1840,1808
1535,1824,1869
1535,1805,1984
1525,1783,1842
1501,1773,1805
1511,1830,1931
1522,1794,1837
1532,1822,1778
1535,1792,1764
1526,1798,1887
1501,1801,1905
1522,1813,1842
1535,1808,1850
1532,1815,1794
1535,1845,1933
1559,1831,1870
1534,1798,1803
1495,1779,1859
1531,1811,1895
1535,1839,1853
1535,1814,1802
1557,1874,1901
1526,1837,1952
1506,1802,1812
1506,1789,1754
1558,1842,1905
1561,1843,1891
1531,1823,1861
1511,1839,1843
1594,1911,1874
1531,1786,1840
1479,1727,1859
1504,1797,1846
1558,1882,1862
1499,1829,1852
1488,1798,1823
1535,1839,1840
1584,1851,1851
1561,1872,1878
1493,1809,1829
1535,1863,1902
1597,1904,1876
1614,1872,1904
1519,1797,1776
1475,1835,1793
1532,1859,1869
1570,1855,1889
1554,1838,1851
1523,1844,1869
1520,1840,1859
1519,1817,1856
1521,1814,1855
1535,1867,1824
1584,1904,1910
1596,1887,1916
1632,1919,1913
1527,1817,1808
1488,1814,1792
1527,1838,1856
1535,1829,1814
1581,1856,1828
1610,1886,1909
1595,1901,1904
1530,1908,1805
1500,1835,1775
1535,1839,1843
1610,1918,1904
1567,1826,1799
1535,1824,1779
1610,1894,1919
1616,1886,1887
1520,1821,1766
1495,1819,1757
1555,1841,1854
1610,1874,1907
1650,1921,1887
1572,1825,1791
1561,1853,1792
1574,1855,1854
1581,1856,1854
1589,1873,1862
1597,1899,1877
1600,1901,1903
1609,1892,1825
1667,1889,1833
1535,1822,1886
1566,1852,1853
1614,1861,1856
1587,1789,1776
1579,1847,1811
1584,1863,1861
1600,1909,1826
1639,1859,1855
1648,1867,1857
1618,1859,1846
1611,1872,1827
1607,1903,1867
1679,1890,1873
1611,1820,1870
1634,1809,1847
1614,1851,1809
1629,1873,1858
1621,1905,1883
1599,1839,1851
1584,1834,1829
1599,1882,1875
1603,1907,1815
1644,1841,1840
1590,1808,1786
1633,1831,1899
1663,1882,1935
1587,1871,1808
1619,1915,1791
1642,1931,1885
1665,1881,1911
1593,1806,1902
1589,1837,1863
1651,1891,1891
1666,1917,1897
1666,1901,1894
1618,1841,1805
1646,1810,1829
1711,1903,1936
1589,1824,1827
1618,1882,1902
1712,1916,1954
1667,1872,1909
1618,1871,1840
1647,1935,1847
1654,1872,1906
1654,1882,1936
1666,1851,1856
1646,1831,1826
1722,1923,1952
1691,1921,1917
1650,1872,1849
1643,1847,1898
1675,1882,1943
1744,1974,1950
1641,1845,1865
1616,1870,1873
1727,1911,1872
1732,1904,1936
1685,1884,1891
1694,1840,1855
1680,1885,1930
1738,1852,1943
1700,1882,1867
1713,1899,1887
1685,1902,1945
1712,1872,1927
1733,1875,1895
1683,1866,1877
1739,1953,1963
1735,1888,1890
1669,1867,1872
1707,1857,1904
1692,1905,1952
1712,1897,1936
1733,1893,1922
1796,1914,1936
1731,1910,1886
1680,1905,1913
1713,1861,1901
1708,1855,1953
1701,1881,1959
1762,1945,1977
1728,1857,1867
1710,1871,1878
1731,1936,1921
1741,1894,1945
1742,1904,1938
1711,1886,1904
1759,1918,1998
1750,1895,1985
1763,1899,1938
1777,1956,1895
1821,1913,1919
1722,1906,2042
1766,1897,2174
1724,1869,2134
1773,1907,2063
1762,1936,1999
1754,1874,1942
1771,1899,1985
1759,1939,2009
1744,1910,1955
1754,1895,1908
1764,1861,1871
1743,1889,1952
1823,1951,2019
1762,1921,1862
1733,1918,1887
1777,1904,1945
1758,1920,1953
1847,1923,1893
1700,1868,1889
1722,1875,1935
1821,1952,1975
1825,1921,1894
1776,1876,1867
1839,1931,1939
1761,1905,1914
1770,1911,1925
1805,1910,1919
1858,1934,1966
1797,1935,1971
1789,1902,1899
1760,1930,1890
1814,1936,1920
1833,1915,1959
1755,1872,1870
1776,1913,1923
1808,1907,1942
1791,1901,1936
1840,1916,1933
1778,1903,1907
1781,1920,1942
1815,1910,1973
1827,1966,1968
1829,1926,1927
1776,1899,1958
1823,1911,2035
1776,1907,2079
1776,1902,2063
1863,1931,2032
1852,1959,1994
1808,1925,1921
1766,1922,1891
1804,1918,1923
1843,1919,1954
1777,1875,1899
1807,1869,1890
1814,1897,1902
1786,1928,1911
1762,1888,1899
1807,1936,1916
1840,1943,1954
1866,1952,1951
1831,1893,1856
1856,1875,1861
1873,1968,1981
1824,1925,1958
1863,1885,1899
1841,1922,1867
1873,1917,1949
1802,1938,1949
1802,1920,1862
1818,1888,1861
1875,1935,1953
1854,1919,1939
1817,1901,1872
1845,1937,1887
1858,1926,1931
1853,1922,1947
1813,1921,1882
1806,1891,1808
1845,1914,1891
1891,1950,2033
1840,1910,1920
1791,1868,1808
1829,1901,1897
1867,1936,1968
1875,1968,1923
1859,1927,1883
1872,1922,1942
1864,1920,1965
1812,1893,1862
1876,1925,1899
1904,1967,1969
1899,1971,1981
1835,1882,1849
1823,1879,1842
1830,1899,1935
1857,1922,1970
1872,1931,1920
1875,1927,1856
1903,1956,1926
1879,1923,1908
1836,1879,1872
1809,1895,1821
1871,1953,1890
1907,1962,1925
1923,1953,1911
1918,1905,1808
1895,1919,1872
1873,1953,1959
1840,1945,1904
1886,1914,1881
1863,1903,1831
1863,1920,1897
1872,1927,1874
1900,1950,1838
1923,1931,1915
1914,1944,1974
1855,1911,1863
1862,1898,1833
1887,1921,1905
1870,1907,1936
1897,1945,1904
1943,1925,1905
1898,1919,1872
1839,1885,1827
1835,1850,1853
1861,1863,1838
1904,1934,1920
1903,1922,1875
1884,1915,1872
1866,1899,1846
1893,1898,1845
1947,1967,1967
1920,1943,1935
1830,1858,1834
1866,1919,1893
1914,1934,1918
1897,1934,1869
1878,1859,1798
1928,1925,1918
1878,1920,1882
1888,1893,1883
1935,1936,1899
1998,2003,1924
1968,1917,1813
1861,1822,1813
1839,1868,1855
1909,1983,1978
1922,1925,1963
1877,1855,1923
1891,1842,1839
1870,1892,1804
1858,1936,1929
1920,1970,1935
1905,1905,1878
1921,1887,1826
1859,1913,1839
1856,1883,1845
1840,1865,1792
1886,1927,1911
1942,1894,1856
1919,1845,1791
1865,1911,1840
1889,1920,1861
1923,1913,1805
1918,1921,1815
1913,1891,1845
1862,1847,1815
1893,1922,1783
1903,1925,1814
1881,1866,1799
1901,1856,1891
1905,1891,1855
1882,1881,1828
1852,1845,1771
1919,1885,1839
1946,1900,1878
1893,1882,1777
1872,1875,1762
1909,1915,1808
1891,1899,1862
1910,1829,1812
1926,1906,1791
1873,1902,1806
1883,1875,1835
1873,1850,1811
1905,1853,1741
1962,1922,1891
1920,1886,1829
1920,1868,1796
1920,1861,1783
1905,1872,1839
1876,1889,1841
1866,1873,1809
1892,1872,1789
1974,1951,1822
1951,1840,1840
1823,1806,1792
1846,1821,1757
1953,1872,1807
1951,1914,1904
1920,1898,1843
1894,1867,1813
1893,1875,1845
1973,1872,1841
1917,1842,1826
1840,1804,1787
1849,1840,1811
1910,1895,1808
1968,1877,1811
1957,1878,1841
1888,1904,1845
1922,1885,1902
1904,1819,1771
1905,1821,1825
1882,1859,1866
1901,1904,1888
1904,1849,1783
1906,1838,1794
1919,1872,1861
1915,1881,1855
1904,1874,1823
1920,1852,1859
1926,1856,1898
1962,1859,1850
1937,1886,1854
1875,1859,1805
1835,1835,1874
1901,1843,1895
1955,1894,1823
1889,1879,1840
1983,1937,1937
1941,1861,1881
1853,1840,1792
1872,1859,1808
1932,1885,1834
1952,1879,1904
1914,1904,1931
1856,1808,1839
1902,1817,1891
1936,1935,1920
1950,1896,1872
1936,1871,1843
1935,1847,1874
1893,1893,1873
1889,1857,1859
1904,1857,1818
1955,1890,1923
1940,1858,1983
1900,1901,1891
1865,1885,1779
1855,1853,1826
1933,1831,1919
1970,1893,1907
1875,1855,1860
1883,1815,1856
1888,1849,1923
1887,1791,1823
1900,1903,1832
1958,1906,1890
1920,1905,1984
1885,1910,1904
1706,1802,1750
1776,1852,1931
1901,1871,1956
1921,1794,1822
1927,1845,1856
1888,1899,1926
1888,1882,1938
1887,1858,1843
1945,1885,1868
1905,1853,1930
1903,1853,1877
1872,1815,1846
1931,1856,1875
1897,1875,1947
1355,1823,1938
1532,1840,1906
1307,1872,1857
1357,1867,1875
1527,1873,1950
1515,1897,1929
1814,1904,1867
1943,1853,1915
1747,1866,1939
1318,1844,1899
1649,1822,1831
1891,1834,1855
2000,1808,1872
1987,1799,1888
1901,1818,1918
1901,1889,1883
1910,1886,1942
1956,1871,1909
1936,1911,1885
1931,1916,1951
1891,1904,1949
1898,1796,1819
1319,1791,1827
1511,1846,1950
1911,1875,1971
1984,1874,1888
1995,1863,1852
1923,1853,1872
1845,1817,1904
1939,1796,1898
1979,1897,1911
1995,1859,1930
1932,1872,1910
1872,1875,1839
1892,1836,1840
1974,1970,1942
1965,1891,1919
1905,1842,1889
1844,1821,1850
1918,1873,1888
1882,1831,1920
1916,1826,1895
1952,1849,1847
1948,1782,1919
1920,1890,1966
1933,1830,1876
1946,1869,1845
1968,1858,1871
1989,1871,1874
1927,1828,1887
1875,1839,1840
1904,1859,1894
1979,1894,1863
1953,1917,1870
1916,1846,1915
1931,1827,1937
1953,1834,1879
1987,1855,1778
1921,1867,1884
1900,1888,1894
1877,1868,1887
1894,1822,1895
1957,1787,1885
1936,1834,1904
1942,1840,1918
1958,1777,1858
1934,1860,1851
1920,1794,1791
1911,1877,1902
1919,1881,1916
1943,1895,1936
1888,1856,1927
1863,1815,1854
1886,1858,1843
1947,1852,1874
1932,1792,1904
1936,1878,1894
1968,1842,1893
1895,1833,1879
1906,1860,1892
1918,1933,1958
1894,1860,1862
1913,1838,1856
1949,1840,1891
1904,1831,1893
1891,1863,1843
1899,1861,1746
1921,1842,1904
1872,1854,1963
1874,1814,1902
1893,1869,1872
1955,1865,1917
1925,1856,1910
1883,1891,1872
1930,1896,1861
1889,1846,1893
1827,1795,1930
1927,1863,1872
1869,1827,1792
1919,1867,1936
1913,1898,1955
1892,1835,1825
1863,1905,1821
1849,1805,1902
1875,1904,1921
1840,1834,1814
1895,1904,1833
1927,1797,1954
1893,1872,1962
1962,1851,1840
1855,1826,1871
1868,1897,1938
1893,1899,1936
1916,1853,1836
1882,1863,1807
1837,1858,1875
1811,1790,1901
1823,1802,1859
1924,1856,1846
1946,1917,1903
1943,1872,1881
1847,1845,1875
1827,1871,1840
1852,1872,1891
1853,1809,1896
1840,1840,1881
1891,1871,1793
1937,1888,1906
1869,1879,1943
1826,1794,1870
1846,1807,1821
1947,1872,1901
1934,1911,1941
1850,1859,1878
1815,1808,1825
1857,1858,1888
1899,1869,1889
1871,1891,1869
1875,1862,1877
1853,1818,1873
1890,1859,1882
1844,1835,1783
1853,1831,1852
1903,1858,1911
1918,1862,1865
1839,1870,1891
1819,1845,1886
1859,1863,1897
1873,1872,1922
1825,1823,1858
1823,1822,1808
1851,1855,1888
1685,1875,1950
1682,1882,1902
1562,1891,1839
1763,1885,1886
1874,1818,1882
1875,1828,1819
1879,1841,1850
1862,1872,1949
1627,1861,1891
853,1829,1850
1489,1858,1871
1999,1908,1906
1985,1810,1878
1911,1809,1827
1839,1850,1809
1715,1840,1861
1567,1888,1885
1680,1840,1812
1870,1845,1859
1923,1867,1936
1925,1869,1939
1875,1853,1904
1813,1885,1845
1835,1882,1833
1927,1872,1899
1875,1821,1858
1871,1847,1862
1906,1872,1870
1945,1899,1848
1853,1846,1802
1838,1808,1802
1859,1831,1891
1885,1865,1919
1895,1856,1872
1927,1889,1878
1930,1893,1867
1926,1858,1866
1896,1818,1851
1872,1872,1881
1858,1923,1885
1907,1869,1858
1887,1777,1783
1865,1851,1878
1864,1873,1873
1869,1857,1906
1889,1840,1840
1881,1842,1793
1874,1862,1886
1901,1893,1907
1897,1878,1902
1924,1872,1871
1983,1867,1898
1865,1859,1858
1787,1811,1813
1827,1829,1813
1862,1856,1871
1712,1839,1904
1723,1841,1854
1174,1857,1796
170,1904,1889
1323,1904,1922
1989,1863,1852
1392,1811,1809
0,1862,1868
0,1863,1866
1031,1871,1842
2121,1900,1811
2331,1870,1915
2107,1829,1863
1903,1810,1830
1879,1812,1798
1955,1822,1817
2011,1845,1872
2047,1869,1865
1962,1850,1825
1957,1877,1870
1962,1841,1842
1938,1814,1807
1949,1871,1778
1975,1837,1869
1987,1854,1930
1955,1838,1858
1964,1872,1823
2032,1939,1856
2013,1901,1891
1929,1803,1819
1915,1793,1805
1919,1867,1883
1963,1863,1894
1925,1815,1829
1910,1903,1802
1935,1861,1815
1989,1852,1903
1953,1822,1840
1905,1849,1776
2000,1873,1872
2031,1881,1956
1902,1842,1793
1806,1815,1761
1883,1829,1815
1987,1902,1836
1990,1889,1835
1924,1853,1892
1904,1845,1852
1904,1808,1825
1885,1813,1805
1917,1834,1818
1852,1841,1833
1894,1899,1905
1904,1894,1872
1873,1848,1802
1868,1880,1861
1983,1904,1855
2004,1813,1798
1919,1795,1806
1877,1840,1912
1901,1863,1907
1978,1898,1823
2032,1917,1810
1911,1793,1897
1872,1812,1822
1859,1826,1755
1920,1840,1783
1961,1877,1904
1945,1866,1891
1875,1870,1834
1888,1878,1753
1958,1863,1830
1971,1840,1901
1936,1864,1844
1925,1866,1764
1883,1857,1847
1879,1837,1905
1943,1901,1825
1970,1894,1767
1911,1838,1880
1869,1829,1937
1855,1808,1805
1872,1822,1712
1952,1850,1856
1867,1809,1924
1870,1835,1840
1877,1882,1746
1924,1885,1869
1921,1859,1893
1931,1840,1867
1866,1833,1790
1856,1840,1831
1875,1819,1819
1920,1872,1833
1925,1871,1814
1874,1831,1825
1855,1839,1883
1883,1863,1847
1897,1857,1826
1889,1865,1837
1891,1857,1823
1834,1777,1833
1862,1821,1825
1942,1923,1861
1918,1872,1831
1841,1811,1771
1810,1813,1776
1866,1854,1853
1943,1909,1873
1907,1842,1840
1834,1840,1776
1856,1839,1872
1840,1861,1927
1839,1861,1813
1914,1860,1794
1905,1922,1893
1886,1829,1864
1830,1815,1786
1817,1843,1699
1837,1845,1827
1497,1827,1903
1790,1830,1861
1861,1875,1780
1763,1872,1808
1772,1883,1904
1887,1881,1856
2046,1795,1744
1931,1866,1792
1827,1911,1959
1808,1850,1866
1824,1824,1721
1840,1840,1808
1834,1842,1932
1834,1882,1809
1828,1815,1781
1834,1820,1843
1828,1886,1867
1836,1872,1822
1835,1800,1822
1831,1857,1904
1831,1859,1834
1826,1817,1821
1837,1879,1868
1839,1904,1885
1835,1856,1855
1829,1787,1841
1835,1837,1746
1837,1811,1803
1829,1878,1823
1831,1821,1807
1831,1799,1791
1822,1837,1887
1803,1861,1909
1814,1852,1840
1826,1837,1709
1871,1839,1827
1841,1871,1911
1410,1920,1833
483,1874,1744
2036,1806,1803
2346,1801,1911
2014,1775,1803
1760,1872,1757
1452,1857,1814
1867,1881,1911
1520,1820,1866
176,1819,1781
1617,1818,1846
2383,1840,1855
2422,1821,1802
2359,1840,1769
2078,1921,1843
1851,1891,1789
1639,1808,1771
1777,1759,1847
1845,1843,1845
1776,1813,1897
1774,1779,1763
1804,1849,1779
1851,1907,1937
1817,1840,1934
2064,1783,1808
1882,1823,1712
1850,1801,1811
2022,1858,1841
1963,1862,1796
1876,1804,1817
1835,1790,1741
1673,1812,1839
2242,1810,1889
2262,1871,1835
1947,1854,1792
1717,1798,1829
1754,1816,1759
1879,1867,1801
1873,1851,1885
1814,1865,1823
1458,1815,1847
1869,1813,1805
1967,1854,1861
1878,1840,1821
1809,1810,1779
1797,1820,1792
1808,1856,1802
1830,1836,1893
1837,1861,1776
1837,1809,1840
1819,1825,1904
1827,1893,1913
1811,1873,1783
1817,1818,1750
1951,1830,1872
1955,1853,1909
1885,1859,1762
1830,1840,1755
1818,1815,1883
1835,1819,1904
1837,1844,1856
1836,1818,1741
1834,1871,1868
1838,1863,1878
1865,1808,1744
1904,1805,1752
2077,1886,1861
2162,1847,1872
2150,1811,1863
2173,1845,1842
2212,1858,1772
2316,1857,1823
2349,1819,1840
2313,1821,1836
1520,1904,1877
817,1839,1821
1344,1815,1793
1819,1874,1793
1953,1899,1824
1953,1784,1877
1875,1808,1853
2031,1917,1809
1838,1936,1891
1742,1803,1859
1707,1776,1798
2065,1826,1652
1968,1808,1777
1843,1807,1947
1806,1836,1883
1818,1831,1730
1600,1866,1830
1680,1865,1873
1836,1781,1797
1872,1828,1818
1850,1914,1845
1855,1862,1757
1831,1798,1831
1802,1846,1863
1853,1889,1886
1873,1873,1883
1947,1811,1786
1833,1835,1782
1687,1915,1921
1744,1859,1868
1759,1803,1792
1928,1803,1686
4095,1851,1859
3107,1849,1851
1870,1809,1815
1603,1806,1820
1759,1869,1877
1927,1866,1879
1922,1830,1735
1853,1830,1802
1825,1883,1865
1817,1847,1859
1838,1808,1826
1511,1825,1808
1738,1873,1790
1863,1838,1840
2017,1813,1815
2016,1839,1771
1870,1910,1849
1797,1892,1850
1821,1805,1820
1791,1804,1778
1835,1806,1851
1860,1866,1857
1759,1847,1833
1683,1843,1817
1915,1904,1936
1964,1853,1861
1872,1866,1779
1775,1825,1744
1760,1812,1859
1717,1833,1838
1855,1856,1798
1938,1872,1776
1920,1861,1847
0,1860,1867
0,1863,1814
0,1870,1835
0,1840,1830
0,1843,1815
0,1824,1831
0,1842,1840
0,1886,1906
833,1935,1906
3357,1885,1783
4095,1792,1761
4044,1853,1859
3877,1856,1840
3776,1820,1793
3973,1867,1807
3810,1872,1835
3581,1838,1830
3644,1837,1803
3726,1840,1793
3825,1841,1870
3765,1875,1871
3734,1871,1831
3625,1824,1775
3728,1840,1835
3885,1819,1849
3632,1865,1772
3407,1892,1744
2669,1846,1873
2977,1821,1906
1677,1840,1807
1462,1841,1773
1744,1872,1827
1889,1885,1872
1857,1889,1844
1849,1846,1793
2003,1857,1840
1931,1865,1893
1843,1824,1824
1808,1811,1762
1805,1888,1786
1834,1869,1905
1727,1823,1846
1872,1859,1840
1870,1894,1851
1831,1911,1888
1840,1855,1797
