870,1821,1822
775,1872,1763
1180,1895,1850
2331,1828,1888
4095,1831,1807
2416,1858,1761
2133,1861,1850
208,1844,1936
1819,1857,1847
1938,1859,1744
1233,1858,1819
2182,1840,1936
2789,1839,1834
2251,1829,1722
1309,1830,1867
3338,1810,1945
2778,1803,1825
2221,1891,1759
2043,1852,1840
1905,1806,1889
1834,1880,1786
1837,1826,1776
1889,1855,1860
1920,1850,1903
1855,1821,1830
1843,1872,1777
1796,1822,1872
1883,1808,1936
763,1824,1844
2301,1849,1753
2117,1808,1840
1862,1841,1922
2037,1840,1806
1939,1830,1750
1842,1850,1855
1819,1805,1935
1781,1829,1835
1865,1899,1755
1863,1861,1831
1845,1846,1943
1791,1871,1867
1859,1866,1747
1844,1873,1872
1840,1853,1971
3029,1810,1828
4095,1779,1747
4095,1866,1855
4095,1856,1938
4095,1897,1819
4095,1856,1754
4095,1875,1856
4095,1839,1911
4095,1891,1797
4095,1818,1707
4095,1842,1819
4095,1850,1959
3056,1840,1869
1857,1828,1744
1569,1862,1808
1723,1879,1922
1846,1818,1825
1868,1826,1749
1846,1824,1833
1841,1840,1936
1840,1840,1840
1833,1923,1773
1839,1881,1858
1838,1840,1924
1834,1799,1824
1836,1850,1766
1835,1855,1856
1827,1826,1919
1839,1865,1871
1813,1922,1811
1799,1831,1821
1775,1788,1879
1831,1793,1821
1734,1869,1771
1680,1868,1876
1787,1830,1917
1833,1842,1812
1635,1866,1783
1611,1861,1885
1603,1844,1938
1695,1875,1863
4095,1872,1775
3067,1858,1834
2544,1838,1929
2234,1856,1885
1777,1856,1754
1361,1855,1819
2096,1859,1937
2109,1874,1866
1902,1871,1778
1807,1853,1835
1817,1808,1870
1835,1817,1805
1843,1851,1773
1840,1856,1859
1840,1843,1951
1834,1845,1866
1835,1866,1770
1835,1855,1800
1835,1840,1936
1836,1838,1869
1839,1871,1777
1837,1851,1847
1836,1826,1930
1840,1848,1860
1837,1870,1779
1838,1858,1849
1836,1841,1919
1834,1857,1840
1838,1895,1745
1835,1867,1832
1836,1807,1921
1835,1812,1840
1875,1858,1776
1938,1856,1854
1986,1835,1921
2084,1843,1827
2227,1879,1739
2284,1846,1853
2276,1821,1933
2304,1822,1823
2485,1862,1733
2600,1873,1837
2613,1837,1943
2450,1808,1831
2510,1839,1719
2681,1840,1814
2702,1834,1915
2743,1847,1828
2829,1870,1766
2892,1906,1871
2675,1810,1888
2000,1808,1843
1726,1855,1797
1745,1853,1856
1854,1835,1911
1879,1843,1834
1854,1875,1758
1837,1862,1842
1828,1835,1900
1833,1853,1837
1833,1873,1755
1831,1840,1819
1801,1802,1891
1855,1808,1824
1845,1861,1760
1831,1858,1841
1829,1843,1933
1830,1842,1855
1831,1905,1803
1835,1866,1815
1835,1839,1913
1833,1807,1842
1837,1843,1757
1831,1841,1815
1835,1824,1899
1833,1840,1850
1827,1862,1767
1833,1867,1858
1834,1853,1935
1831,1845,1868
1837,1859,1777
1835,1852,1834
1843,1831,1923
1923,1840,1862
2000,1867,1745
2022,1872,1861
2023,1861,1953
2054,1863,1878
2060,1850,1755
2103,1845,1839
2111,1834,1917
2151,1827,1814
2275,1872,1747
2215,1859,1871
2114,1834,1936
2135,1830,1829
2237,1871,1745
2272,1856,1825
2255,1841,1919
2278,1850,1835
2317,1863,1728
2356,1853,1830
2320,1831,1939
2304,1841,1866
2361,1858,1776
2393,1843,1840
2379,1823,1862
2375,1835,1819
2461,1875,1793
2466,1867,1872
2429,1842,1949
2098,1818,1802
1411,1841,1727
1962,1850,1824
2039,1839,1920
1903,1841,1833
1807,1871,1771
1818,1856,1840
1839,1824,1921
1827,1831,1847
1843,1872,1767
1840,1850,1826
1360,1815,1879
1409,1846,1811
2013,1867,1763
1984,1863,1861
1327,1835,1936
2384,1838,1841
2224,1874,1756
1877,1852,1845
1775,1810,1907
1799,1782,1778
1840,1839,1722
1841,1847,1850
1840,1831,1935
1834,1835,1843
1838,1866,1746
1203,1861,1834
1462,1841,1883
2251,1822,1782
2438,1856,1765
1994,1853,1843
897,1821,1910
0,1833,1786
2481,1845,1723
3125,1835,1857
2231,1803,1857
1715,1819,1837
1701,1872,1767
1808,1856,1872
1855,1810,1884
1849,1815,1789
1837,1842,1744
1830,1857,1827
1831,1855,1945
1830,1866,1856
1834,1851,1754
1837,1819,1813
1834,1817,1899
1834,1849,1845
1836,1840,1754
1836,1840,1779
1834,1823,1889
1831,1849,1840
1836,1865,1778
1835,1858,1846
1815,1823,1927
1835,1823,1805
1831,1863,1763
1841,1862,1837
1823,1843,1935
1471,1851,1854
2026,1840,1735
2007,1874,1830
1865,1847,1920
1840,1830,1834
2021,1857,1750
2256,1847,1811
2323,1831,1922
2378,1861,1879
2370,1843,1749
2343,1825,1811
1530,1811,1894
1639,1839,1846
1805,1853,1750
1911,1850,1803
1874,1842,1938
1834,1843,1919
1823,1852,1772
1835,1872,1804
1833,1867,1927
1838,1808,1805
1834,1843,1786
1836,1831,1785
1835,1837,1918
1808,1810,1841
1837,1840,1756
1689,1851,1835
1897,1837,1938
1891,1835,1877
1845,1844,1759
1824,1879,1809
1826,1842,1921
1827,1829,1814
1836,1849,1731
1837,1843,1853
1832,1835,1914
1833,1855,1865
1829,1866,1744
1837,1839,1801
1828,1829,1920
1835,1819,1839
1831,1856,1741
1840,1871,1825
1826,1835,1889
1823,1840,1814
1889,1878,1796
1915,1856,1870
1882,1831,1913
1901,1833,1841
1955,1860,1760
2000,1863,1758
1989,1829,1919
1979,1850,1845
2018,1869,1762
2034,1845,1850
1996,1845,1938
2019,1859,1866
2062,1872,1732
2078,1846,1827
2047,1824,1923
2045,1838,1777
2046,1838,1725
2122,1856,1853
2098,1824,1927
2084,1831,1821
2121,1871,1747
2179,1851,1835
2177,1839,1934
1933,1866,1936
1433,1855,1768
1687,1840,1792
1865,1826,1897
1881,1856,1869
1843,1877,1766
1825,1872,1827
1830,1840,1881
1827,1827,1813
1839,1869,1758
1831,1857,1870
1834,1840,1938
1830,1837,1856
1837,1872,1723
1835,1840,1801
1831,1812,1914
1834,1840,1871
1830,1873,1807
1835,1872,1859
1829,1865,1939
1829,1838,1796
1833,1846,1693
1831,1853,1842
1840,1823,1915
1834,1840,1819
1838,1863,1755
1837,1869,1839
1833,1831,1919
1829,1829,1844
1831,1843,1745
1839,1854,1831
1831,1842,1911
1831,1839,1851
1872,1871,1795
1909,1871,1845
1919,1861,1949
1859,1829,1835
1922,1866,1780
1935,1861,1852
1905,1839,1918
1861,1818,1824
1894,1833,1741
1933,1840,1821
400,1823,1920
1701,1838,1855
2145,1867,1774
1995,1862,1843
1837,1840,2019
1799,1840,1810
1821,1851,1753
1835,1863,1813
1837,1847,1906
1835,1842,1825
1830,1871,1761
1830,1854,1843
1831,1830,2010
1833,1840,1909
1833,1887,1812
1830,1873,1883
1834,1824,1893
1832,1829,1843
1829,1866,1795
1831,1851,1840
1831,1840,1926
1838,1845,1859
1834,1867,1774
1835,1883,1860
1833,1840,1909
1830,1822,1811
1835,1842,1741
1835,1856,1869
1830,1840,1961
1837,1821,1830
1837,1853,1757
1837,1867,1875
1815,1835,1931
1838,1840,1840
1021,1870,1745
1280,1856,1855
2320,1840,1950
2188,1842,1871
1874,1856,1752
1776,1856,1835
1803,1819,1887
1836,1847,1842
1840,1866,1796
1838,1865,1872
1835,1834,1936
1837,1841,1843
1831,1878,1779
1819,1890,1872
1837,1837,1927
1811,1831,1839
1823,1839,1729
1814,1847,1841
1829,1825,1920
1831,1839,1850
1851,1860,1747
1830,1861,1843
1808,1830,1927
1867,1840,1830
1799,1869,1759
1853,1873,1875
1840,1844,1934
1819,1873,1878
1833,1866,1749
1813,1835,1797
1837,1811,1904
1872,1823,1838
1815,1852,1750
1842,1855,1837
1893,1836,1941
1851,1847,1822
1872,1859,1728
1939,1862,1843
1873,1841,1961
1812,1838,1869
1823,1856,1758
1905,1856,1843
1935,1841,1904
1886,1850,1840
1939,1865,1751
1978,1857,1837
1965,1872,1958
1867,1837,1829
1901,1835,1723
1968,1854,1830
1962,1814,1897
1966,1831,1822
1975,1874,1781
1991,1858,1836
1984,1820,1870
1947,1834,1827
1985,1877,1780
2019,1858,1853
2007,1846,1921
1968,1833,1806
2006,1843,1729
2055,1853,1831
2013,1847,1937
1981,1843,1840
2033,1884,1774
2029,1872,1840
1971,1835,1898
1954,1830,1788
2032,1867,1740
2032,1872,1852
2064,1851,1907
2064,1850,1831
2038,1873,1770
2085,1886,1851
1996,1849,1922
2023,1838,1829
2081,1862,1722
2065,1863,1837
2058,1855,1934
2045,1831,1809
2064,1835,1717
2106,1875,1854
1990,1831,1897
1965,1831,1824
2064,1846,1731
2076,1858,1826
2096,1867,1942
2067,1853,1813
2046,1854,1717
2036,1845,1824
2017,1815,1878
2031,1820,1807
2057,1865,1751
2065,1861,1855
2030,1836,1914
2070,1856,1840
2059,1857,1728
2060,1841,1803
2096,1831,1885
2045,1839,1806
2141,1857,1746
2176,1872,1847
2068,1834,1920
2000,1827,1808
2107,1855,1727
2079,1847,1845
2064,1827,1919
1992,1834,1809
1933,1861,1728
2037,1859,1831
2038,1830,1910
2019,1836,1826
2064,1859,1744
2060,1851,1807
2055,1831,1888
2101,1860,1817
2112,1861,1741
2077,1855,1853
2005,1838,1936
1973,1823,1831
2047,1847,1738
2082,1855,1821
2128,1841,1906
2096,1841,1804
2044,1855,1743
2037,1854,1840
2000,1829,1914
1994,1843,1834
1956,1866,1762
1951,1859,1843
1971,1838,1919
1901,1839,1829
1781,1863,1744
1798,1866,1834
1735,1851,1919
1898,1855,1834
1904,1872,1750
1830,1869,1835
1810,1850,1907
1834,1852,1829
1810,1874,1750
1842,1875,1839
1847,1850,1919
1777,1851,1834
1827,1872,1758
1828,1861,1838
1843,1836,1936
1825,1831,1878
1852,1858,1757
1806,1854,1824
1799,1835,1891
1809,1837,1811
1857,1858,1743
1866,1847,1835
1839,1821,1925
1852,1825,1875
1779,1840,1850
1849,1839,1873
877,1813,1869
1408,1818,1831
2834,1840,1822
2385,1830,1835
1863,1803,1893
1812,1809,1822
2375,1831,1759
2897,1826,1849
3235,1802,1942
3499,1802,1894
3616,1819,1776
3529,1809,1785
2985,1790,1879
3257,1794,1819
4002,1809,1748
3205,1805,1835
2082,1769,1903
1679,1782,1838
1718,1810,1761
1821,1801,1840
1854,1781,1910
1845,1785,1827
1778,1805,1754
1856,1803,1836
1866,1776,1918
1838,1781,1840
1829,1805,1760
1838,1805,1837
1829,1771,1915
1840,1777,1835
1838,1803,1744
1831,1796,1840
1831,1765,1917
1837,1779,1840
1840,1810,1766
1835,1803,1856
1831,1773,1924
1834,1777,1834
1836,1794,1745
1831,1798,1840
1833,1776,1926
1834,1777,1840
1831,1801,1749
1836,1798,1838
1835,1776,1922
1838,1779,1842
1833,1797,1757
1835,1794,1843
1826,1776,1920
1826,1781,1841
1867,1802,1765
1889,1792,1841
1869,1775,1919
1856,1776,1840
1894,1808,1763
1915,1808,1845
1897,1778,1915
1883,1786,1834
1920,1798,1755
1943,1795,1851
1917,1769,1920
1904,1773,1840
1935,1792,1754
1966,1791,1838
1941,1775,1922
1929,1776,1837
1951,1797,1754
1971,1790,1835
1941,1763,1906
1938,1776,1833
1968,1804,1750
1990,1795,1840
1970,1770,1915
1954,1776,1831
1972,1800,1755
1989,1797,1837
1965,1775,1904
1953,1779,1831
1978,1801,1748
2002,1805,1838
1970,1787,1917
1954,1791,1834
1983,1803,1750
2000,1802,1837
1988,1791,1915
1975,1796,1842
2002,1809,1764
2018,1813,1840
2000,1793,1920
1985,1790,1845
2013,1806,1768
2029,1811,1844
2000,1798,1921
1995,1795,1847
2032,1811,1769
2039,1817,1849
2001,1803,1934
1980,1805,1853
2012,1810,1776
2037,1822,1860
2013,1818,1936
1995,1808,1850
2022,1813,1776
2043,1814,1856
2017,1808,1935
2007,1809,1858
2037,1827,1776
2047,1828,1856
2023,1814,1939
2012,1821,1871
2035,1840,1786
2053,1839,1859
2020,1828,1936
2001,1827,1855
2031,1840,1781
2047,1842,1857
2022,1830,1937
2009,1824,1859
2034,1839,1780
2053,1838,1852
2028,1831,1935
2017,1839,1863
2039,1852,1790
2061,1851,1867
2015,1838,1946
1999,1837,1855
2028,1845,1782
2057,1853,1855
2020,1843,1936
2003,1840,1853
2032,1854,1775
2047,1866,1868
2017,1855,1951
2000,1849,1871
2032,1854,1789
2043,1852,1863
2007,1842,1936
1998,1852,1866
2027,1861,1787
2035,1870,1863
2011,1856,1947
1995,1854,1869
2028,1858,1787
2036,1856,1862
2004,1856,1939
2000,1863,1861
2032,1872,1778
2039,1872,1859
2011,1863,1937
1989,1856,1867
2013,1872,1787
2033,1871,1855
2009,1857,1934
1995,1857,1857
2017,1871,1782
2032,1870,1870
1991,1855,1945
1978,1857,1856
1998,1872,1771
2012,1870,1847
1994,1853,1950
1968,1856,1856
1994,1874,1765
2010,1872,1855
1977,1845,1936
1974,1855,1859
2011,1879,1776
2021,1921,1859
1986,1850,1936
1965,1891,1864
1993,1883,1783
2003,1875,1857
1999,1810,1946
1970,1840,1872
1984,1912,1783
2000,1905,1859
1979,1833,1939
1968,1855,1872
1971,1865,1770
1985,1835,1838
1966,1809,1927
1953,1823,1853
1987,1823,1775
2000,1885,1855
1966,1845,1935
1951,1850,1849
1973,1811,1776
1997,1886,1868
1969,1855,1931
1955,1854,1840
1963,1867,1750
1987,1872,1843
1971,1860,1936
1959,1872,1869
2001,1906,1789
1958,1850,1826
1906,1808,1875
1919,1789,1812
1983,1836,1746
2015,1892,1872
1907,1829,1909
1877,1815,1814
1921,1843,1749
1963,1853,1835
1926,1840,1903
1883,1837,1814
1897,1853,1740
1925,1840,1814
1902,1819,1901
1957,1873,1817
1991,1887,1750
1941,1856,1867
1831,1760,1840
1873,1845,1759
1915,1830,1725
1939,1819,1814
1975,1846,1899
1872,1808,1851
1831,1819,1717
1904,1839,1803
1868,1851,1946
1821,1792,1771
1923,1846,1696
1914,1829,1837
1831,1783,1862
1899,1857,1848
1856,1811,1716
1875,1787,1728
1862,1835,1919
1818,1824,1880
1846,1843,1650
1929,1882,1771
1877,1887,2001
1799,1857,1854
1874,1837,1705
1938,1906,1798
1883,1883,1951
1862,1884,1888
1790,1852,1712
1805,1843,1779
1843,1835,1856
1894,1888,1811
1853,1904,1744
1779,1906,1783
1773,1884,1894
1843,1936,1840
1843,1955,1745
1847,1915,1808
1802,1859,1804
1859,1932,1873
1838,1936,1797
1814,1920,1826
1803,1885,1877
1839,1902,1811
1850,1920,1729
1834,1842,1766
1788,1901,1872
1810,1901,1776
1821,1920,1718
1827,1910,1835
1793,1798,1893
1838,1943,1823
1873,1982,1751
1863,1893,1819
1798,1882,1891
1807,1811,1787
1842,1947,1711
1931,1926,1835
1791,1859,1814
1664,1849,1746
1775,1899,1761
1849,1891,1861
1806,1871,1899
1808,1898,1814
1791,1904,1718
1837,1879,1808
1838,1872,1902
1793,1893,1842
1804,1875,1744
1801,1846,1802
1834,1878,1918
1810,1859,1833
1811,1856,1721
1818,1872,1758
1808,1893,1917
1797,1877,1855
1813,1850,1767
1792,1843,1794
1797,1855,1872
1807,1875,1845
1809,1869,1747
1819,1870,1822
1793,1840,1904
1801,1870,1826
1858,1904,1756
1897,1898,1837
1713,1780,1826
1744,1915,1798
1827,1907,1769
1875,1909,1881
1791,1876,1922
1794,1865,1785
1866,1845,1757
1840,1889,1817
1783,1854,1875
1758,1878,1845
1802,1878,1808
1839,1878,1889
1827,1872,1925
1805,1872,1856
1801,1843,1744
1817,1865,1789
1806,1845,1872
1763,1836,1837
1799,1889,1745
1847,1904,1833
1849,1872,1920
1801,1865,1831
1761,1889,1733
1818,1850,1822
1840,1885,1968
1802,1839,1845
1812,1861,1735
1839,1881,1853
1772,1792,1909
1759,1827,1797
1823,1856,1716
1829,1842,1803
1783,1839,1914
1809,1839,1859
1893,1932,1813
1822,1897,1823
1770,1829,1850
1777,1824,1824
1818,1893,1755
1879,1885,1840
1854,1840,1903
1841,1856,1843
1782,1858,1744
1773,1841,1815
1756,1799,1872
1808,1867,1888
1843,1885,1792
1822,1856,1851
1831,1875,1937
1808,1874,1877
1808,1852,1753
1814,1830,1807
1810,1829,1922
1795,1849,1830
1818,1861,1680
1869,1870,1869
1819,1850,1949
1810,1850,1823
1807,1847,1696
1821,1854,1874
1785,1823,1902
1818,1856,1847
1860,1868,1840
1871,1870,1898
1796,1840,1904
1782,1842,1837
1830,1877,1798
1843,1871,1861
1826,1827,1902
1807,1854,1877
1846,1872,1738
1831,1843,1803
1812,1837,1936
1787,1835,1883
1821,1865,1777
1844,1831,1835
1802,1840,1910
1763,1835,1810
1808,1867,1728
1840,1833,1853
1846,1851,1979
1815,1855,1852
1814,1858,1733
1814,1844,1754
1801,1842,1930
1808,1859,1911
1840,1863,1801
1850,1856,1809
1846,1851,1901
1809,1856,1879
1856,1888,1829
1840,1837,1870
1790,1822,1892
1780,1831,1811
1792,1858,1739
1831,1860,1838
1840,1829,1959
1815,1845,1860
1839,1866,1777
1823,1841,1796
1819,1818,1899
1808,1845,1838
1842,1854,1727
1866,1875,1898
1833,1842,2025
1791,1845,1887
1793,1849,1727
1840,1850,1815
1822,1834,1913
1782,1839,1840
1824,1863,1778
1878,1851,1792
1885,1841,1879
1783,1847,1871
1789,1882,1815
1810,1870,1863
1818,1843,1947
1808,1839,1811
1829,1853,1745
1871,1856,1888
1853,1859,1981
1783,1841,1833
1834,1867,1715
1838,1849,1810
1794,1821,1929
1790,1825,1829
1856,1872,1728
1883,1882,1886
1834,1850,1979
1819,1851,1857
1879,1904,1747
1878,1886,1869
1815,1830,1959
1776,1818,1835
1808,1851,1717
1920,1877,1822
1833,1840,1930
1776,1843,1859
1803,1873,1750
1856,1879,1834
1823,1831,1902
1831,1831,1825
1809,1857,1763
1835,1873,1864
1871,1871,1958
1821,1825,1814
1849,1870,1744
1890,1886,1898
1861,1859,1979
1813,1854,1846
1825,1859,1767
1850,1845,1814
1855,1869,1904
1839,1855,1855
1837,1853,1745
1838,1840,1806
1819,1817,1859
1837,1843,1841
1840,1874,1760
1882,1875,1871
1838,1841,1988
1790,1856,1861
1842,1871,1738
1910,1875,1821
1851,1845,1931
1787,1822,1825
1834,1854,1728
1856,1851,1814
1813,1819,1911
1780,1810,1840
1823,1856,1776
1873,1856,1862
1867,1840,1929
1870,1853,1869
1817,1825,1701
1856,1871,1858
1839,1846,1968
1795,1820,1789
1835,1840,1755
1854,1870,1880
1817,1847,1936
1789,1817,1793
1854,1830,1723
1889,1840,1830
1825,1829,1911
1804,1841,1840
1856,1856,1730
1917,1872,1859
1849,1823,1897
1777,1796,1845
1821,1828,1765
1869,1843,1872
1831,1847,1939
1817,1847,1867
1846,1862,1721
1872,1871,1879
1856,1847,1975
1815,1838,1845
1831,1837,1680
1892,1874,1815
1869,1826,1930
1777,1808,1850
1822,1827,1729
1859,1826,1795
1826,1823,1942
1824,1860,1813
1857,1856,1776
1886,1855,1868
1867,1839,1949
1840,1833,1822
1824,1839,1730
1856,1842,1808
1809,1811,1884
1808,1835,1847
1851,1826,1750
1886,1845,1851
1872,1856,1942
1831,1833,1906
1822,1840,1735
1871,1839,1779
1833,1823,1881
1809,1857,1870
1841,1846,1757
1861,1841,1841
1841,1854,1993
1835,1847,1853
1839,1830,1712
1877,1860,1811
1883,1819,1898
1847,1827,1821
1819,1840,1751
1850,1858,1873
1827,1829,1936
1804,1834,1815
1867,1845,1766
1899,1841,1834
1854,1825,1874
1811,1819,1824
1834,1840,1753
1852,1842,1840
1824,1840,1906
1847,1851,1847
1877,1878,1744
1879,1851,1836
1808,1795,1920
1799,1822,1777
1881,1867,1733
1842,1837,1798
1801,1828,1904
1819,1838,1841
1843,1840,1697
1828,1838,1776
1827,1845,1909
1825,1850,1863
1853,1869,1809
1855,1839,1809
1834,1830,1911
1817,1827,1777
1842,1862,1777
1894,1881,1900
1857,1833,1919
1797,1824,1808
1831,1845,1727
1854,1841,1805
1839,1813,1876
1793,1808,1808
1870,1862,1758
1887,1857,1891
1811,1840,1951
1791,1840,1837
1822,1840,1715
1860,1839,1819
1860,1852,1936
1842,1872,1873
1887,1875,1673
1903,1831,1791
1795,1792,1907
1765,1822,1810
1821,1818,1717
1872,1826,1787
1862,1847,1965
1844,1845,1843
1834,1866,1698
1840,1827,1798
1834,1791,1882
1854,1866,1871
1840,1860,1695
1883,1826,1789
1815,1791,1926
1788,1809,1849
1835,1847,1745
1863,1853,1835
1847,1827,1921
1830,1819,1858
1862,1844,1749
1885,1827,1856
1834,1809,1914
1834,1826,1786
1826,1824,1697
1878,1831,1842
1837,1812,1899
1847,1840,1904
1831,1840,1766
1907,1827,1817
1892,1815,1866
1846,1827,1823
1829,1837,1725
1823,1840,1882
1796,1796,1919
1791,1785,1792
1826,1834,1745
1861,1835,1819
1845,1809,1917
1839,1813,1859
1887,1853,1772
1873,1843,1845
1858,1814,1963
1853,1839,1873
1859,1839,1793
1808,1808,1808
1814,1790,1879
1812,1819,1813
1833,1805,1745
1872,1799,1825
1845,1791,1988
1808,1808,1854
1845,1841,1751
1893,1867,1811
1874,1829,1963
1809,1791,1872
1820,1815,1750
1875,1840,1837
1894,1814,1957
1840,1786,1819
1808,1826,1685
1863,1855,1809
1825,1797,1890
1838,1776,1869
1839,1817,1763
1873,1840,1837
1841,1792,1920
1815,1792,1899
1862,1840,1760
1877,1809,1807
1850,1798,1899
1866,1809,1818
1856,1842,1639
1840,1827,1818
1845,1793,1948
1844,1795,1861
1819,1791,1781
1849,1795,1823
1841,1796,1906
1813,1808,1839
1839,1837,1723
1919,1855,1849
1857,1799,1968
1826,1821,1883
1855,1840,1765
1869,1819,1807
1846,1776,1856
1809,1791,1805
1853,1840,1710
1889,1838,1858
1829,1807,1954
1789,1799,1839
1809,1819,1744
1888,1821,1832
1857,1823,1934
1815,1850,1847
1841,1825,1712
1842,1814,1813
1821,1798,1898
1815,1803,1859
1872,1840,1792
1886,1826,1847
1843,1840,1899
1851,1835,1828
1797,1823,1765
1810,1837,1855
1834,1824,1920
1839,1811,1839
1845,1837,1765
1872,1855,1872
1895,1869,1979
1826,1824,1863
1814,1827,1757
1820,1850,1783
1877,1794,1855
1911,1797,1861
1926,1905,1813
1861,1872,1855
1782,1815,1918
1728,1797,1821
1882,1823,1776
1917,1835,1869
1877,1838,1951
1808,1805,1840
1853,1859,1776
1851,1823,1807
1817,1840,1901
1833,1809,1846
1821,1838,1755
1857,1853,1821
1846,1775,1877
1873,1841,1872
1807,1865,1711
1827,1827,1865
1831,1808,1999
1793,1831,1872
1821,1854,1759
1904,1867,1840
1863,1845,1872
1797,1798,1830
1793,1776,1743
1828,1810,1808
1857,1840,1931
1850,1878,1839
1840,1877,1779
1856,1856,1938
1808,1775,1937
1793,1776,1795
1850,1821,1693
1907,1849,1867
1842,1814,1897
1726,1799,1730
1819,1804,1724
1858,1792,1873
1835,1783,1968
1813,1805,1821
1859,1856,1782
1906,1939,1862
1840,1835,1893
1818,1765,1809
1823,1819,1693
1815,1839,1805
1763,1845,1787
1712,1766,1727
1765,1795,1629
1808,1817,1581
1773,1794,1747
1810,1779,1841
1839,1821,1791
1786,1826,1869
1859,1840,1937
1840,1833,1863
1886,1820,1764
1802,1808,1856
1824,1794,1915
1823,1819,1813
1846,1867,1817
1865,1837,1895
1879,1776,1935
1798,1776,1845
1774,1824,1714
1838,1841,1870
1872,1827,1989
1887,1808,1856
1798,1823,1775
1887,1867,1877
1863,1827,1998
1805,1808,1880
1783,1808,1744
1824,1807,1792
1855,1829,1925
1847,1807,1877
1867,1855,1803
1842,1845,1888
1835,1812,1948
1808,1829,1835
1859,1851,1741
1917,1883,1872
1904,1841,1968
1989,1803,1879
1797,1856,1770
1825,1829,1813
1774,1804,1899
1846,1821,1867
1856,1846,1815
1902,1884,1938
1909,1869,2002
1803,1819,1871
1841,1857,1779
1916,1887,1872
1870,1804,1908
1839,1822,1840
1840,1843,1798
1882,1829,1840
1911,1840,1985
1863,1837,1890
1840,1834,1791
1872,1831,1861
1825,1838,1945
1829,1875,1902
1872,1894,1841
1904,1846,1890
1847,1824,1925
1864,1793,1822
1872,1825,1735
1934,1865,1882
1801,1840,1927
1853,1851,1847
1839,1856,1730
1877,1855,1930
1887,1830,2006
1809,1855,1917
1835,1840,1796
1867,1840,1863
1854,1816,1936
1840,1813,1845
1835,1853,1783
1838,1843,1859
1872,1845,1958
1884,1843,1873
1875,1845,1797
1840,1811,1840
1847,1843,1968
1834,1847,1867
1888,1849,1798
1867,1832,1872
1807,1827,1949
1840,1876,1812
1842,1840,1774
1926,1874,1907
1879,1835,2009
1779,1808,1859
1741,1840,1755
1953,1879,1867
1906,1841,1996
1831,1784,1815
1901,1839,1755
1879,1871,1874
1778,1857,1968
1817,1840,1821
1823,1887,1766
1927,1869,1879
1857,1853,1991
1840,1854,1891
1827,1836,1777
1866,1840,1859
1802,1843,1968
1849,1840,1835
1808,1853,1762
1919,1867,1883
1840,1819,1923
1821,1854,1862
1861,1866,1776
1876,1846,1846
1850,1837,1966
1828,1815,1825
1891,1873,1777
1915,1881,1899
1869,1840,1957
1815,1827,1824
1842,1882,1759
1872,1878,1904
1855,1853,1959
1839,1860,1842
1830,1860,1779
1861,1845,1856
1891,1799,1885
1856,1831,1852
1841,1873,1819
1860,1866,1897
1858,1868,1960
1861,1873,1856
1945,1907,1818
1897,1861,1865
1840,1850,1936
1809,1857,1806
1857,1845,1732
1922,1841,1872
1822,1801,1946
1779,1818,1796
1840,1894,1776
1856,1860,1835
1840,1808,1917
1840,1837,1859
1894,1875,1778
1894,1870,1834
1872,1820,1871
1918,1875,1859
1851,1867,1798
1823,1842,1840
1791,1821,1863
1842,1849,1859
1892,1877,1840
1877,1856,1879
1874,1860,1911
1840,1830,1810
1828,1879,1713
1871,1857,1827
1871,1835,1917
1819,1840,1837
1847,1831,1746
1875,1838,1854
1852,1849,1919
1873,1863,1840
1870,1872,1787
1877,1840,1818
1851,1859,1925
1845,1860,1871
1869,1871,1776
1893,1887,1843
1835,1833,1915
1809,1817,1821
1874,1870,1779
1885,1856,1810
1839,1801,1870
1831,1827,1845
1840,1855,1755
1899,1867,1853
1847,1846,1903
1808,1838,1838
1875,1874,1798
1882,1859,1824
1856,1831,1877
1858,1851,1872
1901,1875,1797
1878,1859,1866
1840,1821,1885
1830,1826,1741
1859,1863,1726
1857,1840,1840
1849,1825,1935
1836,1851,1872
1855,1865,1781
1872,1851,1847
1870,1837,1941
1837,1815,1845
1855,1855,1712
1940,1879,1815
1875,1808,1906
1808,1840,1858
1859,1893,1781
1886,1849,1827
1842,1809,1889
1829,1850,1872
1866,1872,1807
1872,1867,1839
1840,1839,1920
1842,1830,1839
1882,1870,1783
1901,1889,1830
1897,1850,1897
1849,1825,1811
1840,1829,1719
1877,1840,1826
1850,1847,1961
1824,1857,1878
1875,1875,1760
1871,1863,1828
1840,1837,1919
1832,1822,1851
1875,1854,1755
1872,1845,1830
1842,1839,1909
1825,1849,1815
1889,1872,1750
1874,1859,1853
1832,1838,1910
1827,1831,1847
1870,1858,1776
1901,1841,1810
1897,1841,1906
1856,1853,1851
1856,1884,1725
1857,1841,1800
1840,1824,1933
1823,1846,1845
1860,1870,1765
1890,1851,1842
1862,1825,1881
1872,1836,1835
1911,1858,1765
1885,1857,1829
1815,1826,1904
1808,1831,1843
1847,1871,1759
1904,1849,1839
1896,1819,1931
1857,1857,1856
1875,1893,1776
1874,1856,1826
1870,1830,1922
1819,1832,1813
1835,1842,1682
1909,1858,1770
1872,1825,1904
1826,1846,1929
1791,1841,1779
1831,1843,1776
1881,1856,1889
1872,1835,1882
1887,1897,1845
1861,1870,1831
1827,1826,1863
1811,1829,1808
1856,1834,1754
1850,1834,1857
1849,1829,1926
1817,1827,1829
1840,1871,1747
1882,1904,1840
1862,1796,1931
1839,1870,1841
1855,1835,1728
1878,1884,1813
1841,1823,1898
1829,1846,1841
1872,1872,1725
1879,1872,1817
1878,1865,1946
1826,1883,1866
1878,1904,1760
1907,1885,1738
1808,1773,1873
1775,1813,1841
1857,1852,1737
1904,1890,1840
1910,1843,1903
1849,1806,1831
1778,1834,1791
1798,1840,1834
1849,1845,1870
1870,1842,1851
1851,1872,1797
1839,1869,1850
1839,1825,1926
1808,1802,1829
1825,1840,1725
1913,1904,1865
1863,1828,1937
1808,1836,1797
1878,1856,1721
1882,1840,1813
1808,1793,1889
1804,1830,1847
1859,1841,1723
1860,1837,1798
1826,1835,1943
1827,1854,1864
1874,1889,1756
1877,1875,1802
1823,1814,1907
1839,1823,1847
1856,1872,1731
