1825,1854,1851
1830,1846,1808
1840,1840,1858
1821,1857,1935
1822,1872,1897
1830,1867,1781
1834,1853,1818
1845,1851,2009
1847,1863,1943
1853,1851,1815
1823,1858,1879
1845,1878,1856
1877,1874,1831
1851,1857,1949
1840,1863,2039
1827,1894,1813
1856,1894,1728
1882,1884,1748
503,1847,1801
669,1853,1954
1866,1877,1936
2330,1882,1839
2226,1847,1968
2144,1872,2824
2123,1868,2727
2145,1840,1865
2153,1839,1628
2202,1884,1860
2224,1893,1948
2195,1855,2208
2217,1872,2010
2251,1903,1820
2226,1872,1869
2226,1853,1895
2197,1813,1793
2207,1824,1829
2237,1841,1874
2257,1848,1877
2253,1858,1783
2243,1869,1783
2291,1894,1855
2294,1878,1852
2225,1840,1791
2228,1857,1842
2249,1867,1927
2247,1855,1809
2259,1874,1771
2313,1918,1859
2283,1885,1824
2261,1863,1808
2221,1821,1840
2205,1831,1954
2250,1872,2161
2218,1819,1868
2199,1815,1735
2242,1861,1765
2266,1889,1773
2219,1853,1761
2191,1831,1776
2224,1857,1838
2230,1865,1905
2231,1866,1870
2228,1872,1776
2243,1899,1845
2249,1887,1818
2205,1842,1772
2177,1827,1731
2218,1873,1801
2213,1867,1809
2189,1840,1767
2195,1846,1764
2211,1868,1818
2209,1859,1850
2165,1831,1761
2178,1848,1766
2203,1877,1822
2192,1858,1831
2183,1853,1774
2190,1868,1778
2197,1890,1831
2210,1904,1872
2154,1854,1795
2128,1823,1667
2150,1867,1802
2162,1877,1842
2176,1889,1831
2138,1867,1761
2134,1874,1797
2121,1866,1823
2118,1856,1856
2128,1873,1781
2129,1877,1819
2153,1897,1857
2112,1856,1840
2092,1846,1766
2127,1891,1807
2131,1893,1873
2130,1882,1824
2143,1921,1840
2125,1899,1767
2042,1836,1789
2053,1847,1773
2083,1856,1779
2095,1875,1826
2076,1872,1829
2064,1853,1779
2032,1870,1765
2064,1889,1844
2082,1900,1872
2064,1886,1827
2046,1872,1775
2077,1894,1825
2078,1907,1871
2061,1887,1821
2025,1859,1778
2046,1885,1840
2064,1905,1854
2098,1918,1849
2028,1872,1763
1969,1851,1777
1987,1857,1821
2043,1893,1835
1993,1860,1774
2015,1903,1838
2023,1899,1857
1982,1851,1776
1994,1865,1766
2013,1901,1826
2000,1892,1853
1997,1890,1825
1987,1885,1783
1994,1894,1822
2022,1889,1854
1961,1866,1794
2007,1884,1790
2017,1890,1839
1937,1876,1840
1921,1890,1815
1994,1915,1824
1949,1877,1837
1922,1870,1850
1998,1872,1827
1968,1870,1795
1977,1903,1847
1969,1904,1865
1917,1885,1823
1954,1887,1803
1931,1883,1821
1891,1875,1838
1953,1872,1814
1938,1889,1800
1899,1903,1850
1938,1888,1872
1923,1877,1822
1898,1870,1781
1952,1919,1856
1953,1922,1895
1890,1872,1809
1904,1852,1751
1909,1885,1825
1934,1898,1866
1937,1897,1825
1883,1851,1758
1870,1872,1811
1898,1905,1873
1875,1858,1821
1885,1862,1792
1888,1904,1856
1920,1885,1858
1842,1841,1781
1840,1851,1775
1875,1885,1853
1898,1875,1871
1878,1866,1813
1902,1893,1814
1904,1902,1849
1920,1898,1886
1899,1865,1815
1810,1836,1759
1852,1866,1813
1882,1890,1872
1851,1883,1830
1811,1849,1786
1825,1858,1822
1825,1867,1858
1861,1866,1827
1886,1885,1808
1867,1875,1827
1873,1872,1841
1852,1869,1808
1811,1842,1774
1827,1897,1853
1866,1905,1903
1795,1828,1787
1818,1826,1761
1797,1872,1839
1866,1895,1904
1828,1872,1835
1794,1843,1766
1813,1875,1840
1803,1857,1851
1781,1829,1798
1812,1840,1767
1822,1877,1838
1872,1904,1887
1762,1872,1829
1805,1874,1818
1838,1884,1851
1834,1871,1856
1776,1840,1799
1809,1881,1798
1823,1885,1840
1779,1840,1833
1775,1829,1795
1748,1821,1750
1786,1872,1833
1805,1900,1874
1814,1887,1843
1776,1855,1779
1710,1851,1808
1748,1875,1848
1759,1842,1795
1729,1835,1782
1791,1886,1852
1815,1883,1871
1778,1840,1792
1750,1835,1772
1810,1858,1830
1803,1871,1860
1817,1883,1840
1744,1839,1791
1760,1856,1830
1798,1894,1901
1767,1841,1825
1745,1839,1775
1776,1879,1838
1759,1869,1851
1750,1839,1806
1733,1823,1790
1762,1870,1839
1770,1867,1855
1711,1818,1792
1779,1827,1786
1757,1866,1847
1787,1869,1872
1763,1856,1830
1742,1870,1814
1780,1861,1838
1782,1872,1879
1772,1871,1853
1764,1812,1769
1726,1856,1834
1796,1886,1891
1714,1826,1813
1671,1806,1758
1709,1845,1817
1808,1849,1857
1698,1827,1821
1807,1860,1823
1776,1868,1849
1840,1876,1872
1701,1826,1871
1732,1846,1807
1765,1871,1857
1741,1853,1872
1631,1822,1807
1738,1845,1803
1729,1869,1856
1755,1854,1873
1711,1846,1808
1696,1857,1789
1719,1844,1812
1755,1856,1869
1717,1830,1807
1685,1820,1763
1706,1828,1811
1738,1845,1869
1743,1846,1840
1779,1840,1791
1747,1873,1850
1747,1872,1873
1739,1838,1815
1682,1840,1809
1748,1883,1885
1732,1872,1909
1718,1837,1813
1665,1821,1760
1757,1875,1859
1744,1861,1902
1718,1818,1786
1686,1821,1751
1725,1866,1825
1743,1856,1873
1712,1842,1843
1709,1838,1857
1702,1827,1869
1689,1843,1819
1729,1849,1787
1741,1849,1791
1725,1837,1891
1722,1859,1905
1714,1842,1813
1697,1821,1754
1693,1828,1781
1712,1835,1840
1726,1835,1834
1744,1862,1839
1759,1879,1884
1701,1835,1863
1703,1815,1815
1712,1823,1787
1735,1866,1835
1743,1863,1888
1674,1808,1813
1662,1797,1824
1727,1856,1894
1764,1871,1861
1733,1825,1779
1677,1802,1762
1725,1850,1870
1698,1839,1870
1682,1809,1850
1698,1839,1811
1713,1855,1841
1734,1847,1868
1742,1850,1846
1745,1843,1816
1739,1857,1876
1701,1834,1886
1683,1826,1814
1695,1821,1771
1724,1854,1838
1726,1840,1869
1721,1831,1840
1683,1795,1781
1702,1791,1808
1707,1810,1851
1703,1813,1818
1711,1830,1822
1732,1858,1877
1744,1857,1878
1737,1853,1813
1740,1840,1813
1731,1834,1862
1727,1846,1915
1708,1839,1835
1712,1845,1788
1757,1872,1859
1791,1888,1899
1746,1853,1851
1689,1811,1794
1658,1785,1831
1686,1815,1872
1697,1827,1793
1712,1835,1779
1747,1868,1856
1751,1869,1881
1730,1840,1835
1715,1834,1809
1750,1859,1867
1743,1861,1877
1703,1821,1805
1703,1824,1784
1722,1845,1842
1728,1851,1872
1725,1838,1831
1731,1838,1797
1753,1882,1862
1770,1884,1899
1715,1830,1814
1712,1823,1771
1755,1862,1851
1789,1890,1905
1713,1840,1802
1699,1831,1761
1738,1838,1825
1760,1863,1893
1733,1845,1840
1723,1845,1805
1759,1857,1850
1748,1840,1839
1738,1837,1801
1743,1840,1801
1756,1859,1849
1742,1856,1861
1735,1840,1814
1729,1840,1801
1771,1872,1861
1791,1867,1871
1777,1851,1824
1719,1851,1781
1728,1839,1817
1779,1877,1877
1774,1851,1840
1727,1811,1769
1739,1821,1819
1744,1835,1831
1744,1825,1783
1729,1829,1776
1744,1861,1838
1762,1872,1877
1779,1881,1853
1758,1851,1805
1764,1863,1839
1744,1852,1848
1776,1854,1835
1744,1811,1755
1755,1842,1811
1747,1855,1872
1746,1838,1834
1773,1859,1808
1778,1872,1842
1761,1843,1840
1735,1821,1792
1744,1829,1776
1803,1888,1881
1776,1855,1863
1741,1840,1794
1735,1829,1776
1774,1858,1854
1782,1858,1870
1762,1846,1808
1776,1857,1799
1799,1866,1861
1742,1809,1827
1725,1804,1781
1770,1837,1794
1776,1870,1848
1787,1887,1885
1787,1868,1862
1749,1808,1778
1772,1833,1842
1808,1855,1932
1773,1838,1840
1770,1840,1799
1752,1843,1805
1777,1840,1840
1792,1839,1819
1781,1849,1795
1796,1886,1861
1755,1845,1843
1744,1808,1803
1761,1835,1794
1811,1888,1872
1781,1841,1863
1765,1843,1833
1777,1838,1806
1793,1872,1863
1766,1821,1867
1717,1798,1790
1729,1826,1770
1780,1840,1856
1808,1856,1920
1775,1858,1821
1728,1767,1725
1774,1822,1825
1810,1874,1951
1776,1783,1835
1765,1873,1773
1776,1826,1809
1791,1835,1855
1786,1809,1840
1759,1891,1815
1757,1873,1839
1804,1887,1904
1776,1809,1849
1744,1791,1811
1745,1807,1783
1777,1845,1840
1751,1787,1785
1775,1824,1797
1808,1857,1856
1777,1831,1918
1742,1811,1846
1751,1823,1744
1805,1885,1833
1810,1842,1895
1776,1835,1819
1791,1839,1808
1808,1865,1863
1807,1810,1862
1747,1811,1808
1747,1819,1783
1791,1857,1860
1808,1859,1887
1797,1822,1852
1792,1855,1807
1800,1855,1840
1792,1841,1865
1751,1847,1806
1771,1846,1809
1802,1867,1854
1827,1858,1887
1835,1854,1846
1756,1800,1735
1769,1846,1811
1762,1847,1857
1757,1821,1808
1779,1833,1804
1808,1857,1872
1812,1864,1883
1793,1850,1833
1805,1855,1914
1809,1830,1865
1805,1886,1818
1797,1838,1792
1809,1826,1794
1793,1788,1823
1771,1840,1841
1756,1803,1799
1773,1871,1799
1802,1837,1856
1798,1890,1871
1810,1846,1847
1814,1861,1837
1794,1867,1850
1801,1819,1872
1776,1822,1811
1785,1818,1789
1810,1868,1850
1803,1859,1872
1804,1852,1814
1840,1814,1823
1827,1887,1859
1809,1867,1876
1797,1847,1838
1778,1825,1790
1797,1844,1827
1807,1845,1866
1813,1841,1839
1815,1863,1827
1840,1895,1874
1833,1877,1875
1802,1853,1818
1789,1824,1789
1817,1872,1860
1819,1889,1889
1806,1859,1829
1791,1883,1782
1805,1869,1825
1824,1827,1871
1824,1859,1835
1819,1825,1809
1868,1878,1874
1840,1883,1865
1791,1842,1797
1767,1808,1771
1808,1859,1838
1840,1762,1885
1822,1853,1823
1807,1851,1769
1810,1861,1822
1851,1899,1888
1808,1845,1817
1792,1840,1778
1825,1862,1839
1838,1861,1872
1856,1869,1843
1817,1845,1788
1808,1841,1815
1815,1882,1855
1804,1872,1809
1805,1869,1777
1818,1902,1828
1856,1885,1878
1856,1874,1850
1794,1803,1760
1799,1856,1797
1838,1862,1872
1825,1877,1825
1822,1883,1803
1843,1846,1867
1813,1861,1843
1794,1795,1797
1814,1844,1799
1842,1862,1843
1840,1871,1864
1808,1853,1811
1815,1861,1789
1845,1866,1835
1846,1872,1857
1807,1851,1798
1820,1853,1797
1840,1872,1847
1853,1878,1873
1845,1855,1833
1795,1823,1755
1819,1866,1818
1856,1889,1883
1817,1851,1811
1837,1858,1799
1818,1827,1819
1855,1871,1871
1837,1887,1829
1805,1851,1782
1825,1871,1838
1809,1827,1823
1826,1775,1790
1799,1859,1744
1843,1828,1827
1876,1891,1890
1823,1859,1798
1802,1903,1771
1820,1841,1838
1857,1883,1867
1856,1858,1823
1809,1790,1790
1823,1845,1826
1855,1853,1868
1840,1841,1814
1834,1904,1778
1883,1915,1850
1840,1916,1847
1792,1839,1810
1779,1849,1770
1821,1856,1813
1856,1876,1883
1819,1838,1808
1829,1821,1762
1840,1845,1819
1821,1840,1840
1809,1835,1808
1821,1834,1791
1836,1861,1851
1823,1876,1883
1819,1856,1808
1854,1868,1801
1853,1864,1840
1855,1850,1856
1829,1840,1812
1838,1865,1776
1822,1865,1818
1837,1877,1870
1813,1837,1821
1808,1835,1785
1841,1867,1891
1821,1856,1869
1823,1855,1781
1831,1840,1770
1839,1851,1835
1854,1886,1863
1817,1821,1795
1813,1813,1789
1837,1840,1838
1833,1850,1853
1840,1854,1831
1839,1827,1778
1838,1855,1841
1835,1872,1878
1823,1858,1818
1843,1873,1809
1865,1856,1817
1825,1830,1840
1824,1853,1824
1841,1849,1803
1850,1860,1830
1818,1839,1820
1790,1818,1781
1825,1838,1787
1859,1882,1871
1827,1871,1869
1808,1843,1811
1821,1840,1803
1856,1858,1853
1859,1856,1878
1858,1872,1847
1822,1856,1787
1823,1866,1812
1841,1869,1863
1851,1853,1836
1817,1810,1754
1825,1843,1809
1825,1866,1860
1823,1843,1820
1843,1851,1815
1821,1845,1840
1831,1840,1856
1837,1824,1819
1844,1840,1792
1847,1856,1835
1858,1861,1856
1815,1823,1809
1822,1840,1806
1853,1872,1856
1887,1888,1875
1863,1841,1825
1805,1823,1759
1817,1861,1839
1815,1823,1841
1815,1806,1775
1821,1821,1767
1864,1869,1841
1815,1853,1854
1804,1837,1803
1817,1840,1793
1852,1867,1861
1853,1872,1882
1829,1840,1805
1811,1827,1779
1842,1860,1852
1855,1855,1856
1847,1855,1817
1817,1840,1782
1822,1859,1846
1838,1853,1865
1805,1835,1804
1804,1835,1769
1855,1884,1847
1846,1882,1875
1831,1846,1819
1802,1811,1761
1835,1863,1843
1834,1867,1869
1801,1808,1792
1802,1815,1775
1840,1859,1836
1839,1856,1858
1840,1854,1835
1839,1866,1808
1826,1849,1818
1838,1857,1845
1824,1845,1815
1827,1840,1791
1854,1871,1855
1856,1876,1873
1843,1840,1806
1825,1822,1775
1826,1844,1843
1841,1857,1856
1854,1866,1817
1803,1821,1747
1810,1837,1808
1815,1847,1842
1827,1837,1813
1808,1832,1770
1829,1847,1815
1859,1857,1856
1834,1837,1814
1814,1835,1799
1834,1863,1853
1847,1856,1857
1859,1837,1802
1829,1831,1781
1821,1847,1824
1829,1857,1866
1819,1838,1821
1840,1857,1821
1834,1863,1840
1791,1810,1790
1792,1802,1771
1821,1840,1789
1866,1888,1871
1868,1904,1904
1774,1805,1774
1782,1802,1742
1822,1839,1808
1850,1857,1844
1825,1844,1803
1821,1850,1776
1860,1878,1858
1814,1857,1857
1821,1837,1825
1826,1831,1792
1858,1847,1837
1829,1841,1850
1815,1830,1806
1814,1837,1785
1840,1881,1847
1859,1877,1873
1803,1792,1795
1808,1808,1700
1826,1855,1866
1856,1885,1907
1838,1859,1875
1795,1834,1776
1834,1863,1815
1847,1850,1811
1795,1821,1821
1791,1810,1783
1838,1868,1858
1840,1865,1856
1807,1831,1763
1811,1822,1764
1843,1853,1797
1872,1856,1818
1823,1838,1817
1803,1841,1813
1835,1859,1839
1850,1881,1881
1831,1841,1819
1836,1840,1778
1830,1840,1829
1824,1843,1808
1808,1825,1781
1807,1828,1779
1807,1839,1825
1824,1851,1865
1841,1856,1819
1865,1867,1810
1840,1873,1833
1810,1852,1840
1798,1829,1780
1804,1836,1766
1861,1872,1823
1868,1876,1875
1826,1839,1794
1820,1850,1807
1840,1877,1845
1830,1862,1868
1833,1857,1814
1818,1861,1790
1840,1875,1817
1828,1833,1829
1842,1843,1805
1840,1859,1792
1831,1859,1818
1831,1854,1849
1832,1856,1823
1814,1854,1742
1831,1854,1826
1875,1880,1895
1868,1858,1837
1817,1846,1776
1834,1867,1834
1830,1854,1877
1810,1837,1797
1841,1858,1777
1875,1899,1863
1847,1858,1866
1851,1844,1824
1847,1858,1771
1815,1851,1787
1803,1841,1843
1826,1843,1808
1808,1827,1808
1831,1853,1825
1862,1861,1854
1840,1840,1846
1840,1831,1803
1837,1856,1825
1856,1891,1903
1833,1855,1819
1826,1823,1771
1842,1857,1840
1834,1856,1883
1827,1845,1830
1826,1847,1785
1872,1883,1840
1855,1875,1848
1863,1875,1844
1828,1830,1764
1840,1860,1841
1808,1856,1849
1813,1835,1807
1825,1840,1747
1815,1850,1831
1843,1872,1882
1822,1856,1819
1810,1840,1744
1817,1872,1808
1812,1853,1842
1804,1840,1783
1807,1843,1806
1891,1881,1839
1868,1871,1845
1787,1824,1813
1777,1811,1778
1791,1839,1834
1814,1843,1868
1840,1844,1815
1838,1848,1786
1840,1846,1786
1813,1855,1855
1805,1853,1857
1812,1856,1830
1846,1876,1818
1872,1883,1842
1821,1835,1759
1787,1818,1725
1795,1838,1837
1845,1847,1926
1840,1828,1835
1841,1853,1785
1854,1889,1794
1869,1890,1841
1778,1807,1808
1774,1776,1718
1869,1855,1906
1873,1855,1877
1863,1855,1856
1855,1850,1815
1794,1827,1712
1808,1855,1869
1837,1841,1811
1831,1825,1775
1834,1871,1853
1814,1863,1867
1846,1821,1753
1835,1827,1813
1885,1893,1946
1839,1877,1920
1818,1886,1793
1810,1874,1769
1786,1810,1767
1775,1775,1799
1821,1799,1776
1867,1860,1837
1856,1895,1919
1772,1840,1840
1793,1813,1791
1795,1813,1699
1794,1856,1841
1815,1872,1866
1851,1890,1775
1795,1808,1786
1785,1847,1883
1805,1819,1901
1803,1808,1789
1776,1846,1771
1776,1837,1765
1155,1821,1807
1399,1793,1767
1815,1837,1798
1922,1868,1901
1870,1881,1872
1828,1840,1798
1815,1759,1722
1826,1842,1808
1835,1834,1829
1831,1850,1790
1834,1781,1770
1831,1858,1893
1831,1839,1791
1827,1799,1755
1831,1779,1775
1833,1872,1872
1829,1841,1855
1835,1785,1805
1839,1779,1798
1830,1854,1791
1828,1851,1791
1831,1777,1766
1834,1782,1757
1835,1797,1823
1834,1824,1850
1833,1825,1867
1829,1871,1812
1830,1819,1729
1829,1821,1835
1827,1809,1872
1828,1807,1732
1838,1806,1776
1959,1793,1832
2047,1780,1849
1953,1826,1808
1890,1839,1815
1894,1798,1821
1920,1855,1855
1875,1791,1711
1917,1835,1759
1886,1819,1845
1925,1850,1876
1909,1792,1705
1852,1744,1799
1879,1776,1856
1921,1792,1746
1936,1859,1808
1878,1840,1887
1931,1862,1914
1896,1855,1837
1747,1765,1702
1819,1787,1728
1889,1799,1795
1762,1801,1867
1831,1795,1840
1831,1808,1823
1857,1840,1841
1767,1807,1762
1767,1845,1749
1835,1873,1933
1776,1806,1872
1797,1742,1738
1850,1797,1755
1808,1838,1749
1749,1802,1851
1717,1759,1802
1841,1814,1755
1883,1887,1841
1839,1818,1883
1712,1784,1807
1680,1789,1707
1264,1826,1838
1360,1795,1815
1701,1797,1840
2177,1840,1872
1997,1878,1845
1840,1743,1764
1793,1763,1806
1825,1831,1804
1843,1851,1748
1839,1843,1852
1829,1749,1885
1832,1718,1762
1830,1811,1787
1869,1871,1848
1781,1802,1828
1826,1810,1840
1833,1855,1862
1833,1743,1713
1827,1752,1721
1830,1774,1834
1791,1840,1911
1830,1849,1855
1825,1840,1817
1861,1792,1799
1830,1774,1776
1819,1795,1823
1849,1789,1817
1825,1789,1840
1855,1824,1870
1841,1838,1835
1851,1839,1807
1846,1861,1730
1838,1779,1894
1795,1797,1952
1731,1822,1789
1739,1809,1707
1917,1872,1830
1893,1858,1939
1746,1788,1811
1709,1788,1792
1771,1870,1872
1830,1882,1913
1920,1801,1789
1782,1811,1811
1673,1815,1787
1722,1779,1777
1728,1754,1851
1751,1800,1875
1811,1872,1865
1795,1851,1837
1801,1850,1843
1751,1770,1785
1751,1827,1747
1753,1886,1783
1762,1839,1882
1763,1839,1917
1776,1856,1928
1804,1857,1922
1787,1797,1766
1823,1824,1757
1808,1827,1840
1682,1821,1851
1723,1821,1839
1744,1845,1783
1762,1917,1842
1760,1825,1840
1786,1795,1911
1796,1814,1805
1814,1813,1795
1712,1811,1844
1823,1834,1841
1728,1805,1762
1792,1914,1845
1788,1863,1827
1727,1828,1849
1729,1797,1785
1777,1814,1872
1755,1799,1857
1793,1831,1840
1740,1838,1785
1826,1872,1853
1850,1864,1885
1871,1859,1879
1711,1808,1815
1713,1840,1809
1731,1853,1806
1782,1757,1776
1791,1792,1804
1731,1841,1856
1786,1849,1840
1785,1841,1872
1903,1840,1845
1843,1872,1926
1723,1848,1904
1685,1824,1785
1763,1844,1725
1820,1851,1841
1712,1813,1845
1691,1814,1811
1799,1868,1883
1806,1872,1872
1847,1855,1840
1747,1818,1821
1758,1833,1838
1776,1811,1799
1710,1831,1840
1727,1841,1843
1775,1835,1795
1815,1852,1854
1826,1905,1924
1817,1852,1835
1766,1741,1748
1773,1834,1878
1742,1893,1904
1749,1887,1748
1746,1782,1737
1818,1819,1873
1814,1839,1898
1750,1861,1857
1757,1887,1783
1836,1844,1795
1842,1856,1905
1841,1878,1919
1755,1841,1803
1685,1808,1733
1759,1826,1803
1748,1792,1815
1771,1808,1805
1715,1896,1872
1803,1861,1860
1796,1827,1808
1833,1829,1833
1759,1856,1838
1777,1883,1855
1740,1866,1833
1764,1856,1841
1849,1857,1879
1781,1888,1840
1806,1881,1744
1855,1818,1811
1769,1805,1857
1770,1880,1889
1734,1843,1782
1755,1874,1817
1750,1840,1871
1764,1792,1838
1763,1808,1801
1822,1893,1814
1847,1856,1846
1787,1855,1872
1730,1818,1712
1803,1845,1755
1778,1840,1895
1765,1817,1901
1770,1825,1813
1776,1834,1761
1842,1873,1876
1872,1827,1892
1813,1830,1857
1759,1856,1791
1810,1895,1847
1779,1876,1836
1763,1814,1806
1695,1779,1794
1753,1803,1776
1840,1878,1870
1835,1850,1871
1749,1821,1789
1761,1819,1826
1790,1840,1837
1809,1867,1825
1835,1837,1846
1797,1838,1883
1792,1852,1832
1771,1834,1799
1877,1858,1839
1839,1843,1865
1777,1887,1860
1754,1854,1839
1778,1818,1840
1822,1840,1871
1822,1840,1824
1808,1869,1835
1803,1811,1723
1808,1858,1821
1750,1845,1898
1746,1858,1846
1867,1895,1840
1919,1855,1872
1791,1814,1887
1742,1817,1817
1772,1801,1761
1834,1814,1714
1840,1851,1837
1799,1869,1925
1778,1887,1851
1803,1891,1796
1853,1889,1877
1791,1770,1802
1731,1804,1786
1815,1869,1823
1887,1894,1935
1853,1886,1909
1777,1872,1725
1787,1845,1812
1785,1845,1870
1763,1822,1810
1791,1831,1766
1814,1840,1770
1840,1804,1872
1779,1810,1879
1755,1841,1802
1872,1921,1879
1799,1847,1843
1748,1840,1744
1781,1851,1793
1853,1842,1862
1841,1831,1858
1783,1829,1834
1771,1801,1802
1833,1857,1879
1856,1904,1857
1831,1875,1850
1792,1869,1750
1822,1844,1829
1783,1794,1845
1763,1823,1806
1762,1815,1711
1777,1809,1837
1862,1841,1921
1840,1881,1840
1820,1917,1827
1829,1854,1838
1781,1827,1857
1761,1840,1847
1794,1815,1747
1818,1875,1872
1808,1870,1875
1874,1857,1850
1834,1840,1724
1802,1898,1862
1776,1837,1859
1810,1814,1840
1923,1808,1791
1820,1854,1826
1769,1872,1844
1796,1882,1856
1803,1840,1840
1798,1857,1851
1840,1842,1825
1792,1822,1759
1844,1889,1790
1856,1833,1817
1813,1863,1904
1773,1840,1853
1786,1840,1815
1803,1875,1837
1823,1827,1833
1811,1824,1760
1884,1865,1777
1914,1915,1863
1855,1918,1922
1743,1858,1789
1768,1804,1744
1777,1841,1883
1806,1860,1897
1818,1843,1803
1824,1843,1712
1936,1919,1872
1872,1872,1872
1778,1845,1850
1750,1856,1759
1843,1863,1815
1911,1911,1966
1819,1841,1824
1806,1834,1762
1889,1885,1844
1841,1855,1819
1776,1805,1771
1776,1812,1806
1814,1872,1881
1889,1891,1872
1907,1869,1808
1824,1818,1788
1783,1833,1838
1837,1863,1840
1840,1867,1866
1847,1805,1817
1872,1878,1861
1851,1953,1915
1835,1907,1874
1819,1775,1782
1818,1819,1744
1815,1904,1855
1794,1876,1803
1869,1828,1803
1856,1831,1811
1826,1906,1904
1810,1818,1865
1819,1782,1803
1881,1797,1807
1822,1831,1808
1836,1866,1845
1878,1894,1833
1834,1900,1833
1803,1829,1831
1795,1815,1794
1809,1824,1781
1894,1878,1872
1890,1854,1837
1805,1834,1759
1785,1856,1808
1850,1841,1890
1856,1843,1878
1856,1865,1842
1879,1903,1783
1868,1865,1856
1891,1910,1951
1811,1869,1802
1809,1824,1803
1846,1894,1871
1862,1872,1856
1877,1835,1804
1856,1829,1763
1865,1870,1840
1824,1826,1902
1840,1839,1888
1853,1840,1844
1807,1846,1827
1855,1872,1872
1841,1791,1805
1827,1834,1806
1838,1849,1838
1875,1859,1883
1856,1829,1835
1845,1831,1806
1875,1902,1885
1824,1901,1841
1755,1797,1776
1795,1853,1818
1863,1919,1838
1886,1879,1898
1850,1854,1854
1823,1901,1834
1843,1813,1862
1827,1788,1797
1855,1829,1853
1877,1869,1811
1847,1819,1856
1806,1823,1858
1850,1861,1823
1833,1873,1824
1805,1863,1851
1808,1852,1859
1840,1846,1776
1886,1889,1823
1878,1869,1911
1809,1835,1887
1761,1790,1805
1799,1842,1805
1853,1903,1860
1883,1894,1893
1875,1850,1839
1813,1918,1793
1884,1899,1827
1919,1857,1804
1824,1807,1845
1822,1827,1837
1878,1881,1875
1851,1871,1854
1808,1840,1850
1804,1826,1815
1884,1869,1840
1904,1886,1846
1786,1795,1796
1825,1802,1791
1879,1873,1874
1809,1801,1892
1792,1872,1827
1764,1866,1808
1695,1808,1751
1577,1865,1861
1471,1922,1883
1634,1815,1811
1803,1819,1840
1862,1855,1860
1946,1840,1815
1933,1891,1831
1881,1873,1842
1802,1861,1842
1802,1814,1823
1846,1821,1830
1874,1918,1857
1862,1880,1872
1874,1845,1792
1907,1837,1811
1850,1840,1840
1825,1808,1838
1789,1895,1782
1795,1709,1821
1909,1879,1934
1902,1935,1917
1803,1821,1759
1798,1818,1763
1841,1913,1853
1904,1884,1904
1851,1807,1863
1803,1847,1840
1843,1850,1840
1867,1884,1853
1824,1839,1833
1858,1839,1808
1935,1904,1886
1890,1853,1855
1767,1826,1778
1776,1802,1776
1847,1840,1872
1839,1857,1904
1843,1831,1866
1840,1801,1824
1873,1909,1875
1878,1846,1862
1828,1877,1808
1840,1853,1780
1829,1842,1838
1881,1884,1904
1831,1853,1843
1842,1849,1745
1869,1859,1795
1872,1919,1927
1858,1897,1863
1793,1699,1815
1839,1840,1879
1894,1863,1850
1841,1818,1791
1840,1851,1840
1913,1961,1882
1857,1851,1853
1773,1847,1796
1840,1845,1839
1885,1857,1791
1827,1851,1840
1823,1898,1877
1893,1883,1872
1845,1761,1856
1815,1877,1843
1810,1783,1787
1873,1886,1775
1849,1856,1790
1813,1839,1842
1862,1818,1813
1850,1843,1808
1927,1905,1919
1843,1893,1948
1779,1851,1828
1763,1807,1728
1815,1823,1797
1853,1869,1873
1920,1867,1867
1893,1904,1855
1894,1864,1811
1838,1793,1827
1807,1809,1794
1815,1893,1835
1846,1870,1862
1887,1846,1950
1865,1841,1819
1811,1855,1787
1830,1891,1869
1833,1821,1847
1841,1835,1806
1927,1872,1838
1867,1843,1867
1831,1819,1835
1787,1788,1761
1793,1809,1759
1874,1865,1891
1885,1902,1874
1886,1874,1821
1869,1863,1860
1825,1847,1829
1811,1887,1819
1799,1840,1824
1839,1795,1842
1943,1856,1840
1916,1895,1901
1763,1856,1856
1787,1875,1792
1893,1862,1780
1852,1802,1886
1776,1794,1776
1806,1777,1699
1872,1846,1843
1914,1952,1970
1824,1855,1856
1868,1839,1788
1895,1886,1796
1817,1873,1823
1824,1839,1818
1831,1829,1826
1856,1847,1870
1819,1839,1872
1842,1852,1833
1837,1845,1792
1876,1883,1863
1921,1875,1892
1850,1795,1776
1810,1787,1776
1820,1821,1862
1836,1837,1828
1841,1840,1805
1822,1853,1813
1865,1875,1836
1846,1853,1843
1839,1861,1811
1822,1852,1854
1875,1896,1895
1786,1902,1879
1459,1777,1737
718,1808,1749
1251,1879,1857
1791,1835,1848
1879,1841,1829
1808,1859,1789
1751,1846,1859
1700,1838,1919
1614,1821,1815
1605,1867,1783
1828,1858,1829
1973,1868,1898
1872,1831,1830
1831,1846,1794
1869,1892,1845
1859,1876,1872
1894,1823,1845
1812,1789,1771
1731,1851,1845
1456,1904,1872
1613,1904,1856
1813,1808,1820
1872,1814,1839
1917,1872,1830
1936,1875,1805
1884,1840,1752
1872,1838,1872
1903,1858,1949
1877,1868,1849
1882,1868,1789
1907,1872,1838
1917,1887,1939
1865,1817,1836
1867,1851,1773
1919,1907,1872
1909,1875,1922
1849,1794,1808
1850,1808,1754
1899,1857,1807
1935,1887,1927
1872,1817,1804
1874,1825,1749
1878,1919,1886
1878,1914,1906
1861,1851,1841
1905,1847,1805
1909,1855,1814
1877,1856,1843
1863,1811,1801
1904,1831,1820
1908,1878,1946
1862,1856,1920
1859,1868,1851
1984,1866,1744
1931,1859,1827
1858,1873,1876
1807,1839,1805
1791,1799,1750
1872,1828,1798
1877,1869,1899
1846,1825,1814
1933,1869,1798
1919,1870,1844
1936,1897,1877
1955,1870,1824
1822,1858,1839
1787,1861,1810
1857,1840,1857
1871,1829,1807
1847,1841,1778
1888,1882,1856
1952,1897,1876
1936,1869,1823
1827,1845,1843
1817,1871,1804
1863,1822,1838
1879,1822,1808
1927,1878,1840
1906,1886,1869
1840,1861,1851
1813,1842,1828
1877,1879,1817
1942,1867,1863
1937,1893,1870
1888,1839,1795
1795,1781,1756
1823,1840,1822
1885,1886,1910
1941,1908,1872
1905,1863,1826
1837,1842,1850
1824,1856,1884
