1790,1819,1769
1851,1847,1760
1817,1858,1887
1786,1836,1918
1803,1825,1790
1865,1854,1754
1896,1858,1850
1798,1830,1897
1770,1839,1797
1819,1854,1763
1818,1857,1872
1825,1841,1910
1781,1831,1789
1872,1865,1765
1909,1850,1855
1813,1810,1869
1745,1826,1776
1798,1850,1769
1839,1840,1875
1793,1822,1900
1840,1831,1797
1744,1863,1773
1909,1861,1869
1842,1840,1889
1849,1834,1778
1856,1863,1779
1835,1861,1872
1779,1829,1898
1809,1835,1798
1859,1846,1759
1822,1853,1854
1805,1826,1873
1803,1813,1776
1840,1839,1749
1835,1872,1871
1782,1841,1903
1782,1819,1783
1840,1837,1774
1837,1841,1883
1808,1841,1927
1803,1844,1799
1872,1861,1774
1903,1857,1857
1787,1840,1927
1795,1845,1821
1836,1840,1747
1822,1829,1846
1791,1835,1872
1829,1846,1799
1879,1854,1793
1854,1856,1879
1793,1839,1875
1776,1822,1757
1840,1843,1773
1830,1855,1901
1793,1830,1904
1808,1827,1789
1883,1856,1808
1872,1855,1870
1796,1833,1906
1761,1827,1795
1817,1855,1759
1841,1857,1881
1823,1840,1904
1809,1821,1761
1830,1831,1719
1827,1837,1872
1801,1835,1922
1807,1839,1798
1859,1863,1771
1878,1862,1904
1808,1840,1905
1791,1821,1783
1829,1840,1758
1855,1855,1898
1812,1830,1910
1803,1823,1758
1841,1850,1741
1830,1853,1872
1834,1840,1918
1846,1826,1779
1811,1841,1739
1827,1850,1891
1781,1838,1931
1804,1829,1811
1866,1847,1781
1863,1851,1872
1795,1828,1883
1796,1811,1760
1835,1827,1727
1846,1846,1855
1829,1854,1904
1808,1822,1815
1835,1840,1776
1850,1855,1867
1799,1840,1904
1793,1808,1762
1838,1840,1749
1862,1861,1889
1791,1827,1936
1789,1809,1781
1837,1816,1699
1817,1814,1827
1787,1825,1927
1809,1835,1827
1844,1853,1761
1830,1843,1854
1818,1841,1901
1813,1823,1793
1856,1839,1750
1827,1839,1872
1795,1836,1904
1802,1823,1777
1854,1855,1762
1873,1850,1870
1833,1840,1904
1803,1824,1818
1811,1830,1722
1822,1838,1837
1829,1829,1903
1801,1817,1798
1826,1840,1783
1819,1846,1859
1791,1826,1890
1808,1822,1774
1852,1843,1758
1855,1847,1879
1798,1817,1873
1790,1810,1767
1837,1840,1748
1840,1846,1870
1822,1840,1890
1835,1825,1776
1886,1825,1735
1813,1843,1849
1775,1837,1910
1795,1827,1787
1883,1835,1712
1868,1855,1872
1792,1826,1891
1808,1819,1788
1827,1843,1744
1818,1842,1839
1779,1821,1862
1801,1825,1759
1855,1845,1744
1851,1851,1872
1826,1829,1901
1808,1808,1767
1835,1838,1731
1840,1846,1850
1851,1850,1901
1851,1811,1767
1827,1818,1706
1841,1853,1867
1819,1831,1915
1793,1813,1746
1827,1827,1679
1815,1845,1815
1810,1847,1927
1809,1829,1808
1815,1840,1717
1813,1842,1814
1791,1840,1887
1817,1830,1798
1856,1840,1774
1835,1849,1856
1799,1808,1872
1827,1802,1749
1850,1840,1744
1822,1839,1862
1802,1813,1882
1856,1822,1783
1882,1845,1789
1857,1837,1861
1767,1819,1873
1790,1829,1783
1855,1846,1778
1847,1854,1856
1821,1819,1890
1824,1808,1785
1840,1826,1744
1850,1840,1875
1847,1842,1917
1828,1835,1763
1812,1838,1727
1834,1840,1863
1839,1833,1929
1828,1797,1801
1843,1825,1744
1842,1841,1854
1798,1845,1893
1820,1849,1793
1840,1842,1748
1838,1843,1840
1805,1830,1886
1808,1818,1787
1854,1855,1760
1863,1863,1891
1811,1850,1953
1808,1808,1774
1893,1843,1743
1875,1833,1808
1782,1801,1850
1753,1795,1777
1815,1834,1761
1862,1852,1855
1810,1827,1873
1818,1808,1772
1873,1830,1726
1840,1845,1847
1791,1815,1955
1814,1824,1870
1843,1837,1766
1834,1840,1881
1810,1808,1916
1808,1813,1771
1876,1866,1762
1903,1835,1904
1867,1803,1927
1821,1808,1767
1790,1808,1665
1812,1840,1843
1789,1843,1915
1783,1816,1774
1826,1825,1757
1820,1827,1870
1793,1814,1913
1808,1807,1817
1853,1825,1709
1838,1840,1843
1808,1826,1913
1819,1822,1791
1871,1842,1701
1863,1851,1873
1805,1830,1915
1797,1815,1792
1851,1843,1771
1889,1861,1895
1860,1840,1883
1802,1824,1773
1817,1825,1691
1812,1838,1872
1808,1819,1936
1808,1836,1808
1868,1861,1760
1844,1854,1874
1815,1830,1904
1821,1825,1776
1867,1858,1763
1851,1856,1892
1785,1823,1915
1791,1828,1815
1861,1861,1783
1877,1868,1879
1807,1811,1877
1805,1801,1807
1857,1844,1800
1855,1840,1872
1807,1829,1919
1815,1817,1776
1869,1834,1743
1856,1840,1840
1829,1815,1938
1833,1813,1808
1853,1843,1771
1842,1840,1872
1807,1826,1909
1819,1827,1802
1879,1837,1762
1856,1858,1893
1815,1832,1894
1825,1813,1790
1878,1856,1776
1866,1854,1861
1783,1813,1878
1803,1818,1788
1904,1850,1808
1882,1837,1872
1807,1815,1911
1840,1821,1770
1878,1846,1744
1853,1831,1890
1791,1823,1936
1811,1843,1789
1862,1853,1744
1851,1840,1828
1818,1818,1875
1825,1827,1807
1859,1851,1753
1842,1856,1847
1808,1834,1936
1819,1836,1863
1879,1856,1771
1877,1863,1875
1826,1840,1911
1824,1827,1808
1861,1851,1763
1847,1861,1877
1825,1854,1936
1834,1834,1797
1891,1859,1763
1867,1856,1884
1811,1840,1891
1819,1831,1825
1879,1842,1751
1869,1860,1879
1808,1847,1887
1802,1830,1840
1853,1858,1749
1842,1858,1858
1806,1840,1871
1826,1838,1787
1878,1865,1820
1872,1874,1883
1807,1846,1885
1830,1829,1840
1876,1847,1718
1866,1853,1881
1811,1840,1904
1808,1839,1853
1862,1862,1788
1872,1872,1889
1839,1841,1894
1829,1833,1812
1891,1865,1776
1870,1870,1856
1822,1848,1891
1802,1841,1812
1836,1865,1799
1841,1859,1909
1821,1847,1904
1829,1842,1847
1872,1873,1778
1872,1862,1840
1808,1839,1895
1827,1828,1820
1873,1850,1735
1871,1863,1874
1824,1850,1915
1808,1834,1790
1879,1873,1764
1875,1863,1876
1805,1840,1919
1794,1837,1767
1855,1869,1746
1871,1870,1843
1846,1856,1963
1838,1842,1786
1872,1859,1765
1867,1869,1872
1821,1845,1918
1819,1853,1818
1854,1871,1808
1847,1871,1865
1835,1853,1900
1847,1857,1803
1862,1855,1744
1870,1866,1855
1827,1856,1915
1819,1830,1770
1839,1854,1771
1840,1871,1843
1807,1852,1931
1847,1862,1793
1872,1863,1757
1845,1844,1858
1814,1847,1901
1827,1849,1824
1855,1850,1769
1835,1851,1867
1810,1817,1886
1840,1823,1793
1875,1887,1790
1851,1869,1872
1817,1842,1883
1842,1839,1795
1869,1858,1758
1867,1856,1866
1824,1843,1919
1814,1850,1789
1882,1885,1742
1874,1882,1834
1806,1844,1895
1812,1836,1763
1837,1853,1744
1840,1862,1855
1849,1859,1926
1840,1843,1803
1851,1846,1733
1831,1849,1838
1791,1826,1901
1849,1840,1814
1906,1872,1782
1856,1854,1845
1792,1840,1965
1799,1831,1776
1850,1841,1740
1862,1872,1870
1823,1845,1903
1808,1831,1809
1842,1842,1743
1847,1851,1829
1813,1841,1889
1808,1845,1813
1875,1867,1786
1884,1879,1889
1830,1833,1891
1811,1826,1763
1811,1856,1730
1830,1872,1840
1806,1851,1936
1819,1848,1811
1861,1851,1741
1890,1867,1916
1830,1849,1914
1781,1840,1759
1820,1847,1776
1872,1857,1895
1878,1858,1856
1786,1836,1822
1830,1845,1712
1829,1843,1834
1778,1834,1874
1787,1812,1792
1862,1840,1725
1863,1858,1860
1803,1837,1951
1793,1827,1808
1840,1855,1781
1866,1873,1867
1834,1847,1936
1808,1837,1811
1839,1854,1739
1863,1863,1872
1815,1833,1872
1798,1819,1709
1840,1846,1746
1835,1841,1833
1810,1834,1865
1802,1840,1780
1841,1851,1766
1842,1853,1861
1802,1840,1919
1805,1830,1826
1840,1847,1730
1851,1868,1818
1811,1841,1925
1810,1830,1867
1846,1845,1739
1853,1849,1815
1793,1837,1898
1824,1841,1869
1847,1843,1738
1853,1855,1904
1813,1841,1936
1814,1835,1807
1861,1843,1787
1856,1868,1918
1808,1840,1883
1798,1830,1789
1850,1852,1767
1844,1859,1814
1814,1847,1901
1815,1843,1811
1851,1853,1763
1855,1846,1762
1807,1840,1895
1808,1845,1794
1909,1871,1764
1875,1855,1855
1776,1808,1902
1767,1813,1796
1831,1841,1727
1847,1857,1838
1823,1842,1904
1838,1838,1835
1866,1859,1766
1863,1861,1835
1818,1845,1878
1791,1839,1771
1817,1842,1745
1858,1853,1842
1838,1852,1956
1801,1833,1807
1843,1851,1708
1855,1849,1886
1811,1822,1872
1811,1831,1803
1857,1853,1785
1851,1855,1839
1809,1835,1856
1796,1840,1829
1858,1867,1743
1869,1863,1881
1834,1840,1905
1814,1826,1829
1808,1833,1705
1815,1840,1808
1813,1840,1960
1810,1841,1826
1854,1850,1772
1845,1858,1853
1787,1840,1873
1805,1829,1777
1855,1847,1737
1851,1851,1863
1804,1827,1918
1798,1828,1777
1843,1855,1753
1875,1868,1865
1875,1849,1922
1845,1835,1759
1799,1827,1737
1795,1841,1813
1785,1829,1899
1803,1838,1807
1854,1853,1735
1865,1871,1871
1814,1849,1904
1798,1819,1749
1841,1838,1744
1856,1844,1867
1820,1838,1919
1810,1846,1815
1857,1845,1770
1871,1855,1859
1819,1830,1903
1818,1840,1805
1845,1859,1739
1859,1891,1865
1832,1840,1874
1792,1815,1794
1839,1835,1781
1844,1819,1830
1806,1821,1941
1789,1827,1819
1829,1863,1767
1862,1881,1840
1833,1881,1950
1803,1883,1881
1837,1808,1774
1850,1821,1840
1822,1814,1891
1811,1821,1808
1856,1847,1762
1879,1858,1875
1814,1815,1903
1815,1812,1809
1834,1830,1746
1840,1858,1830
1828,1855,1968
1829,1871,1817
1860,1906,1777
1850,1937,1882
1790,1802,1923
1803,1764,1789
1862,1786,1763
1870,1815,1866
1807,1818,1911
1807,1966,1823
1847,1917,1754
1863,1728,1853
1795,1715,1891
1795,1776,1821
1849,1799,1856
1833,1804,1843
1794,1802,1904
1798,1819,1836
1845,1814,1717
1847,1823,1840
1846,1839,1921
1811,1842,1831
1845,1830,1751
1835,1813,1867
1810,1874,1883
1853,1877,1853
1846,1815,1753
1808,1810,1818
1834,1849,1937
1885,1846,1850
1870,1807,1755
1791,1807,1829
1765,1853,1904
1808,1868,1776
1871,1837,1776
1890,1817,1936
1824,1798,1922
1783,1787,1774
1825,1820,1728
1843,1819,1837
1818,1813,1847
1824,1817,1820
1850,1893,1791
1808,1884,1854
1767,1783,1881
1800,1779,1845
1853,1806,1782
1847,1818,1829
1833,1815,1929
1809,1796,1790
1805,1799,1753
1808,1835,1837
1802,1867,1920
1869,1833,1807
1920,1778,1725
1831,1769,1735
1737,1759,1898
1749,1794,1835
1815,1853,1766
1844,1835,1863
1826,1814,1904
1777,1780,1792
1870,1803,1731
1936,1827,1847
1826,1763,1887
1739,1762,1771
1801,1782,1734
1840,1808,1699
1825,1793,1866
1776,1758,1728
1815,1808,1778
1837,1833,1925
1838,1854,1994
1842,1889,1872
1821,1852,1748
1842,1798,1719
1795,1755,1817
1793,1765,1808
1856,1812,1792
1895,1847,1819
1811,1824,1872
1763,1775,1689
1831,1802,1635
1856,1831,1891
1893,1835,1949
1821,1840,1893
1777,1839,1729
1840,1895,1871
1856,1840,1888
1829,1791,1726
1819,1839,1743
1794,1884,1891
1807,1885,1979
1904,1859,1787
1953,1855,1647
1839,1791,1773
1763,1812,1840
1759,1809,1794
1792,1842,1791
1824,1870,1863
1792,1808,1822
1825,1849,1786
1830,1873,1793
1798,1897,1900
1806,1894,1984
1823,1863,1744
1903,1811,1566
1742,1799,1811
1734,1847,1987
1808,1855,1874
1865,1861,1721
1778,1829,1791
1776,1835,1849
1855,1873,1846
1895,1833,1703
1808,1843,1831
1744,1874,1893
1742,1861,1776
1859,1861,1712
1921,1897,1814
1776,1869,1934
1734,1857,1849
1799,1890,1737
1789,1856,1807
1712,1835,1857
1744,1836,1783
1879,1865,1712
1813,1918,1835
1750,1934,1917
1807,1905,1786
1857,1855,1709
1882,1885,1864
1699,1840,1949
1684,1860,1805
1777,1885,1700
1885,1899,1766
1808,1897,1927
1712,1874,1840
1729,1895,1749
1793,1907,1822
1782,1902,1901
1779,1907,1791
1855,1936,1706
1872,1924,1817
1728,1863,1869
1659,1822,1711
1822,1901,1731
1797,1930,1893
1774,1915,1919
1802,1901,1795
1821,1875,1702
1910,1909,1803
1808,1904,1933
1744,1911,1822
1799,1893,1635
1797,1872,1810
1714,1847,1934
1712,1872,1808
1771,1905,1721
1812,1921,1827
1805,1879,1899
1747,1862,1824
1779,1904,1758
1865,1917,1818
1813,1900,1899
1729,1840,1753
1748,1884,1775
1744,1869,1821
1779,1862,1853
1780,1894,1806
1801,1925,1787
1785,1904,1839
1770,1863,1837
1823,1895,1803
1837,1867,1787
1809,1872,1877
1744,1883,1904
1735,1840,1754
1817,1874,1712
1810,1885,1831
1829,1883,1935
1753,1893,1809
1697,1885,1696
1817,1882,1757
1898,1863,1843
1789,1876,1888
1808,1893,1794
1815,1872,1822
1769,1865,1847
1741,1863,1807
1825,1863,1755
1837,1854,1824
1806,1879,1906
1831,1884,1824
1811,1895,1754
1780,1890,1831
1814,1872,1961
1787,1899,1898
1803,1872,1721
1790,1890,1786
1769,1873,1936
1815,1871,1846
1791,1876,1786
1855,1891,1859
1808,1876,1921
1812,1872,1856
1838,1886,1754
1811,1882,1840
1802,1859,1908
1818,1862,1820
1774,1882,1776
1794,1898,1885
1779,1837,1849
1750,1851,1827
1834,1867,1751
1855,1878,1841
1827,1879,1909
1808,1890,1844
1872,1901,1777
1847,1859,1835
1779,1819,1891
1728,1824,1850
1786,1856,1783
1879,1895,1910
1789,1840,1888
1744,1817,1772
1854,1859,1747
1930,1886,1884
1742,1871,1936
1807,1840,1792
1829,1865,1795
1872,1842,1830
1822,1837,1887
1792,1846,1813
1774,1879,1850
1839,1855,1877
1815,1826,1907
1840,1867,1818
1809,1851,1735
1828,1856,1809
1817,1849,1889
1845,1879,1889
1813,1866,1771
1793,1817,1794
1821,1837,1911
1856,1839,1822
1891,1855,1726
1845,1858,1894
1761,1833,1959
1755,1835,1838
1819,1851,1724
1893,1845,1834
1772,1822,1922
1874,1887,1914
1849,1887,1804
1783,1836,1763
1774,1807,1839
1929,1819,1817
1906,1871,1815
1838,1855,1843
1763,1845,1913
1894,1826,1836
1846,1834,1759
1885,1868,1861
1804,1856,1941
1807,1830,1814
1883,1871,1827
1865,1849,1851
1819,1811,1873
1795,1808,1836
1885,1855,1803
1872,1863,1859
1809,1809,1872
1847,1831,1808
1889,1861,1761
1854,1847,1851
1840,1819,1965
1770,1780,1795
1936,1845,1745
1888,1872,1890
1808,1840,1922
1801,1802,1840
1825,1818,1743
1872,1835,1837
1968,1853,1936
1877,1843,1854
1738,1825,1730
1841,1823,1807
1821,1813,1923
1835,1822,1899
1926,1858,1808
1890,1861,1872
1795,1808,1919
1774,1785,1781
1911,1853,1787
1933,1872,1866
1821,1798,1841
1861,1808,1821
1920,1843,1824
1873,1873,1895
1801,1818,1879
1779,1777,1793
1918,1814,1712
1820,1827,1856
1792,1824,1955
1833,1829,1903
1904,1840,1777
1875,1846,1841
1840,1808,1879
1868,1807,1838
1850,1814,1805
1808,1825,1902
1797,1836,1925
1795,1819,1819
1892,1819,1690
1926,1831,1808
1814,1827,1968
1814,1827,1885
1850,1861,1791
1840,1814,1840
1829,1795,1887
1877,1799,1794
1937,1856,1779
1843,1833,1843
1808,1809,1935
1835,1808,1840
1911,1857,1764
1856,1825,1835
1813,1822,1947
1805,1810,1840
1872,1837,1786
1867,1849,1853
1827,1817,1889
1807,1776,1798
1882,1838,1791
1857,1840,1891
1854,1792,1968
1885,1802,1840
1866,1823,1709
1913,1853,1803
1754,1786,1875
1779,1778,1825
1882,1831,1779
1885,1840,1866
1814,1835,1977
1791,1817,1862
1865,1823,1712
1902,1831,1754
1871,1825,1968
1836,1834,1884
1826,1807,1741
1877,1819,1807
1830,1807,1930
1810,1794,1824
1776,1795,1747
1812,1833,1827
1934,1865,1945
1926,1840,1920
1809,1831,1795
1814,1813,1786
1879,1797,1809
1821,1823,1830
1870,1842,1801
1841,1823,1846
1829,1827,1927
1854,1804,1850
1855,1808,1778
1850,1814,1819
1872,1818,1879
1927,1872,1845
1845,1818,1730
1829,1798,1787
1776,1790,1851
1841,1815,1786
1855,1841,1799
1834,1826,1858
1830,1817,1915
1904,1786,1826
1904,1851,1743
1883,1904,1885
1811,1775,1852
1841,1747,1819
1827,1797,1739
1934,1843,1819
1856,1839,1923
1789,1788,1829
1852,1809,1744
1888,1840,1837
1920,1843,1942
1808,1790,1826
1826,1825,1765
1842,1869,1835
1854,1837,1938
1829,1778,1792
1879,1813,1748
1840,1828,1808
1807,1826,1898
1815,1855,1883
1916,1858,1819
1954,1839,1827
1856,1815,1901
1758,1775,1779
1797,1810,1739
1871,1856,1866
1955,1842,1901
1850,1808,1886
1783,1825,1769
1810,1811,1727
1903,1799,1838
1831,1755,1692
1817,1815,1791
1808,1811,1862
1917,1819,1920
1862,1827,1835
1838,1875,1798
1821,1845,1903
1834,1828,1907
1838,1752,1763
1918,1834,1744
1844,1843,1860
1799,1827,1931
1829,1798,1885
1840,1799,1785
1842,1795,1795
1871,1813,1866
1894,1851,1904
1863,1809,1743
1918,1851,1807
1789,1827,1879
1795,1808,1811
1969,1840,1713
1887,1827,1818
1756,1804,1968
1726,1809,1865
1806,1808,1695
1913,1879,1853
1857,1846,1953
1855,1823,1840
1916,1839,1747
1915,1882,1866
1793,1799,1861
1777,1799,1767
1778,1806,1701
1862,1822,1808
1840,1823,1967
1840,1836,1914
1837,1842,1769
1849,1839,1830
1798,1808,1893
1776,1797,1794
1894,1846,1727
1913,1844,1847
1854,1840,1984
1808,1799,1859
1822,1782,1697
1861,1808,1749
1828,1856,1942
1799,1827,1913
1815,1841,1754
1856,1858,1840
1841,1814,1919
1809,1808,1851
1861,1854,1747
1872,1872,1840
1879,1838,1915
1798,1808,1871
1831,1808,1698
1851,1835,1822
1799,1822,1926
1788,1814,1840
1841,1840,1733
1875,1859,1799
1863,1844,1875
1823,1799,1887
1831,1821,1775
1859,1867,1834
1835,1872,1940
1822,1835,1853
1834,1793,1698
1861,1837,1822
1814,1856,1957
1775,1820,1849
1836,1872,1792
1891,1836,1791
1926,1808,1839
1799,1822,1858
1790,1863,1838
1847,1851,1866
1843,1851,1881
1853,1834,1857
1872,1851,1755
1798,1843,1839
1776,1836,1902
1767,1822,1840
1869,1854,1776
1949,1862,1822
1837,1825,1915
1765,1814,1817
1857,1833,1742
1863,1866,1861
1811,1840,1955
1799,1837,1840
1891,1855,1739
1942,1895,1903
1821,1840,1923
1767,1836,1829
1873,1830,1734
1859,1814,1777
1795,1806,1838
1731,1840,1901
1848,1873,1815
1921,1870,1797
1801,1841,1903
1813,1835,1872
1872,1851,1791
1891,1883,1850
1841,1856,1924
1745,1798,1824
1813,1836,1722
1839,1866,1781
1851,1847,1911
1872,1826,1793
1906,1881,1813
1862,1875,1922
1774,1851,1920
1826,1834,1856
1894,1842,1818
1872,1825,1825
1823,1840,1881
1778,1831,1803
1887,1871,1751
1898,1871,1808
1841,1862,1920
1876,1839,1842
1915,1856,1782
1879,1846,1839
1805,1824,1957
1794,1834,1823
1805,1852,1766
1842,1858,1843
1874,1858,1927
1836,1840,1834
1840,1868,1782
1854,1871,1821
1851,1840,1869
1868,1835,1839
1968,1872,1777
1872,1879,1869
1761,1873,1959
1770,1818,1839
1894,1867,1794
1923,1872,1814
1811,1829,1834
1814,1841,1857
1827,1847,1797
1858,1842,1860
1865,1835,1908
1877,1826,1841
1936,1874,1753
1923,1875,1855
1760,1838,1907
1781,1823,1825
1871,1843,1779
1858,1865,1843
1821,1830,1915
1826,1811,1866
1865,1855,1729
1924,1877,1746
1838,1869,1925
1796,1826,1854
1839,1833,1744
1889,1875,1821
1879,1857,1901
1869,1829,1860
1879,1853,1790
1854,1877,1843
1794,1832,1883
1789,1817,1823
1846,1831,1743
1877,1859,1851
1856,1863,1921
1838,1831,1810
1854,1829,1719
1943,1873,1817
1858,1856,1904
1792,1836,1863
1933,1862,1804
1854,1859,1830
1759,1843,1895
1779,1814,1808
1856,1820,1766
1847,1855,1769
1796,1808,1843
1858,1845,1894
1935,1857,1787
1959,1895,1822
1790,1837,1919
1731,1789,1790
1809,1814,1707
1893,1872,1823
1856,1881,1966
1839,1862,1904
1859,1843,1730
1867,1840,1787
1819,1814,1860
1898,1815,1827
1933,1859,1769
1861,1845,1799
1753,1875,1930
1796,1865,1887
1901,1822,1760
1922,1853,1801
1833,1840,1878
1836,1856,1871
1815,1830,1710
1904,1843,1791
1833,1840,1920
1850,1831,1831
1911,1871,1766
1854,1897,1872
1806,1863,1941
1791,1835,1833
1894,1840,1745
1889,1859,1840
1838,1841,1907
1813,1846,1825
1893,1873,1767
1956,1886,1855
1843,1861,1923
1842,1857,1800
1889,1837,1697
1872,1845,1828
1817,1840,1921
1862,1861,1879
1855,1829,1714
1882,1854,1841
1822,1840,1937
1787,1852,1823
1865,1866,1751
1882,1872,1849
1897,1827,1840
1826,1863,1872
1821,1850,1783
1843,1842,1850
1838,1851,1916
1870,1895,1872
1861,1866,1803
1885,1856,1838
1840,1834,1927
1840,1859,1845
1921,1911,1764
1857,1853,1805
1795,1831,1918
1852,1837,1857
1897,1853,1731
1898,1889,1871
1899,1872,1948
1776,1823,1836
1819,1808,1665
1872,1877,1815
1871,1875,1947
1841,1838,1887
1855,1842,1809
1897,1910,1867
1870,1891,1931
1824,1827,1810
1837,1790,1712
1874,1835,1808
1847,1867,1933
1846,1856,1906
1895,1871,1807
1916,1884,1853
1837,1840,1884
1792,1813,1791
1820,1841,1749
1843,1855,1831
1831,1863,1925
1885,1899,1911
1905,1819,1738
1855,1806,1775
1826,1845,1890
1803,1829,1872
1889,1819,1799
1909,1870,1821
1846,1826,1872
1813,1869,1925
1866,1884,1823
1876,1843,1751
1856,1845,1933
1833,1853,1881
1823,1791,1693
1845,1821,1764
1877,1867,1921
1803,1857,1889
1879,1846,1763
1917,1872,1858
1823,1867,1962
1809,1829,1869
1883,1825,1744
1903,1859,1787
1867,1867,1899
1853,1815,1878
1806,1799,1787
1831,1866,1851
1811,1853,1915
1828,1808,1808
1901,1850,1765
1890,1873,1828
1838,1861,1982
1865,1856,1866
1905,1787,1648
1829,1836,1799
1778,1863,1966
1789,1833,1857
1867,1808,1737
1905,1856,1815
1875,1875,1938
1831,1862,1856
1840,1849,1767
1884,1831,1815
1825,1817,1903
1802,1811,1881
1863,1831,1765
1856,1849,1719
1894,1813,1837
1809,1819,1925
1823,1833,1776
1810,1885,1875
1809,1872,1903
1883,1838,1837
1975,1859,1783
1827,1802,1797
1793,1823,1936
1827,1821,1782
1897,1854,1758
1921,1852,1841
1786,1809,1856
1768,1833,1856
1856,1837,1739
1883,1851,1846
1831,1850,1986
1784,1828,1872
1830,1856,1758
1913,1856,1819
1943,1827,1893
1853,1827,1892
1811,1864,1739
1793,1840,1771
1839,1825,1918
1869,1819,1872
1884,1845,1760
1854,1856,1805
1843,1856,1964
1856,1841,1879
1911,1856,1779
1873,1866,1810
1789,1835,1877
1825,1795,1871
1897,1834,1773
1872,1839,1762
1837,1804,1825
1883,1828,1822
1887,1856,1853
1797,1834,1883
1773,1839,1904
1822,1835,1882
1862,1808,1712
1941,1865,1807
1936,1856,1910
1786,1801,1851
1765,1827,1749
1834,1829,1795
1862,1814,1911
1847,1817,1826
1904,1875,1750
1910,1867,1843
1825,1802,1890
1793,1819,1819
1853,1836,1737
1873,1845,1877
1839,1862,1935
1734,1796,1811
1846,1821,1718
1915,1859,1794
1873,1840,1952
1799,1843,1857
1799,1859,1765
1898,1869,1808
1894,1812,1882
1801,1853,1941
1839,1892,1760
1881,1843,1754
1809,1804,1871
1770,1792,1869
1852,1808,1747
1890,1839,1744
1841,1858,1939
1835,1846,1904
1857,1843,1737
1811,1840,1776
1819,1820,1909
1868,1816,1885
1855,1826,1808
1846,1833,1850
1839,1847,1921
1857,1857,1851
1932,1846,1701
1829,1827,1765
1718,1814,1925
1769,1825,1894
1871,1854,1760
1891,1846,1749
1861,1852,1914
1798,1823,1895
1819,1808,1714
1928,1853,1779
1815,1855,1905
1821,1828,1887
1887,1855,1797
1872,1854,1807
1805,1835,1845
1813,1825,1830
1829,1829,1744
1856,1831,1794
1835,1818,1898
1825,1822,1897
1872,1861,1842
1887,1866,1871
1790,1827,1922
1831,1830,1807
1919,1829,1723
1866,1847,1799
1776,1837,1930
1706,1791,1781
1881,1872,1744
1957,1895,1783
1843,1825,1907
1781,1791,1885
1852,1840,1846
1901,1874,1841
1854,1835,1873
1813,1799,1844
1919,1802,1599
1856,1824,1785
1761,1837,1990
1776,1840,1920
1903,1834,1713
1857,1830,1719
1819,1819,1895
1767,1810,1904
1867,1814,1744
1937,1872,1803
1832,1848,1953
1778,1838,1904
1857,1811,1783
1870,1834,1802
1813,1836,1859
1821,1840,1866
1804,1835,1781
1841,1826,1776
1855,1825,1811
1872,1830,1878
1889,1842,1731
1872,1838,1754
1791,1819,1881
1776,1806,1850
1904,1845,1774
1904,1849,1826
1800,1811,1918
1774,1809,1886
1835,1821,1663
1946,1873,1780
1909,1861,1959
1762,1814,1907
1780,1856,1808
1821,1841,1821
1872,1856,1883
1866,1808,1845
1843,1830,1734
1843,1867,1781
1886,1856,1914
1840,1800,1843
1812,1834,1725
1840,1872,1815
1823,1840,1901
1795,1834,1901
1822,1823,1731
1909,1883,1859
1809,1820,1936
1782,1797,1831
1879,1828,1744
1865,1863,1817
1878,1861,1914
1830,1838,1799
1835,1826,1699
1840,1820,1853
1808,1811,1931
1830,1833,1870
1859,1854,1735
1920,1895,1759
1782,1805,1922
1801,1826,1936
1842,1802,1788
1843,1821,1793
1814,1826,1793
1841,1857,1888
1851,1842,1728
1840,1853,1801
1830,1853,1872
1807,1845,1868
1872,1833,1770
1915,1842,1837
1850,1854,1920
1794,1837,1882
1860,1814,1749
1962,1834,1793
1799,1826,1825
1744,1825,1843
1855,1840,1666
2007,1861,1828
1840,1852,1965
1747,1825,1878
1825,1805,1686
1924,1865,1834
1822,1854,1897
1811,1826,1859
1879,1819,1735
1884,1859,1877
1787,1819,1855
1792,1824,1822
1842,1855,1740
1840,1839,1815
1809,1827,1966
1851,1828,1813
1895,1849,1726
1882,1882,1802
1862,1827,1921
1802,1795,1851
1793,1817,1710
1872,1855,1776
1863,1867,1898
1867,1840,1903
1851,1823,1751
1827,1859,1778
1806,1861,1920
1732,1789,1825
1853,1827,1743
1904,1867,1795
1873,1829,1881
1841,1854,1910
1809,1831,1808
1895,1826,1755
1850,1863,1875
1750,1845,1871
1858,1861,1773
1904,1855,1839
1869,1831,1889
1828,1812,1869
1789,1802,1735
1891,1868,1791
1869,1859,1847
1729,1839,1840
1849,1842,1760
1887,1830,1790
1805,1845,1898
1843,1877,1964
1857,1851,1814
1836,1838,1728
1868,1838,1841
1831,1834,1822
1827,1840,1805
1807,1852,1807
1808,1855,1888
1839,1843,1814
1867,1825,1696
1857,1849,1821
1773,1863,1953
1766,1839,1839
1924,1851,1791
1935,1869,1839
1805,1840,1907
1826,1821,1839
1866,1863,1695
1840,1850,1783
1808,1882,1939
1847,1840,1863
1854,1844,1741
1899,1857,1806
1843,1840,1943
1782,1763,1869
1767,1827,1723
1906,1917,1819
1855,1914,1913
1760,1866,1857
1814,1818,1771
1849,1811,1837
1808,1795,1891
1851,1789,1887
1872,1808,1779
1876,1877,1762
1814,1857,1914
1808,1818,1755
1895,1840,1756
1808,1886,1889
1781,1857,1953
1865,1843,1823
1919,1933,1795
1819,1797,1798
1797,1818,1842
1802,1844,1809
1851,1814,1778
1851,1894,1856
1845,1882,1902
1808,1838,1843
1834,1840,1737
1825,1814,1758
1899,1781,1866
1789,1781,1872
1810,1854,1863
1904,1902,1845
1829,1886,1887
1808,1755,1797
1872,1803,1748
1856,1867,1836
1829,1817,1842
1834,1826,1850
1829,1835,1793
1820,1846,1791
1817,1869,1909
1839,1819,1845
1856,1824,1758
1943,1894,1855
1842,1903,1934
1757,1808,1821
1827,1810,1739
1893,1871,1783
1853,1851,1904
1860,1847,1923
1823,1887,1763
1856,1820,1707
1812,1808,1891
1777,1845,1889
1839,1857,1792
1936,1841,1867
1887,1872,1922
1815,1842,1845
1847,1831,1791
1886,1801,1758
1827,1880,1872
1746,1838,1881
1819,1813,1769
