1826,1840,1872
1858,1889,1789
1851,1861,1813
1840,1829,1915
1842,1827,1856
1877,1854,1747
1872,1867,1840
1865,1875,1976
1791,1825,1856
1806,1841,1718
1871,1856,1775
1889,1822,1895
1821,1840,1855
1808,1860,1761
1874,1861,1823
1849,1840,1914
1808,1851,1856
1840,1867,1771
1865,1837,1810
1898,1838,1936
1890,1853,1899
1831,1863,1753
1852,1860,1808
1860,1840,1903
1842,1838,1868
1836,1851,1762
1830,1858,1838
1843,1850,1948
1846,1862,1870
1888,1859,1728
1851,1846,1798
1814,1841,1925
1808,1861,1861
1847,1862,1741
1870,1859,1818
1847,1833,1937
1840,1847,1875
1898,1883,1782
1849,1841,1793
1819,1815,1904
1840,1843,1861
1866,1882,1786
1885,1889,1856
1821,1841,1908
1795,1850,1854
1839,1866,1729
1881,1872,1814
1850,1840,1920
1808,1870,1898
1855,1895,1790
1879,1865,1826
1849,1833,1913
1819,1831,1856
1866,1866,1765
1887,1893,1837
1871,1875,1947
1840,1856,1861
1870,1885,1775
1871,1867,1834
1829,1838,1899
1835,1857,1872
1865,1883,1795
1875,1869,1819
1825,1840,1919
1840,1854,1874
1872,1891,1790
1869,1870,1837
1848,1823,1932
1818,1837,1863
1872,1879,1769
1883,1885,1834
1826,1841,1915
1820,1840,1872
1859,1875,1789
1890,1884,1855
1875,1862,1947
1877,1874,1893
1855,1875,1762
1845,1857,1808
1847,1845,1923
1883,1856,1865
1928,1856,1738
1856,1861,1829
1792,1842,1959
1807,1839,1890
1885,1873,1797
1904,1869,1835
1861,1863,1933
1818,1845,1872
1837,1854,1751
1872,1859,1823
1859,1843,1940
1853,1853,1885
1893,1882,1769
1869,1865,1819
1839,1839,1935
1829,1847,1898
1849,1875,1785
1894,1877,1840
1910,1871,1933
1859,1849,1860
1852,1845,1751
1892,1877,1828
1891,1841,1920
1847,1837,1856
1810,1838,1753
1874,1866,1842
1862,1830,1942
1783,1829,1872
1804,1872,1778
1872,1875,1840
1889,1842,1922
1854,1838,1846
1822,1859,1776
1854,1872,1837
1865,1853,1921
1850,1849,1870
1840,1863,1778
1863,1869,1827
1841,1834,1917
1839,1831,1847
1887,1879,1791
1903,1880,1856
1857,1838,1931
1789,1822,1840
1825,1847,1750
1872,1867,1837
1850,1840,1906
1819,1837,1838
1871,1877,1762
1878,1861,1825
1853,1839,1935
1844,1859,1886
1856,1890,1767
1876,1860,1809
1872,1831,1931
1835,1845,1890
1837,1871,1767
1855,1857,1821
1849,1839,1926
1827,1840,1871
1872,1879,1770
1943,1869,1789
1894,1839,1911
1802,1847,1881
1813,1886,1802
1873,1874,1827
1846,1834,1904
1817,1833,1861
1847,1859,1758
1882,1865,1808
1858,1830,1922
1829,1823,1872
1846,1856,1773
1885,1872,1834
1867,1855,1936
1842,1844,1874
1892,1872,1776
1883,1873,1826
1867,1869,1935
1815,1828,1817
1815,1839,1730
1843,1854,1817
1829,1840,1917
1820,1843,1865
1861,1855,1744
1902,1872,1810
1850,1846,1916
1825,1839,1843
1840,1856,1744
1866,1854,1805
1831,1834,1923
1814,1829,1872
1840,1866,1767
1869,1868,1823
1857,1842,1914
1834,1844,1856
1885,1935,1771
1920,1917,1821
1867,1839,1918
1804,1808,1849
1846,1809,1741
1856,1821,1796
1834,1777,1902
1826,1855,1867
1854,1910,1770
1872,1854,1824
1872,1823,1906
1861,1850,1842
1853,1871,1774
1857,1875,1840
1851,1814,1942
1843,1827,1891
1877,1885,1787
1888,1867,1827
1856,1839,1913
1828,1831,1853
1840,1859,1753
1873,1856,1829
1867,1849,1920
1856,1845,1856
1869,1786,1731
1856,1806,1797
1811,1819,1906
1817,1826,1853
1862,1837,1765
1865,1855,1823
1847,1823,1907
1835,1855,1853
1861,1872,1754
1893,1869,1811
1859,1835,1909
1863,1840,1845
1857,1840,1748
1854,1849,1811
1847,1847,1936
1852,1853,1875
1847,1840,1714
1840,1847,1777
1837,1824,1914
1843,1850,1890
1845,1842,1735
1867,1840,1774
1831,1818,1906
1859,1850,1909
1890,1866,1777
1839,1835,1783
1819,1847,1904
1818,1856,1863
1881,1918,1788
1919,1826,1833
1833,1856,1886
1779,1840,1827
1805,1835,1711
1867,1814,1790
1858,1838,1935
1835,1897,1875
1851,1840,1744
1853,1871,1777
1858,1819,1893
1847,1851,1871
1827,1842,1754
1867,1806,1797
1847,1835,1910
1856,1863,1858
1857,1841,1757
1900,1872,1838
1859,1855,1922
1839,1841,1881
1808,1850,1741
1819,1836,1787
1823,1831,1904
1827,1830,1843
1866,1861,1728
1888,1854,1808
1833,1831,1927
1808,1844,1873
1842,1872,1777
1873,1866,1814
1855,1856,1919
1828,1850,1877
1859,1888,1771
1911,1865,1845
1833,1807,1891
1801,1776,1816
1815,1866,1744
1877,1860,1824
1906,1845,1927
1875,1856,1857
1823,1883,1727
1808,1841,1777
1811,1839,1906
1831,1822,1866
1899,1903,1795
1861,1860,1809
1808,1843,1909
1808,1843,1861
1839,1862,1750
1873,1872,1796
1854,1840,1893
1849,1838,1850
1872,1875,1763
1871,1873,1825
1829,1823,1926
1837,1841,1872
1902,1857,1773
1872,1895,1805
1822,1813,1908
1821,1802,1870
1855,1854,1781
1888,1848,1803
1857,1823,1897
1791,1808,1861
1807,1883,1773
1867,1898,1825
1849,1838,1911
1831,1808,1846
1872,1845,1758
1905,1892,1837
1858,1840,1918
1811,1835,1845
1838,1834,1757
1856,1849,1793
1845,1826,1901
1814,1840,1856
1838,1778,1764
1878,1826,1799
1885,1839,1907
1842,1851,1840
1834,1906,1744
1856,1879,1810
1837,1851,1915
1819,1839,1862
1823,1834,1749
1847,1861,1797
1847,1852,1904
1839,1858,1878
1867,1906,1776
1856,1827,1789
1850,1833,1898
1840,1857,1840
1857,1875,1741
1870,1887,1823
1822,1839,1931
1808,1807,1879
1849,1866,1770
1871,1857,1810
1856,1841,1914
1837,1854,1873
1843,1872,1760
1861,1871,1807
1842,1839,1916
1828,1797,1883
1851,1782,1779
1891,1873,1815
1857,1814,1907
1813,1839,1872
1840,1859,1763
1872,1872,1819
1830,1835,1915
1829,1835,1874
1850,1858,1765
1867,1855,1807
1843,1827,1907
1831,1825,1859
1872,1850,1766
1878,1851,1829
1859,1830,1926
1844,1828,1867
1842,1856,1754
1872,1867,1801
1856,1837,1911
1829,1822,1870
1851,1840,1745
1874,1840,1774
1852,1808,1908
1827,1808,1881
1855,1841,1775
1871,1841,1802
1843,1812,1873
1811,1803,1857
1851,1830,1773
1887,1840,1809
1828,1799,1894
1789,1782,1836
1819,1807,1723
1879,1813,1795
1868,1794,1900
1795,1770,1840
1794,1787,1722
1823,1789,1765
1811,1770,1872
1819,1765,1825
1839,1789,1731
1857,1786,1776
1823,1757,1872
1787,1749,1831
1824,1769,1728
1855,1770,1771
1826,1751,1865
1797,1750,1825
1811,1763,1718
1841,1769,1768
1829,1749,1869
1805,1744,1831
1815,1758,1733
1855,1765,1776
1840,1750,1876
1808,1746,1831
1837,1763,1744
1858,1769,1793
1840,1754,1877
1823,1746,1854
1839,1759,1750
1855,1763,1792
1839,1746,1894
1808,1744,1839
1835,1751,1737
1872,1761,1794
1851,1745,1878
1808,1746,1826
1811,1777,1735
1857,1798,1791
1854,1799,1897
1812,1794,1848
1827,1804,1744
1869,1823,1804
1856,1824,1905
1822,1829,1850
1839,1843,1724
1862,1823,1777
1863,1856,1931
1834,1869,1874
1835,1850,1737
1866,1840,1808
1862,1834,1919
1837,1834,1871
1843,1833,1760
1874,1835,1807
1862,1825,1913
1840,1819,1871
1857,1858,1765
1888,1856,1817
1857,1821,1911
1825,1831,1862
1843,1857,1745
1886,1857,1805
1884,1813,1907
1838,1816,1852
1855,1873,1746
1874,1871,1789
1840,1815,1863
1803,1831,1826
1814,1898,1718
1803,1881,1707
1795,1785,1840
1814,1809,1859
1821,1872,1744
1829,1865,1751
1790,1802,1829
1763,1803,1785
1789,1857,1698
1816,1883,1744
1803,1851,1852
1783,1856,1833
1811,1899,1734
1841,1878,1763
1817,1824,1853
1818,1835,1850
1858,1872,1778
1904,1863,1818
1873,1830,1904
1841,1823,1867
1869,1851,1775
1902,1857,1815
1887,1843,1923
1865,1829,1897
1904,1828,1807
1933,1829,1826
1873,1810,1904
1607,1814,1872
1622,1826,1805
1587,1826,1837
832,1822,1905
1703,1810,1870
2019,1790,1783
1919,1797,1822
1837,1808,1895
1824,1821,1861
1835,1811,1761
1839,1825,1815
1842,1840,1908
1836,1808,1841
1838,1776,1759
1835,1783,1789
837,1807,1869
1752,1811,1855
2097,1808,1793
2384,1813,1827
1984,1830,1901
1849,1815,1847
1858,1776,1760
1846,1777,1810
1834,1795,1911
1828,1780,1889
1837,1757,1791
1834,1760,1834
1831,1782,1933
1829,1774,1906
1836,1747,1797
1835,1762,1836
1839,1785,1921
1840,1754,1921
1833,1731,1773
1840,1763,1872
1846,1803,1957
1856,1777,1909
1904,1753,1795
1950,1750,1855
1967,1772,1955
1955,1775,1907
1991,1749,1819
2035,1758,1884
2018,1776,1904
2002,1774,1919
2043,1745,1842
2074,1744,1841
2032,1776,1960
2007,1766,1910
2057,1744,1778
2095,1763,1871
2081,1783,1943
2045,1762,1915
2085,1735,1815
2116,1757,1840
2095,1790,1941
2064,1771,1904
2096,1743,1782
2128,1758,1887
2101,1778,1934
0,1783,1918
2346,1760,1820
1455,1770,1814
2277,1793,1932
2512,1776,1894
2187,1746,1847
1805,1772,1845
1911,1799,1939
1883,1783,1899
1901,1769,1801
1857,1776,1845
1836,1803,1961
1833,1795,1937
1831,1776,1840
1840,1787,1855
1835,1809,1939
1839,1806,1919
1838,1767,1814
1830,1779,1849
1840,1809,1936
1835,1805,1935
1827,1777,1839
1839,1790,1857
1834,1822,1968
1834,1814,1886
1833,1783,1808
1837,1785,1843
1839,1821,1963
1838,1813,1922
1837,1787,1776
1831,1793,1776
1834,1812,1915
1842,1807,1913
1901,1783,1824
1937,1793,1822
1953,1821,1959
1950,1808,1915
1984,1786,1813
2030,1797,1838
2020,1826,1943
2000,1814,1888
2033,1797,1815
2091,1812,1870
2071,1834,1942
2047,1826,1901
2077,1803,1755
2119,1813,1835
2113,1845,1915
2094,1831,1872
2124,1808,1791
2165,1837,1840
2159,1854,1933
2131,1845,1914
2144,1824,1806
2177,1838,1824
2160,1859,1830
2139,1857,1893
2165,1840,1791
2206,1856,1856
2192,1888,2056
2148,1861,1904
2152,1827,1787
2186,1840,1872
2169,1875,1975
2143,1873,1812
2170,1843,1799
2192,1856,1822
2177,1873,1899
2160,1869,1872
2178,1857,1819
2222,1878,1864
2128,1867,1889
1663,1863,1840
1398,1863,1777
1715,1863,1799
1888,1866,1879
1882,1857,1854
1841,1845,1776
1825,1858,1834
1831,1871,1826
1834,1863,1831
1837,1866,1807
1838,1882,1875
1834,1890,1869
1835,1879,1867
1835,1870,1801
1838,1886,1884
1839,1901,1958
1833,1886,1873
1835,1861,1844
1839,1872,1915
1831,1884,1951
1835,1875,1869
1833,1876,1813
1829,1897,1850
1838,1891,1919
1839,1877,1873
1838,1891,1855
1823,1874,1850
1833,1886,1911
1834,1887,1895
1835,1882,1818
1835,1887,1852
1831,1884,1936
1854,1882,1878
1957,1873,1840
2031,1895,1903
2035,1906,1930
2019,1897,1904
2011,1881,1840
2018,1883,1862
2023,1902,1918
2019,1887,1885
2023,1872,1831
2047,1882,1883
2031,1894,1936
2003,1874,1877
2004,1863,1808
2033,1872,1861
2044,1904,1917
2045,1907,1952
2011,1859,1791
2005,1860,1863
2018,1878,1888
1995,1869,1872
1989,1864,1808
2018,1872,1817
2029,1889,1923
2028,1873,1884
2021,1862,1777
2032,1872,1894
2027,1884,1918
2007,1872,1799
2001,1846,1783
2033,1873,1840
2032,1887,1925
2010,1867,1920
2013,1845,1808
2043,1870,1870
2034,1886,1928
2021,1873,1885
2014,1856,1815
2035,1875,1863
2020,1874,1906
1996,1854,1857
2005,1850,1805
2027,1856,1847
1882,1883,1925
1153,1872,1877
1075,1851,1799
1690,1868,1831
1968,1892,1909
2002,1874,1895
2016,1857,1831
2033,1875,1854
2014,1895,1917
2000,1874,1883
2026,1845,1826
2054,1874,1871
1941,1903,1943
1936,1899,1906
2026,1869,1808
2080,1882,1842
2032,1898,1921
1982,1873,1882
1989,1842,1776
2065,1859,1812
2055,1911,1933
2026,1909,1919
2014,1872,1805
2074,1895,1835
2016,1919,1924
1949,1893,1884
1920,1860,1789
1985,1883,1834
2045,1933,1930
2064,1938,1917
2014,1879,1803
1959,1876,1809
1936,1904,1900
1930,1888,1867
1937,1872,1795
2036,1894,1838
2062,1921,1920
1994,1903,1872
1966,1874,1803
2009,1897,1835
1998,1899,1898
1983,1882,1871
1980,1872,1815
1999,1901,1860
1985,1910,1900
1974,1889,1866
1955,1895,1798
2000,1891,1846
2031,1881,1905
1968,1874,1872
1952,1870,1815
1936,1895,2085
1998,1904,2987
1934,1873,2397
1947,1885,1794
1936,1872,1686
1920,1858,1987
1901,1838,1744
1906,1839,1619
1960,1873,1873
1911,1856,2123
1811,1790,1953
1819,1771,1535
1855,1796,1681
1891,1818,1831
1901,1834,1859
1906,1840,1840
1920,1866,1823
1904,1874,1826
1926,1870,1829
1962,1877,1830
1970,1882,1829
1905,1883,1831
1919,1860,1827
1889,1852,1830
1872,1885,1829
1901,1889,1831
1911,1879,1830
1919,1883,1828
1919,1899,1830
1936,1907,1829
1904,1893,1829
1890,1875,1826
1958,1904,1829
1924,1907,1829
1915,1901,1830
1913,1902,1840
1918,1918,1899
1927,1927,1936
1893,1916,1886
1898,1893,1839
1929,1929,1873
1923,1943,1914
1967,1933,1902
1918,1905,1850
1913,1904,1986
1895,1905,4095
1870,1873,3280
1853,1856,1871
1883,1871,1482
1904,1898,1693
1899,1891,1939
1869,1862,1810
1872,1865,1799
1879,1873,1818
1877,1874,1833
1860,1878,1840
1885,1901,1833
1830,1903,1824
1882,1878,1827
1872,1875,1828
1997,1904,1829
1923,1907,1833
1901,1891,1830
1878,1885,1825
1893,1911,1830
1910,1911,1827
1914,1916,1826
1901,1897,1826
1887,1883,1826
1907,1904,1831
1904,1894,1827
1895,1886,1833
1921,1904,1825
1914,1895,1829
1897,1879,1838
1903,1894,1827
1903,1898,1829
1891,1911,1827
1873,1894,1827
1881,1899,1919
1893,1908,2141
1882,1904,3738
1837,1885,3830
1857,1865,2271
1872,1874,1601
1951,1889,1633
1857,1885,1789
1872,1894,1856
1857,1898,1847
1870,1895,1831
1872,1877,1825
1930,1863,1824
1910,1887,1825
1904,1906,1830
1883,1888,1828
1879,1887,1830
1798,1899,1830
1797,1895,1826
1901,1881,1830
1877,1901,1831
1892,1895,1831
1856,1891,1846
1931,1890,1822
1886,1883,1826
1883,1904,1825
1863,1911,1829
1891,1895,1828
1874,1885,1829
1894,1903,1830
1892,1890,1831
1889,1878,1830
1864,1876,1827
1893,1894,1835
1898,1898,1831
1887,1874,1830
1891,1872,1840
1894,1890,1877
1845,1898,1911
1837,1879,1873
1944,1863,1838
1875,1885,1871
1903,1879,1909
1916,1869,1873
1866,1867,1826
1873,1871,2116
1920,1879,2167
1863,1872,1920
1903,1874,1805
1874,1869,1824
1841,1862,1866
1856,1850,1837
1857,1853,1803
1872,1872,1840
1886,1887,1890
1867,1868,1840
1842,1849,1776
1871,1873,1823
1877,1893,1891
1871,1885,1867
1872,1882,1815
1889,1893,1841
1873,1888,1864
1850,1861,1825
1839,1851,1802
1869,1867,1837
1895,1873,1887
1872,1847,1839
1847,1838,1807
1856,1862,1839
1850,1877,1871
1839,1839,1827
1846,1835,1799
1869,1856,1837
1862,1860,1856
1822,1840,1792
1821,1841,1759
1869,1872,1825
1877,1870,1885
1850,1847,1833
1834,1843,1785
1838,1840,1811
1838,1859,1855
656,1830,1824
343,1838,1766
2373,1850,1810
2012,1826,1859
0,1833,1846
1371,1858,1797
4095,1967,1825
4095,1895,1856
2544,1744,1817
1699,1714,1747
1626,1712,1775
1794,1858,1837
1872,1890,1863
1867,1791,1726
1840,1771,1755
1834,1840,1889
1837,1844,1853
1838,1799,1714
1840,1815,1755
1835,1820,1841
1840,1793,1809
1838,1758,1737
1831,1755,1744
1831,1791,1872
1835,1871,1870
1834,1852,1738
1833,1814,1777
1838,1790,1904
1834,1787,1882
1836,1783,1729
1837,1733,1733
1834,1791,1903
1863,1779,1887
1351,1758,1757
1147,1725,1679
1799,1742,1811
2030,1778,1874
1679,1738,1767
1722,1762,1818
1831,1767,1886
1847,1775,1839
1808,1719,1695
583,1779,1777
0,1881,1969
4095,1886,1951
3540,1846,1833
2125,1815,1829
1602,1808,1858
1686,1795,1839
1843,1811,1792
1840,1808,1747
1885,1872,1877
1856,1946,1881
1837,1927,1804
1835,1906,1824
1797,1999,1958
1840,2031,1957
1851,1978,1775
1840,2046,1835
1595,2114,1974
901,2085,2000
51,2041,1830
3888,2109,1871
3695,2179,1962
2213,2175,1936
1616,2059,1843
1664,2107,1855
1824,2159,1968
1869,2164,1975
2133,2143,1887
2658,2171,1946
3088,2221,2001
3378,2182,1986
3634,2138,1855
3922,2154,1865
4095,2186,1960
4095,2240,2033
4095,2146,1847
4095,2112,1872
4095,2142,2017
4095,2128,1961
4095,2096,1840
4095,2129,1954
4095,2243,2064
4095,2157,1962
4095,2042,1818
4095,2045,1815
4095,2154,1968
4095,2095,1942
4095,2058,1889
4095,2092,1883
4095,2070,1970
4095,2039,1950
4095,1967,1802
4095,2061,1866
4095,2123,2023
4095,2102,2037
4095,2042,1856
4095,1987,1730
4095,1994,1910
4095,1969,1983
4095,1957,1968
4095,2014,1881
4095,2025,1872
4095,1968,1895
4095,1937,1853
4095,1974,1863
4095,2032,2011
4095,1980,1936
4095,1975,1897
4095,1985,1932
4095,2007,1922
4095,1952,1915
4095,1902,1866
4095,1943,1822
4095,1981,1970
4095,2006,1936
4095,1977,1799
4095,1917,1796
4095,1946,1873
4095,1978,1821
4095,1837,1646
4095,1897,1765
4095,1957,1825
4095,1968,1727
4095,1861,1615
4095,1945,1726
4095,1975,1854
4095,1944,1808
4095,1861,1610
4095,1899,1663
4095,1906,1808
4033,1927,1780
4094,1899,1633
4095,1879,1637
4002,1934,1782
3909,1936,1776
3863,1859,1613
3850,1884,1593
3807,1978,1781
3779,1968,1840
3772,1856,1623
3695,1844,1563
3649,1914,1767
3570,1915,1813
3599,1856,1618
3562,1834,1564
3515,1946,1749
3389,1890,1808
3416,1850,1611
3503,1795,1632
3401,1904,1808
3281,1898,1791
3279,1777,1665
3297,1808,1631
3295,1882,1790
3215,1854,1821
3216,1815,1679
3194,1823,1682
3157,1885,1788
3110,1882,1803
3037,1782,1651
3107,1812,1662
3088,1827,1855
2971,1885,1819
2956,1825,1653
3024,1843,1632
2972,1872,1818
2871,1837,1856
2869,1796,1715
2904,1793,1731
2877,1903,1877
2801,1790,1762
2827,1827,1661
2807,1791,1730
2783,1872,1827
2730,1823,1810
2727,1777,1678
2742,1814,1774
2710,1890,1908
2615,1827,1859
2672,1808,1766
2706,1767,1743
2597,1783,1835
2515,1847,1831
2539,1781,1713
2608,1805,1726
2559,1891,1904
2509,1872,1904
2476,1771,1695
2515,1787,1776
2512,1855,1923
2447,1875,1844
2442,1796,1771
2465,1776,1797
2426,1837,1902
2364,1819,1839
2372,1775,1712
2368,1786,1715
2403,1835,1905
2347,1840,1945
2251,1767,1744
2258,1765,1733
2278,1838,1865
2288,1851,1879
2257,1765,1808
2256,1783,1827
2251,1829,1925
2186,1831,1901
2183,1825,1752
2224,1791,1763
2190,1787,1904
2134,1825,1926
2158,1775,1807
2159,1763,1760
2123,1824,1934
2033,1807,1905
2064,1749,1796
2089,1763,1772
2093,1840,1909
2018,1813,1895
2037,1747,1751
2053,1775,1786
2022,1858,1935
2000,1885,1969
2014,1797,1795
2000,1749,1751
1954,1787,1903
1902,1783,1906
1950,1733,1803
1939,1799,1771
1920,1790,1899
1872,1714,1905
1878,1732,1811
1904,1770,1802
1907,1834,1925
1843,1878,1919
1844,1744,1812
1874,1792,1799
1851,1829,1946
1800,1817,1930
1808,1716,1773
1834,1712,1791
1789,1746,1948
1764,1874,1945
1783,1729,1781
1818,1758,1771
1769,1851,1959
1705,1808,1918
1701,1738,1765
1754,1757,1809
1782,1866,1975
1680,1808,1927
1709,1759,1742
1729,1867,1806
1687,1851,1973
1649,1814,1953
1619,1754,1776
1611,1751,1764
1582,1829,1919
1182,1846,1922
1267,1793,1771
1264,1773,1811
688,1786,1962
304,1767,1928
0,1769,1781
0,1831,1840
0,1858,1940
0,1871,1931
144,1754,1806
0,1793,1776
0,1818,1930
0,1855,1931
0,1731,1734
0,1750,1815
0,1831,2000
0,1866,1966
0,1776,1751
0,1763,1777
0,1819,1931
0,1861,1963
0,1687,1813
0,1751,1787
0,1808,1894
0,1831,1941
0,1767,1852
1120,1769,1817
2219,1875,1906
2079,1815,1904
787,1774,1854
0,1771,1851
0,1811,1904
0,1824,1883
0,1787,1777
0,1751,1808
0,1797,1943
0,1806,1871
0,1772,1833
0,1747,1781
0,1840,1936
0,1842,1971
0,1774,1791
0,1783,1808
0,1829,1952
0,1805,1958
0,1757,1738
0,1786,1813
0,1841,1950
0,1847,1916
0,1737,1792
0,1769,1787
0,1877,1984
0,1818,1924
0,1751,1763
0,1770,1809
0,1837,1942
0,1876,1968
0,1796,1827
0,1782,1810
0,1836,1872
0,1807,1872
0,1766,1764
0,1807,1831
0,1858,1978
0,1820,1921
0,1749,1787
0,1840,1834
0,1862,1919
0,1822,1923
0,1799,1802
0,1769,1769
0,1831,1922
679,1840,1953
2671,1773,1801
3231,1762,1801
3536,1869,1953
4095,1850,1918
4095,1776,1794
4095,1779,1799
4095,1839,1908
3056,1856,1933
1247,1779,1807
1680,1775,1793
3294,1815,1911
3088,1835,1936
3083,1763,1808
3381,1771,1761
1648,1813,1853
1855,1815,1886
0,1777,1841
0,1785,1846
0,1824,1895
0,1873,1893
0,1767,1783
0,1765,1802
0,1840,1927
0,1870,1951
0,1792,1798
0,1793,1776
0,1818,1887
656,1834,1939
4033,1813,1809
4095,1781,1781
4095,1835,1913
4095,1838,1966
4095,1788,1824
4095,1790,1776
4095,1818,1845
4095,1837,1903
4095,1783,1829
4095,1779,1775
4095,1858,1872
4095,1878,1879
4095,1802,1743
4095,1733,1815
4095,1823,2000
3827,1841,1940
0,1774,1761
0,1779,1759
0,1849,1901
0,1866,1919
0,1799,1734
0,1795,1789
0,1815,1923
0,1813,1910
0,1818,1795
0,1846,1834
0,1875,1952
0,1823,1894
0,1776,1739
0,1776,1783
0,1829,1895
0,1831,1903
0,1807,1793
0,1807,1830
0,1843,1970
0,1835,1887
0,1774,1740
0,1793,1759
0,1856,1922
0,1851,1968
0,1802,1776
0,1815,1792
0,1884,1889
0,1822,1943
0,1786,1838
0,1793,1757
0,1877,1936
0,1872,1936
0,1779,1758
0,1767,1754
0,1858,1950
0,1872,1969
0,1799,1776
0,1793,1743
0,1847,1905
0,1835,1906
0,1787,1763
2257,1808,1794
4095,1876,1973
4095,1888,1901
4095,1819,1743
4095,1776,1805
4095,1837,1949
4095,1786,1878
4095,1769,1796
4095,1829,1796
4095,1854,1929
4095,1813,1895
4095,1776,1783
4095,1834,1792
4095,1866,1904
4095,1853,1954
4095,1791,1829
4095,1787,1775
4095,1850,1904
4095,1837,1893
4095,1771,1770
4095,1794,1777
4095,1867,1927
4095,1855,1833
4095,1817,1722
4095,1784,1749
4095,1823,1924
4095,1856,1920
4095,1771,1744
4095,1757,1745
4095,1826,1920
4095,1859,1935
4095,1815,1791
4095,1834,1761
4095,1869,1954
4095,1835,1907
4095,1770,1738
4095,1819,1744
4095,1833,1910
4095,1815,1893
4095,1763,1743
4095,1822,1776
4095,1872,1918
4095,1829,1917
4095,1762,1785
4095,1796,1776
4095,1857,1915
4095,1877,1877
4095,1823,1766
4095,1817,1806
4095,1827,1873
4095,1823,1836
4095,1791,1751
4095,1793,1749
4095,1872,1925
4095,1872,1933
4095,1842,1777
4095,1782,1760
4095,1841,1903
4095,1843,1929
4095,1809,1738
4095,1819,1751
4095,1866,1963
4095,1875,1951
4095,1826,1798
4095,1809,1808
4095,1841,1872
4095,1853,1906
4095,1843,1776
4095,1889,1734
4095,1854,1950
4095,1822,1872
4095,1792,1755
4095,1812,1804
4095,1903,1956
4095,1914,1921
4095,1827,1789
4095,1808,1771
4095,1855,1874
4095,1895,1865
4095,1878,1760
4095,1790,1722
4095,1817,1882
4095,1865,1961
4095,1833,1840
4095,1840,1773
4095,1883,1847
4095,1886,1872
4095,1803,1776
4095,1821,1808
4095,1898,1931
4095,1870,1891
4095,1824,1774
4095,1813,1713
4095,1863,1936
4095,1889,1930
4095,1825,1757
4095,1838,1728
4095,1895,1872
4095,1888,1921
4095,1803,1807
4095,1808,1813
4095,1876,1920
4095,1882,1910
4095,1814,1779
4095,1829,1750
4095,1887,1926
4095,1893,1943
4095,1826,1770
4095,1805,1742
4095,1869,1918
4095,1879,1924
4095,1810,1762
4095,1840,1857
4095,1903,1937
4095,1877,1936
3472,1809,1776
2964,1843,1793
3227,1883,1947
3728,1882,1926
3867,1835,1793
3746,1845,1808
3514,1904,1929
3216,1875,1924
3152,1811,1808
2398,1808,1779
2063,1889,1933
2503,1874,1948
2688,1799,1763
1511,1879,1841
1437,1899,1918
2192,1899,1907
3342,1840,1881
3469,1805,1825
2094,1876,1919
2366,1879,1923
3197,1845,1825
3046,1840,1812
3209,1899,1934
3276,1893,1942
3225,1829,1863
3191,1808,1799
3138,1858,1853
3102,1886,1913
3051,1818,1853
3085,1827,1808
3053,1873,1933
3019,1913,1926
3012,1869,1830
2974,1835,1801
2955,1878,1934
2863,1873,1925
2815,1814,1739
2879,1840,1806
2862,1906,1946
2775,1904,1956
2742,1815,1777
2774,1825,1796
2727,1872,1910
2667,1900,1942
2663,1826,1797
2686,1825,1782
2651,1902,1969
2619,1910,1959
2599,1840,1794
2631,1841,1840
2559,1867,1961
2509,1882,1916
2494,1833,1799
2556,1846,1775
2507,1889,1906
2423,1887,1958
2401,1828,1833
2429,1808,1751
2413,1871,1905
2384,1881,1989
2356,1844,1834
2373,1854,1846
2373,1910,1937
2336,1910,1901
2277,1831,1830
2250,1791,1774
2224,1852,1874
2211,1872,1942
2242,1833,1828
2291,1833,1765
2258,1882,1904
2145,1872,1955
2126,1833,1843
2175,1829,1814
2145,1890,1920
2131,1897,1913
2128,1836,1791
2131,1829,1803
2092,1872,1918
2038,1891,1933
2012,1808,1790
2073,1843,1785
2063,1872,1911
1985,1869,1905
1968,1786,1822
2032,1813,1862
2018,1888,1947
1940,1888,1904
1943,1821,1753
1984,1830,1759
1929,1872,1924
1871,1872,1937
1898,1839,1818
1941,1819,1778
1917,1879,1904
1824,1873,1915
1808,1806,1787
1929,1818,1817
1851,1887,1940
1795,1887,1919
1813,1819,1776
1786,1794,1749
1789,1879,1920
1798,1902,1965
1714,1808,1776
1805,1822,1724
1776,1872,1942
1769,1886,1981
1738,1818,1796
1745,1790,1726
1686,1847,1889
1683,1890,1914
1744,1840,1786
1735,1783,1730
1661,1845,1885
1635,1853,1934
1664,1817,1811
1712,1810,1778
1662,1875,1867
1655,1873,1903
1616,1797,1797
1648,1813,1777
1603,1828,1841
1584,1850,1866
1567,1791,1782
1585,1787,1775
1584,1856,1919
1607,1883,1957
1580,1823,1750
1587,1842,1742
1568,1835,1875
1515,1840,1914
1515,1802,1774
1557,1794,1743
1532,1854,1903
1532,1878,1959
1534,1789,1745
1535,1789,1684
1503,1849,1893
1455,1846,1932
1487,1796,1780
1498,1792,1760
1495,1858,1912
1482,1858,1954
1465,1803,1805
1474,1779,1729
1472,1843,1887
1442,1853,1924
1472,1782,1796
1419,1778,1775
1440,1845,1889
1423,1844,1890
1398,1787,1783
1526,1818,1791
1410,1861,1899
1314,1812,1856
1478,1796,1735
1439,1761,1770
1413,1839,1904
1468,1846,1943
1365,1767,1767
1347,1756,1730
1408,1822,1877
1457,1835,1921
1383,1776,1771
1407,1778,1694
1428,1826,1857
1323,1825,1910
1387,1791,1821
1421,1808,1837
1392,1808,1904
1328,1811,1875
1367,1777,1743
1425,1753,1723
1393,1802,1895
1362,1820,1936
1424,1799,1822
1399,1774,1709
1392,1797,1838
1323,1781,1904
1334,1741,1799
1386,1747,1744
1380,1824,1904
1367,1854,1923
1402,1768,1802
1373,1725,1737
1421,1799,1888
1270,1806,1934
