1843,1722,1859
1840,1712,1775
1939,1725,1701
1888,1725,1783
1847,1715,1856
1822,1699,1766
1854,1696,1668
1860,1698,1744
1759,1695,1825
1818,1680,1744
1844,1675,1663
1856,1683,1729
1795,1673,1805
1798,1659,1723
1780,1659,1659
1829,1664,1744
1766,1660,1807
1776,1645,1730
1795,1647,1651
1796,1658,1719
1791,1654,1793
1816,1643,1712
1829,1623,1623
1813,1629,1691
1769,1632,1763
1680,1618,1690
1803,1620,1612
1794,1638,1696
1783,1650,1785
1788,1648,1712
1821,1647,1634
1823,1655,1710
1775,1664,1780
1776,1649,1707
1808,1659,1643
1821,1680,1715
1786,1694,1797
1780,1680,1714
1829,1686,1660
1847,1712,1757
1817,1719,1838
1803,1711,1744
1840,1709,1671
1853,1723,1749
1823,1738,1835
1822,1728,1765
1851,1716,1683
1842,1731,1750
1791,1733,1819
1788,1719,1744
1823,1713,1664
1815,1712,1744
1767,1702,1808
1755,1684,1721
1778,1675,1629
1773,1674,1686
1719,1662,1758
1706,1639,1663
1729,1635,1584
1733,1643,1649
1719,1662,1745
1744,1686,1703
1789,1703,1632
1789,1710,1699
1749,1712,1775
1733,1706,1700
1773,1713,1622
1797,1726,1714
1756,1723,1788
1744,1720,1728
1768,1722,1645
1773,1733,1709
1741,1730,1788
1742,1717,1710
1776,1729,1641
1779,1755,1731
1745,1759,1805
1739,1744,1728
1766,1744,1654
1773,1754,1727
1740,1759,1803
1731,1760,1725
1759,1761,1642
1758,1758,1718
1723,1755,1808
1715,1753,1733
1745,1755,1646
1744,1760,1712
1714,1751,1796
1712,1749,1723
1731,1751,1648
1734,1765,1719
1702,1751,1794
1684,1735,1709
1707,1727,1616
1698,1739,1685
1666,1728,1774
1674,1734,1715
1704,1743,1641
1712,1744,1712
1682,1735,1807
1683,1745,1719
1712,1766,1639
1726,1763,1712
1701,1762,1807
1693,1776,1741
1738,1791,1689
1744,1806,1761
1723,1809,1823
1717,1822,1776
1739,1815,1711
1756,1825,1775
1729,1837,1865
1711,1840,1780
1744,1849,1730
1775,1841,1873
1751,1842,1921
1737,1838,1792
1760,1834,1713
1778,1851,1798
1761,1855,1898
1746,1838,1829
1789,1843,1728
1803,1858,1831
1771,1853,1904
1760,1847,1825
1791,1856,1753
1809,1872,1831
1771,1843,1904
1745,1830,1862
1770,1840,1746
1803,1863,1805
1791,1867,1882
1763,1855,1808
1781,1858,1727
1823,1879,1823
1778,1863,1885
1737,1836,1765
1767,1837,1681
1802,1847,1780
1772,1838,1869
1755,1825,1782
1780,1839,1744
1798,1843,1795
1754,1811,1789
1728,1791,1703
1761,1808,1647
1791,1817,1755
1755,1790,1837
1718,1766,1728
1737,1778,1627
1759,1778,1713
1744,1758,1816
1718,1737,1734
1733,1767,1643
1750,1771,1731
1729,1745,1808
1706,1730,1698
1728,1744,1627
1755,1748,1732
1719,1718,1793
1681,1711,1682
1712,1731,1586
1770,1745,1691
1733,1718,1794
1696,1701,1711
1718,1726,1631
1749,1739,1749
1731,1712,1955
1702,1709,1670
1712,1708,1507
1726,1697,1619
1707,1680,1762
1680,1676,1705
1695,1685,1603
1725,1697,1680
1712,1683,1774
1680,1681,1685
1687,1701,1594
1710,1692,1677
1686,1657,1764
1679,1669,1693
1693,1674,1598
1712,1681,1675
1703,1651,1775
1680,1698,1681
1666,1674,1535
1675,1676,1651
1669,1696,1747
1659,1661,1670
1682,1677,1585
1693,1712,1666
1655,1635,1738
1631,1603,1643
1649,1619,1559
1679,1680,1638
1655,1674,1751
1640,1629,1662
1651,1659,1611
1680,1653,1623
1647,1601,1687
1612,1603,1611
1630,1617,1535
1664,1621,1634
1648,1616,1710
1613,1582,1616
1647,1634,1535
1669,1638,1647
1630,1535,1727
1599,1565,1611
1618,1591,1488
1648,1586,1635
1625,1643,1738
1590,1575,1616
1658,1580,1535
1686,1614,1639
1639,1635,1735
1568,1569,1611
1579,1562,1503
1634,1570,1600
1606,1535,1724
1573,1575,1600
1594,1601,1467
1649,1626,1606
1645,1614,1742
1568,1573,1614
1581,1567,1556
1613,1585,1603
1603,1611,1673
1596,1621,1617
1616,1582,1525
1659,1559,1648
1631,1535,1741
1615,1635,1674
1616,1599,1519
1607,1616,1601
1600,1588,1712
1600,1535,1636
1621,1519,1579
1649,1657,1695
1641,1598,1740
1627,1607,1661
1603,1600,1517
1610,1535,1600
1600,1569,1712
1567,1535,1630
1605,1587,1555
1650,1607,1660
1633,1582,1753
1570,1616,1643
1598,1630,1535
1680,1635,1680
1649,1635,1786
1575,1583,1647
1628,1663,1558
1661,1618,1669
1623,1600,1775
1584,1579,1637
1647,1630,1567
1692,1665,1694
1631,1690,1808
1596,1648,1716
1627,1611,1570
1650,1604,1614
1629,1609,1744
1607,1648,1652
1655,1648,1599
1658,1657,1675
1631,1671,1776
1616,1678,1703
1648,1667,1601
1695,1671,1699
1726,1692,1856
1664,1680,1750
1626,1713,1600
1661,1631,1680
1680,1633,1821
1653,1719,1737
1681,1695,1639
1678,1675,1715
1652,1679,1814
1641,1669,1738
1652,1680,1607
1683,1701,1700
1661,1680,1814
1642,1678,1803
1665,1706,1661
1729,1747,1693
1671,1695,1771
1632,1664,1703
1675,1679,1645
1687,1750,1717
1621,1726,1774
1617,1617,1729
1680,1664,1651
1675,1664,1698
1637,1678,1788
1621,1712,1727
1681,1743,1665
1702,1682,1733
1648,1645,1775
1621,1680,1694
1638,1662,1638
1705,1802,1743
1690,1649,1818
1658,1695,1730
1597,1713,1599
1626,1711,1701
1621,1648,1797
1589,1622,1681
1610,1639,1582
1642,1649,1682
1628,1635,1808
1600,1620,1708
1599,1646,1563
1634,1661,1642
1612,1630,1739
1555,1584,1676
1583,1648,1600
1664,1725,1739
1663,1723,1847
1585,1691,1694
1599,1687,1596
1622,1726,1679
1623,1693,1794
1600,1703,1721
1642,1724,1664
1663,1757,1728
1657,1740,1829
1623,1719,1745
1641,1687,1658
1690,1718,1760
1679,1693,1850
1665,1714,1781
1679,1789,1645
1719,1759,1715
1690,1776,1843
1662,1793,1808
1689,1902,1730
1689,1796,1797
1712,1751,1881
1694,1769,1776
1681,1786,1682
1734,1842,1817
1723,1838,1946
1715,1847,1851
1745,1860,1727
1750,1855,1792
1734,1855,1905
1697,1845,1825
1744,1863,1749
1822,1898,1872
1796,1887,2000
1728,1883,1854
1735,1915,1759
1813,1950,1919
1806,1927,2031
1776,1919,1887
1790,1927,1751
1840,1957,1885
1822,1936,1997
1808,1927,1941
1813,1939,1954
1839,1985,1924
1819,1984,1946
1831,1984,1898
1840,1968,1805
1846,1950,1887
1814,1962,2017
1799,1981,1968
1858,2025,1901
1883,2014,1942
1872,1984,2031
1861,1995,1955
1881,2014,1889
1907,2019,1995
1901,2008,2098
1853,2004,2001
1881,2035,1889
1918,2027,1947
1936,2018,2075
1898,1991,1984
1851,1989,1853
1888,2057,1941
1895,2054,2083
1914,2064,2038
1975,2079,1934
1962,2045,1989
1911,2023,2112
1894,2033,2032
1907,2045,1907
1968,2069,1968
1977,2062,2097
1904,2032,2027
1892,2032,1904
1955,2027,2000
1992,2032,2147
1988,2064,2079
1949,2065,1943
1936,2045,1995
1930,2046,2075
1936,2032,1984
1981,2065,1915
2027,2096,2041
1959,2054,2112
1941,2066,2037
1938,2055,1926
1970,2061,2005
1999,2064,2125
1965,2043,2027
1995,2086,1966
2010,2096,2017
1957,2057,2069
1931,2014,1998
1951,2026,1904
1999,2065,1974
2000,2079,2141
1974,2064,2080
1977,2061,1961
2010,2064,2015
2009,2054,2096
1984,2060,2047
1985,2073,1968
1980,2044,1981
1975,2035,2095
1965,2039,2027
2004,2074,1949
2027,2064,2011
2011,2044,2124
2025,2076,2111
2000,2063,1961
2000,2064,1940
2000,2062,2086
2010,2063,2023
1995,2031,1917
2021,2022,2004
2000,2013,2123
1983,2033,2037
2021,2064,1927
2062,2064,1996
1994,2025,2085
1954,2005,1997
2030,2043,1920
2071,2064,1984
1968,2007,2081
1943,2003,2032
1991,2028,1957
2037,2046,2032
2016,2021,2099
1995,2000,2000
2003,2038,1920
2025,2043,1994
1991,1994,2046
1974,2015,2000
1995,2038,1939
2031,2031,1977
2032,2018,2064
2031,2007,1999
2019,2026,1808
2098,2071,2043
1965,1955,1991
1923,1931,1967
1982,1978,1893
2021,2031,2010
2034,1994,2111
2064,2015,2076
1947,2013,1882
1941,2031,1922
2000,1994,2085
2054,2039,2003
2000,1984,1812
2030,1979,1914
2055,2015,2064
2096,2059,2027
1993,1957,1865
2003,1950,1964
2000,1973,2117
1984,2009,2019
1963,2023,1852
1936,1982,1972
1890,2045,1939
1981,1969,1954
1986,1905,1885
1968,2004,1936
1931,2031,2030
1909,2014,2000
1877,1958,1815
1943,2047,1982
1943,2047,2112
1867,2046,2036
1795,2059,1797
1853,2006,1852
1949,2131,1982
1890,2118,1984
1841,2057,1878
1856,2071,1927
1867,2110,2086
1878,2126,1997
1941,2122,1906
1872,2109,1853
1755,2077,1940
1744,2061,1898
1777,2131,1799
1872,2121,1904
1927,2159,2060
1853,2144,2018
1823,2141,1825
1883,2119,2005
1824,2064,2128
1755,2090,1965
1890,2160,1729
1866,2121,1863
1755,2067,2006
1729,2128,1936
1779,2134,1859
1857,2128,1889
1872,2035,1903
1793,2018,1968
1759,2047,1856
1823,2163,1861
1862,2112,1888
1760,2013,1937
1739,2015,1815
1860,2143,1929
1869,2082,2034
1803,2015,1894
1755,2037,1745
1829,2078,1810
1843,2046,1920
1849,2047,1938
1838,2033,1865
1803,2036,1977
1712,2002,1955
1734,1935,1844
1840,2029,1875
1840,2038,1953
1776,1992,1963
1765,1984,1814
1841,2032,1778
1862,1998,1914
1808,2005,2047
1759,1935,1833
1839,1990,1842
1899,2000,1911
1811,1965,1942
1778,1955,1824
1863,2000,1856
1840,1984,1851
1839,1935,1946
1759,1904,1890
1731,1920,1773
1854,1983,1867
1843,1989,1893
1833,1975,1947
1840,1913,1889
1871,1917,1883
1821,1926,1975
1765,1931,1869
1810,1959,1775
1852,1963,1885
1857,1905,1968
1792,1840,1883
1804,1919,1821
1854,1968,1898
1851,1923,2002
1832,1888,1903
1837,1901,1794
1837,1887,1856
1765,1914,1888
1776,1941,1874
1826,1878,1760
1867,1812,1855
1830,1850,1941
1802,1887,1904
1795,1899,1742
1904,1919,1892
1867,1904,1984
1735,1839,1815
1786,1854,1763
1885,1921,1847
1911,1934,2000
1872,1893,1912
1792,1795,1792
1761,1829,1776
1753,1839,1904
1814,1815,1969
1808,1869,1764
1909,1915,1840
1872,1894,2004
1744,1830,1874
1829,1825,1803
1905,1852,1817
1863,1904,1901
1786,1835,1889
1742,1786,1799
1815,1798,1736
1879,1845,1921
1854,1866,1975
1845,1809,1744
1917,1839,1867
1877,1821,1986
1792,1840,1779
1781,1847,1649
1863,1826,1887
1855,1808,1979
1803,1793,1876
1809,1853,1745
1893,1839,1862
1882,1797,2001
1789,1828,1811
1783,1773,1673
1845,1793,1892
1846,1801,2047
1841,1825,1967
1850,1833,1747
1926,1877,1810
1902,1822,1991
1747,1732,1693
1763,1771,1680
1823,1805,1853
1936,1827,2011
1904,1837,1923
1825,1794,1782
1795,1780,1775
1810,1808,1846
1829,1811,1889
1872,1799,1718
1863,1802,1787
1845,1787,1949
1833,1795,1933
1839,1805,1755
1867,1811,1843
1891,1790,1964
1887,1825,1945
1868,1814,1740
1889,1795,1797
1889,1814,2064
1821,1831,1903
1832,1806,1771
1882,1756,1762
1885,1744,1905
1845,1783,1927
1840,1805,1825
1872,1840,1858
1862,1806,1961
1827,1749,1856
1859,1779,1770
1905,1809,1825
1895,1748,1946
1859,1805,1887
1847,1813,1728
1874,1825,1846
1871,1782,1889
1909,1741,1843
1924,1799,1806
1872,1814,1811
1844,1815,1904
1822,1790,1879
1840,1760,1738
1909,1791,1899
1921,1839,1984
1810,1743,1878
1811,1741,1735
1963,1828,1840
1895,1808,1941
1794,1771,1840
1798,1800,1746
1917,1821,1842
1942,1776,1923
1891,1802,1878
1854,1765,1814
1844,1757,1837
1856,1766,1906
1855,1770,1828
1903,1806,1731
1935,1820,1861
1872,1792,1979
1855,1807,1902
1872,1831,1763
1949,1799,1814
1856,1765,1895
1853,1793,1885
1911,1785,1750
1920,1769,1828
1905,1751,1977
1835,1766,1882
1825,1821,1770
1950,1870,1904
1898,1827,1941
1784,1717,1782
1830,1745,1686
1923,1839,1873
1921,1799,1929
1962,1741,1925
1872,1761,1809
1846,1808,1865
1803,1843,1878
1914,1820,1871
1949,1801,1782
1942,1802,1786
1917,1802,1953
1825,1809,1936
1883,1766,1829
1943,1783,1857
1840,1771,1788
1938,1819,1861
1969,1842,1892
1877,1829,1856
1835,1727,1809
1856,1737,1847
1891,1794,1775
1917,1835,1870
1934,1820,1994
1920,1807,1927
1885,1808,1755
1891,1815,1802
1861,1792,1888
1841,1763,1905
1831,1780,1783
1935,1840,1856
1952,1824,1917
1901,1806,1890
1904,1812,1810
1897,1805,1885
1895,1776,1941
1842,1776,1831
1904,1797,1776
1918,1826,1840
1889,1813,1938
1856,1777,1897
1883,1802,1776
1897,1776,1805
1870,1810,1920
1861,1853,1754
1968,1799,1754
1931,1745,1887
1795,1793,1958
1788,1810,1842
1895,1808,1698
1911,1782,1878
1922,1815,2019
1908,1779,1857
1905,1832,1757
1898,1817,1840
1931,1790,1979
1887,1809,1827
1895,1831,1730
1921,1823,1895
1968,1786,1973
1923,1796,1867
1936,1791,1664
1895,1794,1819
1904,1793,1906
1851,1837,1881
1901,1803,1745
1955,1777,1910
1840,1775,1984
1861,1824,1885
1903,1869,1685
1974,1801,1805
1933,1787,2013
1830,1799,1934
1862,1846,1679
1968,1798,1743
1970,1769,1952
1937,1824,1904
1919,1853,1767
1901,1774,1861
1872,1773,1979
1857,1829,1917
1867,1801,1693
1961,1807,1781
1936,1794,1943
1885,1814,1895
1840,1805,1717
1888,1805,1766
1966,1795,2000
1898,1808,1919
1906,1834,1765
1904,1815,1837
1975,1766,1954
1920,1807,1921
1859,1818,1712
1935,1834,1759
1939,1785,1914
1881,1749,1875
1887,1776,1803
1886,1823,1840
1837,1823,1954
1904,1760,1856
1941,1818,1762
1968,1850,1850
1873,1810,1922
1873,1789,1889
1903,1787,1785
1989,1857,1889
1953,1771,1935
1789,1791,1775
1771,1785,1691
1905,1837,1909
1898,1759,1904
1863,1763,1854
1847,1841,1791
1938,1868,1872
1945,1838,1920
1918,1803,1936
1826,1831,1833
1845,1803,1822
1894,1796,1873
1925,1830,1826
1919,1803,1667
1834,1808,1825
1870,1810,1988
1853,1803,1868
1919,1850,1840
1922,1871,1859
1911,1782,1869
1869,1825,1886
1928,1870,1717
1946,1841,1765
1870,1787,1987
1835,1808,1957
1851,1809,1767
1835,1817,1707
2010,1860,1806
1887,1801,1948
1856,1771,1808
1898,1793,1875
1907,1858,2032
1831,1853,1878
1850,1831,1755
1857,1814,1789
1882,1831,1840
1909,1842,1873
1877,1818,1851
1936,1835,1897
1839,1786,1910
1845,1786,1837
1927,1849,1776
1907,1837,1846
1879,1786,1919
1801,1783,1787
1886,1849,1722
1996,1921,1822
1872,1825,1967
1872,1795,1936
1850,1809,1753
1875,1818,1757
1936,1801,1914
1890,1808,1876
1825,1867,1811
1923,1886,1837
1893,1866,1995
1902,1834,1934
1873,1829,1701
1902,1765,1728
1857,1809,1887
1808,1815,1899
1871,1805,1787
1930,1869,1859
1943,1899,1930
1919,1821,1871
1821,1790,1758
1840,1837,1808
1854,1796,1937
1879,1851,1924
1869,1806,1808
1935,1895,1815
1904,1870,1782
1842,1827,1958
1826,1793,1891
1911,1822,1776
1920,1838,1904
1826,1824,1866
1807,1801,1719
1857,1862,1794
1927,1853,2031
1902,1830,1918
1900,1876,1728
1901,1875,1819
1904,1886,1999
1830,1800,1857
1806,1776,1720
1895,1790,1847
1936,1850,1926
1860,1840,1872
1836,1837,1814
1840,1870,1719
1867,1830,1954
1850,1797,1897
1846,1791,1803
1915,1872,1930
1873,1854,1883
1834,1852,1803
1871,1819,1825
1910,1851,1783
1903,1808,1968
1862,1802,1902
1876,1824,1744
1874,1869,1786
1837,1845,1838
1822,1792,1891
1813,1780,1797
1890,1839,1840
1909,1860,1955
1877,1845,1799
1870,1819,1655
1873,1798,1756
1858,1823,1995
1817,1807,1914
1904,1856,1824
1938,1855,1808
1853,1847,1842
1787,1858,1887
1808,1771,1697
1845,1794,1750
1886,1805,1969
1877,1845,1955
1837,1899,1565
1901,1869,1842
1904,1778,2069
1789,1738,1957
1821,1827,1730
1899,1883,1762
1929,1865,1931
1805,1790,1863
1828,1785,1757
1929,1898,1881
1865,1827,1892
1790,1771,1835
1802,1819,1693
1907,1904,1826
1897,1822,1994
1872,1815,1982
1790,1795,1722
1835,1840,1845
1871,1836,1950
1835,1808,1793
1860,1857,1812
1875,1857,1861
1905,1757,2007
1823,1776,1922
1764,1843,1648
1849,1875,1648
1889,1786,1969
1810,1750,1999
1854,1850,1862
1890,1904,1799
1929,1806,1871
1834,1806,1903
1849,1856,1706
1867,1793,1782
1854,1783,1947
1791,1792,1901
1853,1794,1725
1863,1851,1744
1846,1806,1815
1882,1835,1991
1823,1811,1790
1863,1780,1808
1859,1844,1887
1814,1821,1791
1856,1834,1815
1901,1837,1947
1901,1841,2002
1834,1880,1796
1857,1827,1638
1951,1743,1808
1831,1755,1985
1727,1815,1819
1806,1882,1697
1893,1823,1825
1885,1803,1932
1815,1791,1843
1810,1791,1776
1888,1799,1842
1865,1857,1903
1867,1840,1821
1845,1798,1770
1875,1831,1865
1851,1829,1925
1794,1787,1820
1838,1801,1798
1921,1823,1873
1889,1835,1915
1781,1826,1696
1830,1839,1812
1909,1815,1986
1822,1797,1951
1793,1831,1813
1849,1841,1728
1900,1799,1834
1872,1838,1871
1850,1841,1878
1825,1807,1718
1858,1802,1782
1840,1810,2032
1808,1872,1925
1897,1829,1788
1845,1793,1655
1817,1778,1890
1824,1839,1857
1863,1825,1808
1873,1808,1849
1904,1793,1984
1854,1765,1910
1803,1842,1773
1807,1799,1767
1837,1861,1856
1845,1861,1788
1833,1795,1789
1939,1810,1914
1877,1792,1954
1763,1821,1824
1846,1918,1645
1882,1756,1818
1885,1814,2032
1850,1837,1952
1838,1877,1680
1863,1875,1821
1873,1777,2000
1819,1712,1925
1808,1808,1783
1867,1939,1634
1933,1783,1954
1861,1738,1986
1805,1841,1791
1786,1857,1741
1829,1781,1885
1895,1795,1929
1887,1834,1654
1827,1843,1744
1831,1823,1984
1829,1763,1999
1840,1812,1825
1849,1870,1712
1872,1872,1875
1842,1806,1905
1862,1803,1883
1854,1817,1727
1813,1792,1851
1803,1808,1877
1861,1883,1745
1894,1808,1808
1851,1776,1962
1867,1782,1921
1836,1761,1762
1938,1818,1733
1861,1829,1877
1795,1813,1942
1811,1801,1904
1872,1906,1777
1842,1807,1769
1829,1829,1887
1803,1750,1804
1841,1788,1815
1837,1827,1914
1861,1905,1856
1867,1863,1702
1863,1825,1815
1811,1825,1947
1819,1837,1911
1872,1827,1789
1911,1850,1846
1899,1872,1939
1834,1839,1846
1805,1776,1801
1847,1797,1873
1923,1839,1986
1872,1846,1862
1794,1842,1686
1887,1872,1802
1901,1859,1934
1842,1791,1856
1806,1808,1680
1821,1841,1733
1881,1853,1939
1872,1747,1989
1809,1806,1807
1840,1826,1776
1822,1872,1874
1863,1967,1948
1969,1941,1827
1895,1915,1897
1840,1760,1967
1783,1791,1797
1829,1828,1635
1904,1844,1798
1823,1779,1993
1774,1797,1917
1835,1837,1756
1962,1895,1830
1929,1871,1957
1818,1824,1863
1810,1796,1789
1858,1837,1792
1879,1789,1979
1866,1801,1936
1857,1789,1759
1925,1882,1795
1828,1809,1930
1744,1778,1867
1809,1794,1744
1903,1787,1821
1903,1873,1840
1851,1781,1906
1893,1802,1837
1878,1832,1872
1870,1873,1952
1835,1870,1870
1853,1789,1649
1886,1836,1750
1820,1845,1887
1793,1827,1907
1837,1766,1837
1919,1846,1889
1877,1845,1955
1802,1837,1725
1878,1867,1775
1917,1808,1885
1847,1825,1890
1799,1811,1783
1830,1835,1776
1872,1808,1853
1892,1865,1849
1860,1872,1978
1866,1761,1876
1888,1889,1861
1874,1851,1969
1797,1869,1776
1840,1783,1690
1971,1813,1838
1907,1831,1990
1808,1899,1905
1897,1904,1690
1855,1713,1826
1825,1735,1951
1808,1823,1883
1842,1831,1630
1903,1890,1859
1882,1776,2043
1798,1815,1957
1794,1806,1601
1838,1810,1712
1859,1802,2057
1883,1839,2004
1907,1909,1835
1858,1845,1761
1871,1856,1904
1872,1738,1884
1840,1793,1728
1901,1863,1782
1837,1795,1802
1802,1809,1882
1888,1823,1920
1842,1806,1802
1820,1803,1875
1822,1814,1911
1861,1950,1755
1943,1866,1757
1895,1808,1904
1787,1761,1899
1797,1779,1774
1879,1831,1783
1890,1829,1952
1931,1861,1936
1871,1930,1611
1865,1912,1789
1833,1741,1963
1799,1767,1941
1844,1845,1744
1942,1818,1766
1887,1834,1863
1819,1872,1861
1825,1862,1820
1872,1849,1887
1857,1802,1874
1820,1777,1829
1824,1829,1767
1911,1914,1815
1970,1856,1989
1810,1780,1905
1789,1808,1690
1842,1822,1712
1884,1857,1935
1870,1850,1871
1872,1821,1755
1887,1830,1842
1870,1811,1937
1777,1827,1874
1792,1862,1744
1876,1857,1808
1939,1899,1938
1873,1797,1949
1841,1807,1814
1852,1802,1801
1890,1819,1921
1875,1841,1914
1813,1829,1749
1856,1837,1774
1866,1841,1877
1843,1839,1891
1848,1841,1773
1855,1854,1781
1863,1840,1942
1869,1823,1901
1903,1836,1744
1933,1861,1851
1879,1845,2005
1826,1859,1910
1865,1838,1737
1875,1826,1819
1866,1842,1943
1866,1839,1863
1871,1859,1798
1905,1844,1857
1884,1837,1943
1875,1885,1835
1858,1840,1824
1879,1825,1917
1856,1820,1911
1847,1797,1803
1861,1808,1713
1885,1850,1824
1858,1869,1942
1856,1893,1860
1869,1873,1818
1883,1839,1836
1887,1827,1930
1828,1827,1886
1811,1857,1751
1926,1893,1833
1943,1856,1951
1801,1815,1829
1767,1808,1737
1888,1891,1873
1898,1839,1936
1873,1825,1824
1862,1807,1806
1872,1873,1851
1898,1917,1931
1821,1821,1920
1854,1783,1771
1895,1825,1803
1888,1904,1947
1877,1862,1893
1856,1821,1798
1819,1823,1745
1859,1859,1897
1867,1888,1874
1856,1859,1810
1860,1813,1815
1838,1801,1869
1825,1803,1855
1875,1857,1759
1942,1843,1834
1874,1858,1964
1858,1881,1887
1857,1819,1744
1889,1811,1733
1811,1808,1921
1776,1799,1913
1838,1835,1777
1906,1883,1759
1962,1877,1986
1838,1845,1936
1775,1809,1742
1822,1829,1719
1808,1808,1825
1897,1826,1877
1891,1810,1803
1847,1821,1776
1899,1878,1986
1840,1893,1932
1829,1822,1755
1846,1799,1793
1813,1807,1921
1819,1813,1846
1792,1802,1664
1858,1789,1744
1908,1891,1975
1869,1830,1921
1817,1835,1813
1829,1863,1747
1857,1830,1847
1839,1835,1828
1867,1869,1776
1956,1836,1840
1813,1797,1872
1748,1786,1847
1803,1818,1776
1895,1898,1795
1882,1843,1843
1840,1875,1939
1841,1799,1837
1849,1810,1809
1857,1850,1872
1936,1847,1911
1822,1808,1701
1842,1828,1738
1835,1821,1887
1840,1858,1906
1863,1878,1858
1889,1845,1868
1874,1845,1881
1831,1817,1823
1815,1793,1751
1882,1808,1779
1887,1803,1891
1797,1856,1893
1795,1866,1830
1849,1879,1763
1857,1903,1882
1814,1830,1904
1839,1797,1810
1918,1808,1835
1835,1825,1855
1822,1849,1808
1911,1822,1815
1901,1851,1846
1834,1863,1924
1754,1854,1776
1808,1859,1701
1904,1829,1868
1856,1792,1914
1763,1797,1841
1818,1879,1790
1902,1887,1778
1931,1837,1988
1847,1781,1954
1774,1792,1758
1821,1883,1623
1920,1970,1921
1841,1805,1989
1757,1743,1826
1789,1822,1678
1858,1856,1793
1894,1831,1966
1867,1795,1819
1842,1861,1813
1814,1831,1870
1806,1826,1843
1868,1881,1820
1890,1890,1835
1824,1851,1826
1803,1823,1730
1887,1839,1885
1934,1862,1930
1850,1850,1952
1734,1829,1763
1793,1826,1723
1891,1895,1799
1872,1904,1858
1793,1789,1923
1840,1744,1809
1883,1839,1831
1855,1871,1904
1840,1791,1841
1875,1808,1730
1872,1861,1893
1840,1933,2029
1765,1863,1854
1782,1782,1699
1836,1822,1741
1842,1845,1815
1876,1857,1968
1834,1813,1810
1803,1826,1776
1802,1861,1808
1799,1802,1845
1815,1798,1834
1837,1814,1856
1886,1872,1953
1867,1888,1909
1840,1826,1776
1829,1790,1725
1845,1771,1856
1872,1825,1913
1840,1847,1808
1861,1866,1808
1879,1828,1887
1798,1803,1871
1808,1824,1917
1889,1904,1872
1863,1853,1840
1794,1782,1747
1806,1823,1754
1890,1855,1859
1877,1865,1963
1813,1837,1840
1838,1854,1725
1872,1872,1714
1895,1797,1973
1847,1779,1869
1808,1825,1748
1879,1859,1825
1866,1861,1941
1808,1836,1791
1837,1815,1763
1890,1824,1867
1841,1835,1936
1789,1833,1801
1799,1830,1669
1873,1873,1827
1851,1847,1917
1827,1818,1911
1863,1795,1806
1889,1821,1863
1834,1869,1949
1808,1855,1853
1847,1862,1651
1818,1823,1726
1815,1825,1983
1821,1843,1838
1835,1799,1809
1886,1847,1842
1875,1849,1968
1839,1867,1927
1815,1813,1756
1904,1831,1724
1897,1858,1977
1821,1831,1841
1803,1824,1701
1863,1853,1728
1826,1779,1840
1808,1829,1967
1806,1877,1814
1841,1845,1791
1866,1840,1942
1833,1873,1915
1833,1818,1750
1875,1857,1794
1911,1885,1937
1859,1872,1926
1766,1830,1758
1835,1808,1670
1840,1754,1827
1831,1827,1923
1795,1847,1878
1839,1900,1748
1873,1856,1936
1867,1796,1979
1863,1822,1798
1831,1853,1794
1822,1829,1985
1779,1815,1835
1808,1856,1775
1905,1904,1777
1963,1890,1955
1783,1771,1921
1763,1751,1719
1850,1837,1826
1838,1873,1838
1856,1832,1911
1808,1809,1795
1819,1836,1753
1840,1856,1847
1983,1877,1924
1889,1826,1906
1801,1803,1858
1794,1854,1930
1811,1871,1795
1877,1853,1725
1915,1871,1838
1855,1818,1929
1801,1802,1850
1811,1857,1744
1903,1858,1870
1865,1819,1931
1872,1850,1849
1851,1874,1750
1850,1843,1826
1872,1883,1938
1856,1828,1925
1838,1814,1791
1876,1882,1808
1870,1831,1858
1853,1819,1853
1857,1830,1813
1857,1829,1683
1919,1920,1863
1888,1840,1909
1792,1773,1781
1807,1808,1760
1871,1877,1939
1851,1872,1917
1863,1881,1811
1904,1874,1840
1880,1829,1914
1820,1838,1889
1873,1837,1785
1938,1849,1785
1815,1818,1840
1769,1777,1898
1831,1822,1874
1873,1902,1872
1872,1883,1901
1806,1810,1845
1870,1840,1841
1936,1871,1843
1876,1881,1905
1802,1841,1785
1817,1809,1729
1885,1856,1837
1904,1870,1971
1857,1867,1917
1808,1832,1742
1889,1846,1809
1955,1888,1994
1886,1867,1813
1879,1872,1712
1837,1789,1766
1835,1815,1974
1744,1821,1869
1776,1865,1730
1890,1838,1780
1894,1863,1996
1822,1859,1915
1845,1856,1725
1905,1857,1808
1845,1839,1891
1903,1863,1964
1801,1859,1783
1824,1863,1715
1821,1798,1875
1827,1787,1963
1901,1829,1807
1845,1854,1719
1801,1877,1878
1822,1855,1914
1859,1845,1808
1854,1862,1823
1829,1854,1863
1822,1845,1884
1823,1802,1803
1861,1872,1830
1856,1873,1975
1866,1857,1893
1854,1911,1779
1822,1809,1724
1835,1811,1814
1850,1851,1931
1870,1834,1847
1893,1836,1790
1895,1886,1908
1778,1808,1914
1776,1798,1781
1863,1879,1823
1961,1901,1909
1901,1852,1882
1856,1840,1762
1858,1853,1788
1878,1847,1881
1815,1852,1856
1751,1846,1740
1829,1837,1824
1889,1834,1993
1834,1833,1913
1840,1857,1712
1907,1841,1775
1847,1824,1904
1845,1817,1968
1822,1883,1768
1897,1902,1776
1867,1819,1898
1823,1830,1952
1856,1879,1787
1872,1904,1759
1961,1856,1904
1803,1765,1891
1774,1777,1774
1806,1842,1746
1872,1829,1919
1796,1849,1936
1806,1861,1787
1859,1887,1774
1882,1878,1946
1814,1834,1915
1747,1850,1717
1904,1877,1791
1930,1857,1968
1847,1858,1983
1773,1819,1786
1862,1847,1783
1877,1841,1920
1865,1799,1813
1861,1822,1687
1794,1855,1822
1802,1849,1968
1773,1897,1849
1862,1856,1744
1894,1849,1897
1903,1851,1987
1901,1838,1917
1872,1802,1729
1868,1827,1777
1839,1869,1966
1904,1866,1956
1833,1846,1757
1808,1877,1712
1847,1825,1904
