1875,1831,1842
1899,1837,1844
1879,1829,1837
1883,1838,1840
1904,1851,1849
1903,1856,1842
1875,1838,1840
1866,1883,1841
1893,1853,1839
1874,1778,1837
1837,1777,1851
1840,1807,1861
1888,1837,1857
1898,1842,1850
1874,1843,1845
1875,1846,1847
1904,1872,1862
1920,1846,1845
1860,1867,1818
1815,1763,1841
1854,1769,1856
1898,1826,1840
1863,1811,1855
1863,1815,1856
1883,1834,1856
1887,1835,1858
1869,1828,1853
1871,1900,1853
1872,1831,1852
1871,1826,1851
1862,1855,1840
1847,1815,1846
1885,1815,1855
1904,1821,1843
1863,1861,1839
1854,1846,1846
1869,1807,1856
1877,1797,1844
1877,1829,1834
1871,1851,1857
1861,1859,1856
1783,1841,1828
1678,1776,1843
1694,1787,1855
1760,1813,1851
1810,1836,1850
1799,1831,1847
1809,1842,1856
1881,1862,1863
1881,1861,1854
1872,1935,1839
1835,1744,1821
1831,1744,1859
1847,1808,1866
1829,1815,1847
1831,1813,1852
1803,1850,1840
1799,1825,1842
1825,1797,1839
1814,1818,1842
1831,1819,1839
1840,1833,1846
1828,1835,1844
1840,1840,1845
1874,1852,1854
1899,1851,1856
1867,1841,1849
1860,1851,1861
1893,1861,1857
1905,1866,1856
1890,1861,1856
1835,1841,1827
1735,1913,1856
1655,1898,1874
1637,1798,1875
1535,1741,1872
1505,1719,1840
1169,1777,1858
1351,1820,1869
1746,1847,1873
1917,1866,1872
1881,1816,1863
1771,1808,1852
1813,1826,1859
1918,1845,1866
1957,1857,1867
1915,1869,1858
1568,1854,1856
407,1798,1841
0,1830,1879
0,1822,1875
418,1846,1879
830,1845,1866
253,1884,1855
0,1813,1854
387,1770,1871
1712,1806,1877
2308,1840,1867
2265,1840,1840
2047,1829,1856
1991,1856,1884
2029,1783,1883
2038,1795,1862
2054,1840,1866
2070,1867,1872
2064,1840,1873
2027,1802,1874
2031,1801,1866
2071,1814,1865
2095,1822,1872
2075,1837,1867
2064,1840,1872
2096,1852,1879
2107,1859,1877
2082,1845,1870
2096,1860,1868
2090,1870,1843
2069,1826,1889
2027,1824,1897
2019,1870,1867
2047,1809,1874
2054,1808,1889
1815,1823,1885
1424,1831,1855
1729,1840,1872
2007,1883,1882
2033,1797,1872
2002,1847,1872
2023,1872,1870
2028,1787,1874
1987,1751,1873
2000,1795,1878
2023,1828,1870
2047,1840,1872
2023,1829,1873
2002,1840,1873
2038,1855,1879
2066,1860,1889
2035,1855,1872
2039,1882,1872
2064,1868,1879
2047,1840,1875
2039,1838,1872
2026,1852,1872
2047,1866,1869
2029,1801,1843
1981,1872,1855
1982,1820,1876
2022,1837,1902
2031,1796,1889
1990,1807,1884
1993,1829,1880
2046,1855,1875
2061,1854,1871
2007,1871,1899
1987,1859,1895
2002,1839,1883
2018,1809,1879
1996,1824,1873
1996,1892,1877
2014,1828,1885
2034,1815,1892
2000,1815,1879
1975,1840,1878
2021,1884,1879
2045,1875,1885
1979,1808,1872
1947,1799,1872
2003,1815,1882
2011,1861,1890
1968,1858,1883
1962,1847,1882
1974,1808,1892
1981,1807,1885
1971,1813,1878
1969,1827,1873
2006,1854,1874
2015,1904,1888
1968,1840,1904
1956,1824,1900
2002,1857,1899
2009,1871,1893
1971,1921,1872
1951,1814,1879
1987,1808,1886
1974,1803,1901
1922,1794,1884
1923,1821,1887
1981,1833,1872
1995,1868,1904
1961,1854,1917
1939,1840,1904
1968,1829,1905
1979,1840,1904
1968,1845,1899
1945,1882,1908
1967,1853,1914
1969,1840,1911
1956,1864,1904
1939,1819,1910
1961,1815,1920
1983,1829,1919
1948,1838,1922
1978,1863,1927
1985,1860,1931
1927,1817,1914
1886,1847,1908
1902,1856,1913
1951,1859,1923
1937,1802,1922
1922,1748,1901
1923,1825,1898
1938,1824,1941
1949,1809,1955
1931,1827,1939
1937,1812,1934
1965,1827,1930
1951,1840,1929
1927,1842,1925
1927,1842,1927
1954,1854,1926
1984,1861,1926
1958,1853,1919
1926,1811,1897
1909,1805,1909
1926,1835,1926
1904,1827,1915
1914,1834,1917
1943,1850,1908
1950,1872,1913
1915,1842,1915
1903,1830,1922
1920,1824,1921
1927,1897,1907
1904,1787,1898
1908,1790,1883
1913,1819,1918
1920,1847,1914
1904,1799,1898
1887,1761,1907
1935,1787,1904
1909,1805,1886
1882,1853,1904
1878,1866,1904
1900,1831,1898
1917,1831,1895
1894,1840,1887
1901,1842,1889
1920,1847,1895
1936,1850,1894
1905,1860,1881
1930,1878,1877
1920,1835,1873
1906,1883,1867
1889,1821,1856
1904,1850,1865
1744,1777,1891
0,1762,1859
0,1825,1865
0,1839,1878
0,1840,1872
4095,1842,1879
4095,1842,1886
3133,1845,1892
1983,1859,1890
1648,1850,1888
1744,1857,1872
1851,1886,1858
1875,1835,1886
1860,1875,1876
1839,1847,1799
1840,1744,1809
1840,1742,1874
1842,1823,1882
1837,1843,1851
1840,1773,1852
1840,1779,1859
1843,1808,1841
1840,1838,1856
1840,1852,1861
1839,1861,1856
1839,1861,1854
1833,1843,1840
1839,1845,1840
1839,1866,1847
1835,1868,1841
1831,1847,1844
1839,1858,1845
1830,1873,1840
1829,1888,1799
1921,1760,1751
2057,1828,1869
2198,1839,1893
2307,1791,1856
2394,1737,1833
2475,1791,1854
2606,1840,1867
2691,1847,1853
2737,1838,1839
2800,1851,1840
2885,1867,1849
2954,1867,1855
2985,1847,1852
3058,1861,1854
3163,1874,1851
3120,1815,1854
3115,1823,1847
3174,1843,1846
3271,1872,1847
3345,1828,1847
3314,1813,1851
3321,1808,1821
3393,1843,1840
3445,1839,1867
3455,1822,1863
3472,1811,1846
3501,1817,1852
3543,1828,1849
3536,1821,1840
3551,1855,1841
3634,1891,1828
3667,1780,1854
3597,1733,1843
3546,1748,1838
3650,1811,1765
3662,1807,1862
3618,1792,1884
3610,1775,1863
3683,1794,1846
3659,1808,1840
3597,1773,1834
3569,1779,1850
3637,1808,1854
3663,1843,1838
3626,1777,1840
3616,1783,1840
3643,1795,1840
3665,1805,1838
3565,1809,1827
3547,1838,1835
3571,1810,1833
3580,1815,1837
3552,1808,1834
3538,1818,1826
3568,1855,1807
3539,1781,1830
3437,1777,1845
3426,1802,1843
3530,1840,1835
3487,1831,1826
3383,1787,1826
3377,1800,1830
3437,1828,1840
3443,1820,1825
3359,1815,1819
3330,1831,1822
3383,1850,1808
3390,1842,1810
3334,1821,1837
3265,1776,1840
3293,1794,1833
3313,1876,1747
3214,1824,1797
3174,1740,1846
3216,1762,1849
3261,1847,1831
3189,1805,1793
3149,1763,1811
3167,1807,1840
3173,1825,1837
3139,1822,1817
3129,1824,1819
3131,1811,1818
3122,1839,1821
3062,1840,1818
3056,1837,1818
3082,1855,1822
3060,1892,1829
2994,1853,1826
2933,1824,1821
2960,1831,1810
2960,1805,1819
2933,1807,1824
2915,1809,1826
2927,1817,1810
2928,1840,1789
2877,1830,1807
2829,1834,1826
2853,1840,1822
2847,1796,1815
2810,1799,1808
2790,1831,1808
2805,1857,1810
2810,1857,1817
2771,1854,1808
2747,1855,1817
2758,1870,1826
2763,1873,1824
2719,1856,1813
2697,1846,1808
2700,1853,1808
2687,1871,1812
2608,1901,1808
0,1807,1791
0,1833,1779
0,1866,1801
0,1776,1810
17,1774,1806
1991,1833,1818
3201,1874,1759
3174,1859,1797
2835,1808,1832
2741,1838,1831
2750,1852,1817
2750,1854,1811
2736,1855,1815
2742,1862,1827
2731,1866,1822
2690,1860,1811
2663,1862,1819
2668,1867,1817
2656,1867,1811
2610,1924,1807
2522,1894,1810
2559,1853,1810
2559,1806,1807
2517,1749,1795
2518,1798,1802
2526,1839,1808
2512,1867,1815
2484,1834,1808
2478,1844,1817
2508,1866,1820
2512,1871,1822
2479,1861,1811
2463,1867,1813
2485,1874,1815
2480,1872,1815
2445,1868,1814
2430,1865,1809
2416,1872,1812
2414,1888,1810
2382,1872,1811
2414,1869,1813
2410,1841,1793
2339,1795,1741
2254,1826,1835
2272,1921,1863
2289,1851,1844
2271,1782,1830
2249,1789,1809
2257,1825,1810
2290,1845,1824
2304,1869,1834
2256,1857,1823
2247,1856,1823
2266,1859,1826
2256,1862,1824
2224,1859,1817
2207,1871,1819
2244,1888,1833
2213,1893,1835
2014,1827,1815
2027,1821,1810
2142,1851,1821
2179,1889,1815
2141,1862,1808
2127,1840,1813
2128,1847,1819
2122,1856,1821
2092,1860,1818
2105,1866,1817
2112,1884,1821
2106,1890,1825
2067,1872,1813
2074,1863,1808
2071,1891,1817
2039,1841,1813
1999,1757,1821
1994,1787,1811
2041,1834,1820
2055,1840,1783
1987,1835,1798
1957,1847,1839
1985,1859,1839
2007,1869,1828
1970,1855,1810
1965,1861,1813
1981,1872,1827
1987,1872,1823
1953,1856,1819
1937,1855,1819
1956,1865,1822
1962,1871,1814
1935,1855,1814
1909,1870,1815
1907,1875,1812
1903,1882,1809
1856,1785,1825
1808,1808,1817
1861,1873,1749
1837,1759,1815
1808,1767,1837
1825,1826,1831
1841,1830,1828
1855,1826,1835
1830,1821,1821
1823,1835,1811
1843,1850,1824
1853,1857,1821
1821,1850,1822
1808,1849,1828
1829,1860,1835
1829,1861,1838
1792,1851,1822
0,1842,1819
0,1866,1826
0,1872,1826
0,1860,1811
1967,1860,1823
4095,1832,1809
4095,1896,1830
3619,1793,1856
2217,1808,1872
1660,1871,1798
1701,1807,1853
1830,1787,1873
1874,1806,1851
1858,1828,1847
1842,1835,1840
1837,1823,1835
1840,1827,1846
1840,1840,1839
1835,1839,1839
1839,1826,1830
1838,1838,1831
1838,1847,1837
1838,1854,1835
1839,1825,1833
1836,1808,1829
1834,1833,1841
1835,1839,1838
1834,1828,1831
1840,1821,1805
1837,1831,1819
1833,1856,1851
1846,1847,1843
1963,1841,1834
2176,1947,1765
2302,1828,1813
2363,1770,1872
2454,1793,1873
2607,1822,1861
2711,1849,1872
2763,1841,1840
1311,1830,1835
1189,1894,1767
851,1837,1860
1453,1764,1869
1251,1712,1843
0,1779,1850
0,1824,1865
0,1782,1842
0,1792,1843
0,1817,1846
0,1831,1845
98,1827,1840
0,1827,1839
4095,1849,1851
4095,1840,1858
4095,1823,1856
2960,1823,1866
1893,1834,1865
1639,1826,1866
1759,1808,1856
1867,1797,1776
1872,1858,1870
1853,1793,1864
1824,1798,1872
1840,1808,1871
1936,1735,1852
485,1716,1850
0,1777,1829
0,1775,1836
1285,1776,1850
4095,1787,1855
3847,1779,1856
2354,1786,1857
1689,1798,1859
1682,1803,1858
1510,1797,1849
1915,1802,1805
2046,1796,1824
1917,1845,1857
1839,1724,1840
1825,1819,1881
1831,1802,1872
1821,1824,1812
1726,1653,1818
1954,1680,1861
1921,1730,1867
1842,1769,1840
1823,1767,1827
1839,1785,1835
1835,1807,1842
1840,1813,1845
1837,1810,1840
1466,1814,1839
665,1835,1797
1840,1835,1851
2946,1821,1856
2551,1791,1846
1963,1841,1879
1746,1814,1840
2118,1777,1858
2885,1798,1885
3983,1760,1866
4095,1776,1850
4017,1787,1843
2435,1789,1806
1655,1727,1890
1653,1753,1894
1796,1780,1872
1861,1805,1858
1858,1824,1858
1840,1831,1855
1834,1820,1853
1838,1839,1850
1833,1808,1840
1831,1824,1860
1833,1872,1843
1840,2017,1830
1835,1669,1810
1836,1696,1861
1840,1727,1876
1834,1770,1871
1837,1778,1866
1838,1787,1858
1837,1791,1855
1835,1786,1843
1839,1813,1849
1840,1841,1872
1834,1840,1872
1833,1858,1853
1836,1831,1854
1830,1863,1846
1830,1828,1840
1833,1866,1810
1831,1814,1850
1839,1759,1905
1897,1808,1873
2003,1759,1854
2016,1757,1866
2099,1846,1867
2131,1766,1827
2173,1792,1839
2237,1813,1891
2291,1825,1890
2320,1815,1866
2369,1831,1863
2453,1872,1869
2491,1871,1816
2473,1793,1869
2499,1803,1891
2554,1819,1880
2627,1889,1875
2649,1937,1846
2624,1741,1871
2663,1732,1893
2707,1762,1873
2725,1808,1814
2768,1825,1849
2807,1840,1863
2782,1776,1847
2740,1744,1902
2788,1776,1903
2864,1820,1882
2896,1849,1879
2869,1808,1872
2884,1798,1867
2940,1813,1872
2976,1828,1873
2979,1838,1872
2963,1856,1867
2974,1820,1867
2990,1791,1873
2978,1792,1870
3025,1829,1865
3053,1856,1893
3056,1780,1859
3045,1795,1799
3002,1794,1892
3031,1824,1932
3085,1823,1888
3045,1773,1857
3035,1798,1866
3091,1822,1877
3127,1791,1874
3084,1799,1856
3061,1791,1854
3105,1776,1873
3113,1805,1889
3062,1827,1876
3060,1841,1867
3111,1821,1870
3152,1817,1861
3071,1697,1788
3008,1745,1888
3068,1820,1925
3118,1851,1899
3068,1803,1871
3056,1806,1865
3118,1827,1870
3114,1822,1867
3093,1834,1863
3071,1795,1873
3082,1794,1872
3105,1818,1857
3053,1855,1865
3047,1887,1859
3056,1791,1856
3069,1762,1871
3017,1754,1871
2979,1776,1867
207,1808,1838
424,1856,1819
1765,1808,1850
2119,1805,1895
2001,1807,1872
1815,1760,1854
1806,1778,1838
1833,1779,1836
1839,1840,1837
1839,1840,1851
1830,1808,1845
1833,1916,1855
1835,1769,1836
1831,1761,1838
1838,1793,1835
1833,1824,1840
1836,1863,1797
1829,1840,1824
1835,1833,1857
1830,1840,1875
1835,1840,1866
1834,1858,1851
1835,1917,1843
1835,1825,1830
1834,1786,1849
1837,1839,1871
1837,1872,1840
1837,1811,1824
1834,1813,1853
1832,1839,1852
1838,1868,1854
1846,1954,1797
1872,1808,1838
1853,1773,1841
1840,1819,1854
1874,1857,1851
1913,1885,1872
1933,1915,1849
1954,1904,1808
1935,1854,1840
1937,1792,1858
1942,1807,1859
1955,1840,1850
1985,1913,1808
2038,1798,1818
2004,1815,1888
2007,1853,1898
2027,1831,1840
2065,1865,1847
2087,1895,1857
2065,1830,1856
2073,1862,1867
2109,1925,1859
2114,1849,1850
2082,1831,1840
1823,1854,1849
1779,1898,1873
2070,1861,1841
2178,1877,1824
2169,1859,1844
2133,1803,1869
2145,1827,1810
2122,1763,1857
2134,1829,1869
2185,1845,1865
2193,1821,1872
2189,1819,1859
2191,1840,1863
2202,1862,1857
2202,1862,1855
2198,1863,1845
2213,1831,1825
2224,1888,1850
2224,1869,1904
2163,1833,1873
2175,1862,1844
2223,1886,1841
2239,1853,1840
2224,1808,1812
2211,1861,1871
2225,1771,1867
2225,1813,1871
2224,1826,1857
2218,1799,1866
2255,1831,1872
2262,1830,1863
2241,1833,1853
2261,1863,1855
2263,1875,1859
2251,1868,1868
2237,1861,1866
2255,1846,1840
2277,1855,1855
2272,1887,1874
2234,1849,1862
2238,1811,1843
2288,1810,1851
2307,1859,1878
2256,1943,1856
2229,1851,1854
2272,1835,1846
2271,1777,1850
2248,1780,1872
2271,1787,1853
2261,1799,1856
2283,1861,1866
2254,1834,1859
2246,1834,1858
2247,1862,1859
2266,1856,1855
2259,1857,1819
2256,1818,1839
2274,1847,1868
2263,1872,1896
2226,1859,1881
2224,1850,1857
2253,1868,1847
2256,1892,1850
2225,1892,1849
2098,1831,1870
2189,1888,1870
2253,1920,1840
2255,1792,1822
2242,1680,1840
2184,1776,1866
2160,1840,1872
2110,1862,1851
2156,1840,1811
2222,1851,1857
2224,1886,1876
2214,1852,1843
2221,1806,1858
2237,1827,1866
2243,1832,1836
2240,1856,1859
2224,1875,1865
2250,1903,1863
2241,1942,1841
2211,1959,1829
2128,1710,1847
2147,1686,1851
2225,1770,1843
2227,1747,1818
2187,1830,1869
2192,1888,1872
2166,1813,1871
2187,1808,1861
2179,1817,1840
2199,1859,1855
2219,1872,1856
2202,1868,1846
2223,1868,1857
2235,1873,1859
2239,1907,1845
2190,1861,1824
2205,1819,1822
2247,1860,1808
2203,1792,1856
2183,1811,1871
2166,1855,1876
2197,1776,1858
2193,1796,1851
2153,1833,1851
2159,1840,1858
2214,1840,1831
2173,1786,1808
2128,1834,1829
2138,1809,1865
2176,1831,1867
2201,1857,1868
2174,1846,1843
2162,1840,1860
2192,1830,1793
2163,1865,1847
2143,1856,1855
2137,1840,1856
2192,1842,1845
2195,1780,1840
2133,1804,1840
2115,1840,1827
2149,1827,1841
2130,1838,1863
2126,1840,1856
2128,1833,1840
2139,1838,1835
2154,1856,1841
2128,1847,1815
2166,1922,1852
2125,1805,1859
2090,1799,1850
2090,1824,1835
2121,1851,1812
2153,1895,1855
2190,1904,1872
2192,1901,1858
2167,1873,1871
2253,1994,1889
2122,1927,1837
1839,1814,1776
1477,1739,1843
1682,1862,1905
1843,1966,1884
1868,1867,1856
1847,1841,1862
1827,1824,1858
1814,1776,1808
1838,1850,1831
1839,1771,1841
1835,1834,1853
1828,1878,1891
832,1885,1863
0,2000,1850
0,1783,1871
0,1637,1859
0,1657,1803
0,1719,1859
0,1693,1917
0,1971,2018
0,1904,1845
0,1769,1771
0,1488,1845
0,1746,1840
0,1739,1877
0,1632,1863
0,1433,1773
0,1535,1825
0,1850,1918
0,1622,1856
0,1591,1846
0,1297,1824
0,1424,1803
0,1744,1895
0,1699,1889
0,1815,1904
0,1634,1898
0,1251,1727
0,1411,1776
0,1674,1830
0,1574,1971
0,1535,1909
0,1375,1761
0,1313,1727
0,1559,1968
0,1559,1953
0,1298,1856
0,1520,1765
323,1386,1819
1638,1401,1883
2128,1424,1902
2018,1423,1936
1861,1629,1871
1822,1392,1808
1840,1278,1777
1848,1456,1936
1845,1474,1830
1847,1467,2014
1840,1488,1856
1840,1270,1726
1847,1438,1893
1843,1566,1853
1838,1685,1883
1831,1521,1810
1840,1172,1865
1841,1325,1851
1833,1328,1795
1842,1360,1793
1840,1701,2032
1834,1578,1914
1835,1200,1745
1840,1253,1749
2154,1456,1831
2891,1602,1808
3834,1616,1817
4095,1785,2000
4095,1357,1921
4095,1263,1775
4095,1405,1872
4095,1328,1843
4095,1535,1893
4095,1584,1865
4095,1415,1793
4095,1300,1893
4095,1466,1925
4095,1360,1793
4095,1519,1893
4095,1577,1881
4095,1477,1827
4095,1639,1910
4095,1581,1791
4095,1618,1887
4095,1575,1936
4095,1595,1878
4095,1776,1958
4095,1569,1853
4095,1653,1920
4095,1365,1835
4095,1263,1829
4095,1520,1987
4095,1571,1968
4095,1510,1915
4095,1633,1821
4095,1445,1806
4095,1439,1851
4095,1403,1909
4095,1632,1936
4095,1669,1845
4095,1626,1872
4095,1737,1908
4095,1872,1968
4095,1889,1910
4095,1818,1925
4095,1502,1731
4095,1506,1849
4095,1376,1953
4095,1442,1882
4095,1577,1850
4095,1616,1837
4095,1745,1913
4095,1834,1937
4095,1774,1805
4095,1657,1803
4095,1648,1808
4095,1817,1954
4095,1776,1959
4095,1776,1759
4095,1973,1768
4095,1574,1903
4095,1535,1941
4095,1471,1791
4095,1601,1846
4095,1649,1838
4095,1803,1907
4095,1773,1883
4095,1899,1793
4095,1707,1696
4095,1804,1882
4095,1813,1856
4095,1727,1778
4095,1804,1814
4095,1809,1790
4095,1803,1815
4095,1857,1899
4095,2061,1916
4095,2005,1781
4095,1563,1728
4095,1468,1763
4095,1627,1786
4095,1843,1834
4095,1831,1738
4095,1833,1744
4095,1872,1761
4095,1893,1734
4095,1901,1680
4095,1802,1741
4095,1904,1830
4095,1925,1671
4095,1819,1630
4095,1861,1637
4095,1983,1803
4095,1939,1739
4095,1713,1629
4095,1596,1529
4095,1781,1713
4095,1926,1734
4095,1846,1719
4095,1830,1741
4095,1936,1759
4095,1937,1674
4095,1789,1530
4095,1942,1648
4095,1937,1730
4095,1947,1776
4095,1965,1694
4095,1984,1649
4095,1840,1727
4095,2062,1696
4095,1929,1535
4095,1648,1602
4095,1744,1692
4095,1938,1758
4095,2112,1758
4095,1923,1698
4095,1857,1678
4095,1872,1679
4095,1898,1669
4095,1874,1642
4095,2018,1643
4095,1989,1775
4095,1945,1729
4095,1996,1721
4095,2187,1763
4095,1779,1648
4095,1779,1577
4095,1946,1677
4095,2000,1774
4095,2130,1796
4095,2033,1728
4095,1746,1648
4095,1709,1646
4095,1830,1712
4095,1986,1744
4095,2011,1744
4095,2031,1761
4095,2006,1743
4095,2004,1698
4095,2083,1781
4095,2096,1712
4095,2033,1659
4095,1935,1650
4095,1927,1751
4095,1904,1621
4095,1872,1829
4095,1814,1847
4095,1841,1722
4095,1936,1732
4095,2022,1790
4095,2011,1670
4095,1969,1651
4095,1974,1745
4095,1969,1744
4095,1968,1699
4095,2020,1751
4095,2103,1829
4095,2201,1831
4095,2224,1799
4095,2104,1765
4095,1887,1781
4095,1741,1712
4095,1743,1649
4095,1822,1754
4095,1918,1808
4095,1966,1758
4095,1995,1773
4095,2078,1823
3763,2029,1760
3911,2089,1797
3823,2067,1792
3431,1995,1776
3331,1983,1792
3421,2018,1808
3342,2171,1843
3258,2177,1795
3395,2121,1830
3184,2000,1793
2939,1826,1677
2759,1661,1762
3023,1819,1797
2982,2019,1765
2672,1996,1750
2580,1949,1795
2774,2064,1842
2789,2134,1838
2716,2039,1775
2929,2172,1789
2594,1988,1714
2349,1932,1777
2542,2134,1857
2435,2045,1839
2327,1936,1744
2384,2186,1815
2372,2095,1791
2219,2000,1771
2096,1821,1824
2180,1782,1813
2166,1933,1776
2107,1999,1814
2160,2039,1834
1886,2012,1700
1823,1997,1754
1874,2073,1899
1917,2083,1889
1883,2020,1897
2019,2091,1827
1935,2064,1742
1782,2079,1807
1645,1996,1805
1677,2009,1833
1693,2016,1830
1737,2186,1784
1849,1991,1859
1130,1923,1850
769,1835,1801
971,1831,1815
1275,1846,1775
1153,1915,1855
118,2031,1872
642,2121,1872
1807,2038,1791
2198,1986,1809
2030,1995,1837
1845,2103,1860
1795,2060,1862
1819,2145,1939
1839,2176,1902
1838,2017,1779
1837,1914,1829
1835,1870,1830
1831,1912,1872
1833,2109,1929
1831,2065,1871
1834,1921,1890
1835,1872,1839
1831,1914,1834
1837,1873,1905
1837,1955,1851
1833,2064,1895
1826,2013,1872
1837,1946,1863
1835,1959,1890
1836,2000,1895
1830,2046,1899
1835,2142,1921
1827,2037,1860
1837,1981,1827
1835,1911,1901
1833,1874,1889
1834,2000,1916
1825,2039,1915
1833,2030,1872
1740,1872,1891
1616,1780,1875
1654,1904,1904
1833,2007,1863
1967,2002,1904
1971,1959,1948
1872,1904,1883
1824,1847,1811
1924,1922,1894
1939,2071,1901
1902,1898,1868
2059,1932,1929
2139,1935,1933
2181,1933,1883
1910,1918,1854
1845,1963,1847
1961,1961,1904
2097,1984,1921
2130,1970,1904
2154,2009,1893
2160,2075,1907
2238,1999,1899
2245,1801,1893
2160,1927,1894
2075,1901,1922
2208,1989,1970
2191,1762,1871
2207,1814,1879
2158,1830,1814
2012,1794,1898
2227,1905,1937
2256,1930,1934
2145,1903,1904
2298,1935,1914
2559,2011,1951
2270,1948,1887
2103,1936,1900
2357,2000,1971
2483,1969,1965
2194,1968,1895
2221,1920,1885
2459,2007,1886
2288,1802,1904
2085,1719,1936
2174,1808,1942
2460,1953,1946
2619,1941,1919
2208,1733,1881
2167,1778,1919
2507,1904,1981
2407,1904,1917
2167,1865,1918
2174,1881,1907
2476,1965,1995
2499,1918,1881
2333,1914,1891
2379,1905,1914
2385,1866,1882
2521,1904,1881
2511,1913,1954
2352,1889,1936
2144,1877,1905
2370,2031,1902
2362,1822,1883
2331,1693,1904
2421,1744,1985
2411,1797,1946
2316,1807,1922
2352,1882,1850
2559,1951,1895
2386,1808,1822
2325,1840,1907
2479,1937,1968
2510,1910,1937
2329,1872,1941
2289,1861,1902
2451,1861,1915
2593,1941,1922
2277,1883,1909
2257,1863,1884
2326,1872,1904
2209,1783,1882
2320,1746,1879
2357,1664,1863
2288,1674,1854
2412,1838,1905
2594,1921,1965
2304,1847,1892
2331,1894,1977
2250,1837,1874
2208,1836,1902
2353,1867,1887
2366,1885,1909
2417,1986,1879
2256,1818,1930
2384,1877,1932
2551,1851,1866
2224,1694,1855
2172,1535,1875
2321,1653,1937
2334,1840,1859
2320,1883,1808
2403,1914,1934
2402,1842,1917
2066,1693,1853
2142,1751,1895
2318,1903,1904
2502,2061,1847
2483,2014,1903
2162,1735,1954
2256,1659,1792
2373,1815,1829
2295,1808,1911
2413,1835,1905
2242,1762,1957
2334,1840,1898
2291,1744,1825
2134,1632,1888
2254,1702,1871
2383,1808,1845
2433,1867,1783
2256,2013,1865
2187,1829,1883
2357,1930,1857
2234,1770,1810
2330,1811,1874
2345,1927,1931
2450,2009,1915
2374,1795,1941
2084,1669,1922
2277,1664,1882
2174,1642,1823
2030,1738,1868
2458,1893,1955
2588,1961,2041
2256,1884,1915
1834,1570,1786
1917,1599,1702
2288,1690,1629
2279,1830,1682
2371,1952,1853
2455,2039,1905
2128,1857,1840
2089,1791,1733
2166,1649,1822
2464,2061,2053
2416,1954,2054
2108,1695,1981
2071,1856,1894
2294,1876,1891
2266,1691,1879
1904,1597,1861
1751,1564,1842
1872,1663,1750
1690,1861,1797
1302,1735,1744
1535,1814,1774
1965,1969,1904
1831,1855,1823
1937,1855,1776
2551,2078,1818
2530,2208,1900
2191,1913,1838
1961,1738,1856
2012,1535,1851
1999,1648,1905
2249,1600,1837
2249,1746,1852
2256,1811,1757
2230,1950,1765
2095,1789,1743
2266,1817,1808
2704,1961,1723
2071,1733,1731
1759,1765,1835
2214,2046,1940
2189,1801,1883
1999,1659,1834
2096,1837,1841
2293,1895,1777
2649,1825,1905
2046,1616,1871
1903,1615,1711
1935,1761,1719
2202,2015,1831
2031,1811,1871
1989,1777,1872
2189,1830,1872
2604,2093,1906
2356,1843,1824
2031,1851,1706
1945,1628,1728
2003,1629,1758
1920,1684,1735
2070,1967,1898
2114,1878,1729
1926,1594,1856
2259,1885,2001
2147,1835,1934
2288,1771,1807
2144,1739,1633
2011,1758,1685
1918,1873,1808
2093,1904,1904
1997,1840,1883
1856,1727,1849
2011,1652,1755
1970,1670,1805
2215,1998,1902
2369,2087,1933
2139,2000,1798
1913,1689,1877
1915,1613,1904
2178,1839,1872
2029,1758,1747
1825,1701,1805
2297,1983,1871
2085,1850,1737
1678,1662,1535
1761,1829,1742
2009,1808,1961
2255,1929,2014
2291,2000,1931
2225,2085,1970
1755,1603,1795
1657,1584,1765
1904,1722,1799
2138,1761,1922
2122,1895,1962
1856,1913,1829
2058,1929,1797
1869,1600,1852
1918,1701,1819
2075,1852,1853
2000,1961,1863
2091,1918,1725
2268,1955,1835
1631,1730,1813
1530,1709,1897
2192,1847,1857
1946,1712,1622
1763,1808,1797
2093,1946,1978
2114,1869,1877
1712,1790,1931
1853,1845,2003
2071,1793,1904
2103,1821,1734
1741,1695,1798
1930,1806,1902
1946,1744,1792
1799,1783,1800
1923,1872,1839
2027,1891,1783
1922,1927,1778
2209,1983,1950
2190,1937,1873
1776,1712,1799
1399,1614,1803
1839,1777,1840
1872,1771,1861
1854,1903,1935
1968,1888,1881
1855,1776,1878
1973,1845,1950
1797,1712,1804
1856,1808,1805
1859,1895,1782
1957,1790,1827
1887,1696,1855
2133,1878,1981
2000,1945,1908
1764,2007,1893
1961,2002,1834
1953,1883,1797
1761,1712,1889
1593,1771,1900
1766,1799,1945
1927,1744,1791
1858,1710,1869
1978,1808,1908
2064,1891,1901
1701,1863,1874
1565,1814,1715
1910,1968,1763
2199,1907,1898
1648,1680,1858
1645,1846,1876
2157,2055,2044
2063,2064,1894
1897,1737,1815
1570,1693,1887
1744,1772,1985
1891,1891,1907
1922,1762,1801
1877,1766,1835
1959,1904,1817
1741,1915,1808
2032,1969,1840
1787,1766,1879
1475,1687,1967
1655,1879,1863
2111,2087,1893
2098,1970,1865
2043,2080,1882
1735,1856,1825
1842,1758,1933
1650,1595,1840
1591,1618,1925
1838,1775,1995
1941,1856,1894
1621,1821,1890
1636,1802,1823
1967,1938,1861
2271,1986,1776
1957,1978,1872
1581,1849,1882
1762,1904,1953
1983,1908,1927
1661,1970,1862
1591,1975,1861
1714,1683,1894
2010,1863,1844
2192,1904,1842
1841,1794,1840
1655,1680,1965
1770,1818,1919
1829,1853,1827
1786,1856,1849
1718,1807,1922
1799,1847,1932
1770,1808,1883
1840,1877,1778
2128,2063,1717
1918,1952,1738
1573,1819,1993
1765,1939,2001
1873,1986,1965
1726,1718,1936
1881,1835,1857
1984,1979,1868
1716,1822,1869
1691,1725,1857
1776,1754,1809
1714,1873,1936
2019,2032,1841
1771,1745,1857
1740,1756,1840
1699,1853,1817
1919,1968,1920
2125,1923,1952
1558,1763,1851
1471,1712,1885
1841,1987,1951
1844,2073,1785
1673,1823,1808
1715,1642,1847
