1297,1735,1839
1310,1762,1840
1328,1815,1842
1354,1823,1851
1347,1779,1843
1340,1809,1846
1355,1840,1850
1393,1868,1819
1367,1859,1839
1350,1795,1856
1358,1847,1854
1377,1862,1842
1360,1852,1835
1345,1873,1844
1361,1919,1879
1311,1834,1922
1277,1751,1841
1318,1812,1808
1335,1801,1813
1351,1808,1840
1325,1777,1839
1287,1744,1838
1328,1796,1849
1355,1796,1841
1328,1806,1840
1334,1826,1840
1382,1863,1855
1424,1879,1863
1410,1872,1855
1387,1861,1845
1403,1857,1837
1413,1888,1839
1391,1853,1840
1393,1899,1820
1391,1870,1813
1300,1728,1874
1303,1757,1901
1345,1769,1853
1369,1776,1841
1367,1815,1860
1343,1835,1821
1335,1818,1824
1389,1785,1845
1421,1822,1862
1392,1831,1870
1387,1831,1842
1440,1842,1832
1493,1853,1835
1485,1850,1839
1431,1906,1850
1440,1878,1840
1446,1815,1827
1422,1802,1808
1380,1807,1857
1414,1996,1882
1344,1879,1876
1284,1727,1843
1324,1676,1858
1389,1738,1847
1403,1811,1853
1383,1847,1844
1421,1862,1822
1417,1808,1852
1443,1823,1869
1515,1829,1858
1535,1831,1861
1584,1887,1840
1589,1834,1847
1529,1808,1854
1459,1845,1859
1445,1865,1853
1460,1819,1808
1414,1814,1823
1363,1891,1882
1375,1877,1865
1414,1921,1866
1341,1822,1855
1296,1679,1847
1360,1733,1853
1392,1850,1902
1407,1869,1844
1382,1767,1824
1399,1776,1829
1413,1762,1847
1427,1786,1836
1432,1840,1866
1468,1877,1872
1467,1859,1856
1453,1869,1850
1445,1855,1840
1456,1887,1839
1465,1813,1822
1453,1790,1862
1417,1821,1900
1441,1861,1861
1467,1867,1818
1426,1924,1856
1418,1825,1859
1446,1727,1855
1485,1760,1854
1477,1802,1846
1465,1823,1855
1507,1852,1861
1533,1869,1861
1535,1870,1859
1579,1869,1854
1665,1856,1841
1684,1883,1849
1565,1933,1839
1470,1744,1829
1476,1749,1891
1510,1847,1883
1557,1839,1839
1535,1785,1837
1525,1806,1856
1561,1793,1859
1559,1810,1844
1584,1918,1843
1587,1826,1856
1600,1776,1824
1580,1778,1851
1535,1839,1869
1616,1889,1860
1712,1872,1853
1722,1813,1843
1666,1822,1856
1680,1826,1827
1676,1910,1785
1591,1835,1840
1535,1810,1872
1598,1807,1866
1637,1811,1875
1662,1841,1851
1637,1773,1827
1630,1829,1851
1675,1840,1849
1678,1790,1833
1682,1791,1839
1728,1853,1827
1727,1838,1840
1693,1839,1847
1710,1839,1854
1754,1844,1847
1797,1850,1849
1808,1814,1838
1733,1885,1827
1727,1881,1821
1701,1808,1862
1722,1839,1833
1721,1808,1838
1724,1833,1873
1763,1875,1859
1771,1817,1839
1757,1844,1841
1791,1833,1839
1791,1885,1843
1745,1789,1867
1758,1790,1848
1803,1938,1836
1811,1808,1846
1778,1747,1847
1775,1777,1841
1808,1851,1837
1820,1858,1819
1785,1829,1807
1745,1790,1871
1747,1789,1877
1773,1814,1866
1787,1839,1851
1790,1850,1847
1829,1867,1847
1834,1904,1856
1791,1820,1843
1777,1838,1856
1827,1835,1858
1855,1842,1840
1856,1854,1839
1849,1924,1795
1808,1935,1851
1794,1782,1827
1785,1738,1831
1767,1745,1878
1807,1820,1883
1840,1791,1863
1802,1783,1843
1780,1790,1830
1829,1842,1841
1824,1851,1847
1802,1850,1842
1793,1852,1843
1825,1867,1846
1852,1877,1853
1831,1857,1841
1822,1859,1840
1854,1902,1827
1888,1904,1845
1820,1840,1815
1788,1889,1833
1775,1785,1891
1819,1723,1870
1810,1805,1808
1789,1728,1822
1822,1744,1864
1811,1805,1866
1818,1840,1841
1822,1840,1839
1840,1855,1844
1857,1884,1841
1838,1862,1838
1822,1828,1857
1847,1847,1859
1863,1857,1851
1853,1866,1840
1843,1891,1853
1860,1911,1851
1876,1865,1829
1859,1753,1817
1853,1865,1793
1821,1886,1794
1799,1770,1885
1817,1762,1876
1840,1821,1870
1825,1834,1840
1856,1807,1840
1847,1851,1843
1840,1823,1825
1841,1803,1831
1859,1810,1851
1845,1825,1839
1850,1840,1833
1882,1885,1847
1904,1839,1809
1871,1809,1825
1811,1843,1854
1856,1920,1837
1904,1813,1787
1861,1803,1855
1834,1789,1869
1881,1873,1859
1844,1737,1847
1808,1772,1852
1822,1844,1849
1895,1909,1835
1909,1826,1824
1870,1778,1830
1843,1787,1839
1869,1823,1845
1904,1849,1845
1889,1855,1840
1882,1864,1845
1909,1899,1843
1922,1844,1841
1902,1882,1807
1901,1791,1791
1883,1783,1837
1825,1792,1902
1840,1815,1866
1845,1838,1845
1874,1860,1833
1891,1797,1840
1841,1758,1840
1831,1818,1845
1883,1808,1856
1907,1825,1840
1882,1831,1851
1857,1835,1834
1882,1858,1835
1904,1862,1834
1882,1855,1839
1873,1859,1847
1911,1879,1847
1915,1898,1842
1898,1868,1808
1901,1808,1789
1842,1795,1854
1858,1776,1875
1846,1751,1843
1834,1779,1845
1890,1856,1849
1882,1879,1827
1869,1811,1830
1850,1841,1857
1875,1837,1857
1897,1808,1853
1877,1811,1850
1865,1841,1853
1895,1889,1856
1910,1854,1843
1859,1829,1826
1849,1838,1837
1872,1854,1842
1914,1911,1858
1904,1892,1805
1885,1787,1807
1826,1761,1887
1841,1781,1856
1858,1866,1840
1840,1825,1826
1831,1761,1843
1861,1785,1851
1874,1819,1847
1859,1883,1843
1872,1840,1855
1893,1824,1840
1881,1837,1840
1872,1849,1838
1904,1860,1840
1926,1873,1850
1890,1867,1845
1871,1868,1834
1920,1936,1766
1904,1728,1840
1867,1728,1877
1842,1812,1906
1840,1792,1844
1835,1777,1835
1841,1805,1829
1851,1840,1838
1908,1915,1821
1892,1840,1856
1844,1776,1853
1827,1762,1839
1866,1808,1843
1897,1855,1845
1878,1850,1837
1871,1852,1840
1904,1862,1856
1902,1858,1847
1866,1890,1840
1857,1859,1840
1874,1803,1840
1918,1854,1795
1891,1904,1799
1840,1773,1886
1829,1748,1891
1858,1760,1863
1872,1733,1844
1856,1863,1828
1875,1835,1840
1867,1808,1845
1854,1797,1854
1856,1822,1849
1889,1840,1851
1919,1837,1843
1903,1859,1851
1891,1863,1855
1890,1859,1865
1904,1877,1847
1888,1797,1785
1872,1742,1813
1881,1840,1872
1882,1822,1872
1876,1806,1866
1890,1803,1841
1879,1805,1843
1883,1835,1870
1884,1840,1845
1886,1846,1853
1907,1814,1842
1923,1873,1826
1903,1886,1855
1889,1892,1853
1917,1806,1842
1865,1772,1847
1855,1787,1815
1857,1774,1840
1897,1900,1863
1904,1826,1875
1877,1791,1856
1879,1824,1804
1890,1851,1853
1883,1777,1872
1872,1783,1862
1873,1829,1852
1909,1860,1855
1935,1854,1853
1908,1845,1835
1861,1840,1855
1889,1846,1860
1915,1853,1854
1887,1851,1842
1901,1867,1834
1925,1935,1856
1910,1795,1834
1859,1776,1838
1829,1827,1823
1857,1773,1808
1856,1771,1875
1869,1866,1887
1872,1795,1878
1872,1785,1851
1887,1808,1850
1887,1842,1854
1891,1878,1843
1903,1837,1852
1921,1837,1856
1904,1843,1856
1895,1878,1854
1920,1842,1859
1930,1871,1866
1919,1853,1854
1908,1808,1831
1887,1794,1840
1918,1861,1842
1862,1925,1879
1863,1859,1851
1886,1918,1838
1866,1757,1840
1847,1728,1853
1882,1803,1840
1915,1784,1827
1887,1781,1869
1872,1804,1871
1870,1827,1857
1916,1855,1854
1936,1879,1858
1904,1866,1847
1872,1856,1845
1907,1842,1854
1917,1856,1856
1895,1866,1856
1893,1872,1822
1943,1771,1815
1888,1938,1877
1828,1842,1877
1840,1802,1872
1876,1778,1858
1913,1811,1859
1911,1863,1840
1897,1883,1835
1899,1847,1827
1920,1835,1843
1884,1781,1855
1877,1810,1851
1936,1840,1855
1949,1850,1856
1902,1785,1846
1866,1811,1851
1907,1840,1840
1936,1841,1831
1879,1808,1808
1886,1863,1838
1873,1877,1890
1903,1857,1893
1911,1839,1866
1855,1769,1846
1870,1808,1847
1914,1901,1878
1901,1842,1847
1887,1811,1842
1903,1865,1859
1930,1851,1855
1915,1862,1884
1909,1813,1847
1923,1900,1821
1893,1839,1831
1894,1810,1842
1893,1847,1843
1910,1762,1781
1886,1753,1844
1846,1761,1876
1845,1798,1893
1887,1870,1872
1930,1869,1840
1915,1841,1825
1870,1794,1868
1879,1802,1867
1898,1829,1860
1902,1829,1849
1897,1851,1852
1914,1890,1855
1904,1825,1840
1891,1831,1855
1883,1825,1858
1891,1838,1850
1895,1851,1856
1917,1909,1833
1873,1829,1814
1885,1771,1803
1936,1904,1825
1895,1873,1853
1840,1699,1870
1845,1729,1865
1879,1798,1861
1883,1850,1847
1893,1895,1845
1911,1804,1842
1909,1783,1840
1877,1818,1850
1875,1843,1854
1911,1871,1849
1965,1876,1840
1915,1857,1835
1877,1776,1797
1872,1831,1850
1894,1885,1878
1888,1833,1856
1882,1850,1843
1894,1847,1840
1936,1914,1826
1947,1993,1830
1870,1727,1843
1814,1680,1852
1857,1801,1845
1884,1823,1837
1894,1838,1835
1891,1773,1857
1911,1781,1854
1897,1853,1841
1882,1846,1843
1886,1825,1843
1907,1852,1843
1918,1862,1843
1883,1836,1839
1882,1808,1839
1886,1835,1861
1919,1841,1850
1891,1859,1778
1904,1867,1838
1872,1833,1909
1855,1787,1874
1863,1797,1836
1911,1838,1855
1943,1851,1851
1899,1933,1845
1875,1889,1830
1890,1786,1845
1913,1799,1850
1903,1853,1840
1894,1901,1835
1905,1878,1839
1910,1821,1854
1878,1814,1858
1887,1801,1846
1921,1867,1809
1920,1859,1830
1895,1770,1819
1813,1690,1872
1863,1747,1873
1898,1826,1858
1874,1871,1867
1872,1863,1850
1906,1830,1842
1911,1862,1842
1904,1881,1812
1887,1854,1819
1897,1856,1871
1920,1875,1856
1898,1814,1837
1899,1841,1823
1919,1839,1845
1936,1925,1840
1899,1779,1819
1888,1815,1841
1905,1940,1849
1932,1789,1808
1857,1713,1850
1841,1694,1882
1915,1798,1859
1911,1821,1859
1859,1817,1850
1856,1807,1853
1893,1829,1855
1925,1871,1847
1910,1867,1851
1894,1858,1843
1936,1866,1844
1913,1920,1874
1885,1884,1849
1855,1797,1841
1886,1803,1839
1937,1887,1840
1927,1828,1818
1841,1821,1857
1872,1860,1831
1927,1824,1827
1898,1862,1857
1877,1811,1857
1883,1776,1843
1872,1751,1862
1871,1797,1868
1872,1838,1840
1923,1881,1840
1934,1808,1840
1869,1837,1857
1865,1839,1840
1895,1858,1846
1902,1853,1844
1873,1821,1839
1882,1833,1843
1915,1854,1842
1936,1869,1841
1914,1878,1836
1892,1829,1793
1891,1818,1835
1905,1863,1871
1919,1875,1817
1898,1859,1859
1864,1801,1854
1893,1809,1839
1922,1885,1835
1874,1808,1847
1856,1746,1862
1885,1743,1850
1914,1808,1845
1879,1837,1818
1870,1795,1825
1893,1842,1863
1900,1852,1856
1882,1840,1845
1915,1845,1843
1937,1859,1850
1926,1856,1845
1904,1872,1847
1924,1885,1826
1966,1891,1827
1913,1872,1870
1856,1776,1856
1899,1796,1846
1930,1868,1856
1939,1867,1818
1892,1835,1856
1889,1834,1827
1881,1813,1831
1872,1808,1841
1888,1722,1831
1888,1765,1853
1907,1821,1863
1918,1859,1856
1927,1853,1840
1915,1837,1834
1912,1851,1842
1893,1869,1831
1897,1888,1840
1925,1877,1799
1930,1783,1847
1914,1798,1861
1889,1761,1847
1897,1862,1874
1920,1870,1872
1926,1838,1827
1872,1839,1837
1906,1872,1842
1931,1853,1834
1948,1808,1808
1912,1899,1872
1915,1891,1849
1905,1755,1843
1905,1763,1834
1907,1796,1808
1917,1833,1838
1952,1866,1858
1933,1791,1812
1887,1754,1810
1890,1806,1860
1889,1837,1867
1877,1809,1859
1878,1834,1850
1917,1846,1846
1945,1859,1840
1920,1867,1840
1903,1852,1827
1914,1869,1847
1944,1875,1849
1909,1905,1859
1900,1916,1859
1897,1838,1842
1921,1869,1821
1888,1803,1823
1875,1773,1837
1925,1822,1818
1939,1798,1839
1875,1771,1857
1856,1791,1802
1896,1823,1826
1935,1791,1872
1914,1782,1856
1861,1810,1842
1903,1825,1836
1926,1835,1839
1910,1837,1821
1903,1838,1850
1913,1877,1862
1923,1893,1859
1911,1830,1829
1921,1863,1834
1902,1867,1856
1915,1865,1879
1913,1909,1854
1913,1885,1806
1911,1902,1807
1875,1712,1862
1862,1743,1862
1862,1726,1850
1907,1776,1850
1933,1815,1857
1919,1866,1838
1915,1830,1836
1934,1806,1847
1907,1823,1865
1893,1845,1872
1899,1859,1840
1964,1886,1842
1937,1769,1775
1882,1791,1849
1855,1855,1904
1894,1856,1866
1891,1793,1847
1891,1802,1822
1927,1842,1810
1904,1949,1885
1886,1798,1873
1879,1785,1841
1889,1797,1841
1934,1835,1867
1968,1918,1870
1906,1844,1847
1859,1759,1839
1913,1776,1840
1925,1825,1846
1893,1827,1840
1913,1810,1814
1911,1879,1879
1920,1878,1872
1889,1847,1872
1859,1855,1842
1904,1856,1835
1965,1887,1812
1881,1808,1870
1887,1823,1841
1904,1838,1858
1903,1819,1886
1887,1840,1881
1878,1910,1829
1925,1818,1854
1948,1844,1857
1885,1738,1871
1870,1712,1832
1886,1795,1835
1919,1829,1854
1872,1895,1869
1860,1849,1866
1898,1834,1863
1937,1843,1875
1903,1829,1849
1867,1840,1840
1894,1858,1842
1925,1870,1841
1936,1871,1821
1900,1906,1868
1906,1897,1887
1913,1823,1851
1903,1787,1826
1876,1741,1836
1896,1814,1843
1911,1805,1872
1902,1808,1866
1899,1783,1823
1936,1843,1843
1935,1872,1819
1890,1803,1843
1891,1819,1859
1938,1870,1886
1885,1838,1872
1866,1826,1849
1876,1833,1842
1918,1904,1830
1954,1855,1831
1915,1837,1859
1861,1783,1870
1900,1837,1855
1935,1834,1849
1919,1875,1842
1904,1887,1826
1920,1797,1836
1904,1776,1857
1883,1772,1863
1876,1773,1859
1897,1812,1862
1946,1823,1843
1925,1856,1838
1886,1839,1831
1900,1856,1835
1919,1904,1845
1899,1820,1855
1902,1823,1858
1981,1936,1807
1925,1826,1826
1840,1751,1879
1833,1745,1879
1890,1810,1867
1923,1828,1846
1922,1879,1854
1918,1903,1841
1909,1770,1821
1911,1793,1852
1909,1838,1855
1891,1858,1857
1929,1870,1842
2010,1922,1845
1904,1787,1878
1836,1702,1839
1860,1790,1845
1914,1854,1860
1931,1842,1852
1900,1835,1843
1927,1866,1808
1929,1825,1874
1904,1856,1874
1917,1853,1863
1889,1806,1856
1901,1837,1859
1904,1856,1867
1899,1806,1840
1918,1814,1836
1936,1846,1840
1953,1780,1810
1885,1782,1859
1863,1821,1873
1906,1837,1872
1952,1872,1853
1917,1895,1845
1887,1815,1807
1886,1712,1833
1862,1764,1883
1877,1813,1895
1921,1847,1857
1948,1843,1846
1934,1858,1842
1917,1886,1850
1920,1856,1853
1945,1904,1855
1904,1831,1839
1882,1802,1856
1917,1824,1839
1949,1895,1841
1915,1851,1891
1883,1781,1871
1887,1815,1826
1914,1810,1825
1919,1778,1840
1904,1833,1803
1958,1825,1812
1877,1854,1885
1839,1808,1874
1851,1793,1850
1915,1881,1788
1923,1785,1861
1904,1778,1878
1904,1831,1871
1929,1866,1872
1948,1872,1853
1915,1849,1835
1902,1876,1843
1938,1841,1851
1951,1874,1832
1930,1853,1858
1919,1849,1850
1902,1725,1829
1886,1766,1872
1904,1822,1872
1914,1838,1847
1918,1838,1851
1927,1819,1840
1907,1853,1834
1859,1808,1840
1879,1833,1865
1923,1861,1869
1927,1871,1859
1904,1835,1846
1932,1845,1843
1954,1885,1856
1907,1843,1847
1910,1920,1826
1938,1853,1843
1922,1757,1856
1888,1750,1841
1890,1738,1796
1921,1773,1831
1890,1812,1897
1872,1830,1878
1898,1873,1856
1925,1825,1842
1953,1866,1850
1904,1828,1838
1871,1836,1838
1905,1814,1847
1938,1835,1857
1943,1872,1831
1911,1861,1855
1913,1824,1866
1915,1811,1863
1905,1801,1827
1922,1843,1813
1930,1957,1847
1900,1812,1857
1862,1726,1833
1871,1771,1815
1904,1847,1856
1947,1808,1895
1923,1776,1858
1873,1806,1855
1919,1814,1821
1931,1834,1851
1913,1842,1847
1909,1847,1850
1936,1858,1852
1967,1863,1847
1935,1861,1847
1920,1902,1841
1906,1855,1839
1946,1809,1823
1918,1747,1829
1890,1837,1863
1913,1854,1866
1918,1777,1835
1860,1712,1872
1872,1755,1872
1917,1813,1866
1936,1835,1856
1900,1827,1849
1889,1833,1846
1916,1894,1834
1943,1873,1837
1920,1804,1856
1906,1861,1854
1942,1843,1874
1955,1817,1859
1906,1797,1843
1876,1802,1843
1909,1823,1859
1942,1879,1838
1934,1826,1799
1923,1907,1785
1855,1737,1855
1878,1744,1919
1904,1843,1885
1889,1776,1858
1913,1755,1847
1931,1799,1856
1911,1820,1853
1893,1833,1849
1919,1841,1849
1955,1862,1855
1946,1874,1862
1913,1835,1853
1904,1855,1853
1934,1872,1840
1936,1840,1847
1932,1847,1872
1936,1820,1840
1918,1870,1818
1869,1747,1825
1844,1789,1825
1885,1811,1869
1943,1883,1883
1990,1854,1895
1934,1795,1875
1869,1703,1857
1887,1754,1825
1906,1818,1839
2007,1911,1923
2057,1971,1889
1905,1825,1847
1846,1806,1840
1987,1974,1856
2207,1983,1871
2064,1959,1875
1904,1809,1898
2025,1887,2014
2161,1941,1935
2024,1817,1954
1875,1839,1941
1779,1728,1776
0,1682,1757
0,1868,1883
0,2243,1999
0,2164,1875
0,1620,1835
0,1734,1904
0,2270,2043
0,1979,1847
0,1886,1783
0,1934,1865
0,1801,1808
0,1890,1853
0,1774,1771
0,1614,1790
0,1840,1845
0,1743,1874
0,1862,1827
0,2029,1965
0,2063,1912
0,1611,1749
0,1855,1881
0,1829,1803
0,1895,1749
0,1815,1805
355,1878,1873
1986,1710,1815
1931,1632,1789
1599,1826,1826
1766,1665,1695
1819,1690,1849
1840,1823,1856
1841,1776,1888
2215,1730,1823
2765,1826,1815
4095,1930,1899
4095,2006,1933
4095,1815,1911
2676,1649,1840
766,1694,1857
240,1938,1865
1152,1764,1814
1204,1799,1867
1481,1836,1847
941,1637,1877
64,1904,1936
464,1746,1761
1872,1587,1781
2960,1862,1920
1242,1775,1839
1283,1899,1915
3056,1906,1919
3025,1744,1851
766,1788,1872
935,1791,1874
1937,1679,1747
1757,1635,1687
1808,1687,1798
3997,1721,1917
3887,1943,1975
3720,1757,1699
1137,1727,1808
0,1718,1925
0,1699,1933
1520,1709,1855
1595,1795,1872
1287,1872,1922
1717,2062,1941
2371,1712,1770
3559,1595,1778
4095,1669,1890
3377,1803,1893
2495,1822,1879
3034,1718,1842
2759,1569,1853
2044,1691,1947
1774,1631,1895
1797,1658,1825
1868,1773,1858
1882,1904,1925
1866,1883,1792
1857,1847,1862
1851,1747,1891
1858,1715,1888
1901,1615,1793
2903,1705,1842
4095,1904,1923
4095,1779,1910
4095,1718,1929
4095,1825,1826
4095,1787,1872
4095,1772,1890
4095,1840,1997
4095,1835,1890
4095,1761,1818
4095,1738,1830
4095,1746,1939
4095,1625,1869
4095,1608,1849
4095,1623,1896
4095,1662,1909
4095,1961,1952
4095,1865,1829
4095,1744,1829
4095,1582,1855
4095,1707,1974
4095,1903,1930
4095,1839,1835
4095,1871,1777
4095,1777,1878
4095,1738,2092
4095,1718,1757
4095,1606,1701
4095,1779,1869
4095,1776,1904
4095,1789,1801
4095,1563,1825
4095,1614,1920
4095,1846,1941
4095,1680,1803
4095,1590,1830
2954,1769,1824
1893,2035,1945
1639,1684,1808
1760,1732,1872
1856,1497,1879
1875,1744,1803
1871,2041,1883
1842,2035,1954
1830,1748,1742
1837,1605,1728
1853,1691,1810
1845,2163,2026
1823,2206,1810
1842,1872,1781
1837,1535,1885
1840,1872,1794
1836,1972,1822
1843,1827,1840
1834,1898,1833
1838,1933,1920
1837,1995,1969
1840,1787,1847
1935,1805,1745
2151,1614,1702
2416,1771,1855
2990,1762,1877
3238,1840,1819
2293,1781,1765
2614,1882,1824
3043,1649,1698
4095,2058,1797
3935,1787,1802
4095,1970,1856
4095,1729,1780
3904,1556,1876
4095,1616,1866
4095,1983,1925
4095,2081,1870
4095,1873,1840
4095,1610,1776
4095,1596,1747
4095,1810,1771
4095,1781,1871
4095,1817,1823
4095,1975,1938
4095,1989,1968
4095,1769,1911
4095,1633,1731
4095,1456,1661
4095,1745,1833
4095,1850,1861
4095,1634,1779
4095,1986,1855
4095,2064,1936
4095,1840,1895
4095,1564,1730
4095,1807,1876
4095,1727,1830
4095,1577,1725
4095,1615,1857
4095,2035,1897
4095,1751,1806
4095,1477,1790
4095,1606,1968
4095,1790,1747
4095,1651,1666
4095,1777,1883
4095,1766,1919
4095,1923,1851
4095,1806,1783
4095,1729,1804
4095,1869,1925
4095,1846,1929
4095,1840,1901
4095,1506,1755
4095,1791,1876
4095,1881,1911
4095,1705,1791
4095,1683,1811
4095,1728,1817
4095,1691,1757
4095,1696,1968
4095,1875,1821
4095,1799,1717
4095,1565,1785
4095,1616,1853
4095,1804,1872
4095,1841,1801
4095,1686,1788
4095,1782,1847
4095,1903,1835
4095,1921,1808
4095,1571,1808
4095,1631,1900
4095,1664,1979
4095,1824,1904
4095,1807,1757
4095,1710,1825
4095,1738,1733
4095,1842,1881
4095,1953,1839
4095,1747,1729
4095,1744,1973
4095,1728,1959
4095,1685,1774
4095,1795,1797
4095,1904,1840
4095,1825,1892
4095,1600,1810
4095,1443,1642
4095,1680,1766
4095,2009,1913
4095,1781,1942
4095,1897,2003
4095,2117,1987
4095,1775,1673
4095,1841,1824
4095,1798,1841
4095,1631,1803
4095,1802,1893
4095,1914,1867
4095,1643,1937
4095,1565,1824
4095,1648,1796
4095,1921,1901
4095,1855,1830
4095,1964,1865
4095,1859,1802
4095,1777,1894
4095,1747,1889
4095,1783,1823
4095,1687,1859
4095,1897,1923
4095,1623,1849
4095,1840,1875
4095,2085,1956
4095,1839,1850
4095,1469,1773
4095,1535,1829
4095,1719,1856
4095,1990,1936
4095,1995,1825
4095,1990,2002
4095,1723,1851
4095,1697,1760
4095,1767,1858
4095,1683,1865
4095,1835,1904
4095,1963,1976
4095,2158,2074
4095,1653,1778
4095,1584,1675
4095,1847,1858
4095,1773,1837
4095,1577,1695
4095,1729,1943
4095,2148,2171
4095,2037,1983
4095,1694,1680
4095,1713,1794
4095,1750,1861
4095,2064,1875
4095,1837,1840
4095,1713,1855
4095,1767,1772
4095,2000,1962
4095,2022,2000
4095,1701,1841
4095,1669,1783
4095,1915,1871
4095,1766,1799
4095,1696,1825
4095,1815,1791
4095,1865,1925
4095,1836,1932
4095,2039,2000
4095,2000,1936
4095,1734,1872
4095,1705,1789
3617,1788,1776
3579,1824,1758
4095,1801,1904
4079,1815,1785
4095,2039,1938
4095,1906,1879
4032,1780,1926
3184,1759,1883
3209,1775,1783
3856,1903,1854
3989,1947,1907
3805,2035,1895
3366,1836,1758
3187,1762,1827
3399,1793,1837
3266,1746,1879
3328,1817,1952
3583,1936,1781
3269,1829,1774
3216,1767,1868
3395,1879,1970
3189,1779,1850
3059,1851,1883
2885,1975,1854
3121,2020,1859
3365,1889,1872
3410,1811,1872
3486,1899,1803
2982,1914,1774
2455,1758,1930
2593,1765,1915
2891,1809,1791
3542,2155,1901
3568,2101,1873
2741,1749,1868
2625,1877,1934
2706,1874,1827
2495,1744,1750
2934,1861,1867
3120,1991,1872
2897,2112,1873
2455,1778,1744
2318,1691,1806
2653,1879,1883
2804,2026,1851
2601,1984,1890
2496,1841,1843
3037,1953,1826
2821,1952,1869
2367,1968,1857
2421,1905,1840
2473,1877,1861
2306,1788,1817
2357,1934,1859
2643,2036,1903
2649,2031,1829
2141,1718,1799
2128,1747,1802
2352,1883,1811
2667,1929,1882
2522,2074,1810
2021,1869,1881
2106,1819,1861
2455,1987,1866
2582,2021,1903
2174,1914,1809
2105,1904,1834
2656,1985,1895
2615,2043,1875
2253,2111,1849
1893,1807,1809
1793,1789,1850
1993,1763,1857
2426,1970,1819
2138,1894,1845
2103,1905,1830
2226,1936,1846
2123,1894,1843
1877,1875,1875
2058,1897,1873
1989,1850,1824
2033,1878,1776
2021,1937,1809
2214,2149,1949
2697,2209,1936
2176,1961,1758
1585,1872,1797
1696,1947,1791
1510,1835,1782
1805,1731,1830
2323,1979,1910
2126,1956,1854
1612,1673,1747
1600,1887,1824
1883,1968,1937
2124,2000,1825
1985,1934,1804
1850,1818,1877
1727,2041,1876
1695,1921,1733
1853,1907,1785
2256,2135,1858
1837,1955,1819
1676,1920,1894
2037,2188,1918
1775,1984,1805
1583,1808,1811
1629,1563,1680
1451,1794,1922
1670,1904,1897
2095,2000,1872
1871,1886,1728
1365,1827,1778
1517,1815,1791
1678,1822,1710
1520,1941,1767
1525,1991,1814
1696,1984,1821
1853,1968,1715
1558,1841,1629
1593,1917,1674
1693,2014,1712
1622,1915,1797
1445,1835,1780
1598,1935,1741
1535,1907,1681
1618,1873,1761
1447,1779,1753
1845,1937,1646
1532,1770,1584
1535,1999,1883
1662,1798,1754
1425,1776,1613
1728,2096,1705
1426,2023,1729
1584,1973,1810
1679,1903,1714
1182,1858,1616
1222,1876,1692
1391,1943,1743
1520,1866,1834
1712,1993,1664
1616,1791,1631
1558,1737,1603
1157,1674,1692
1104,1812,1747
1791,2047,1759
1616,2001,1683
1397,1936,1611
1682,1904,1731
1591,1785,1581
1271,1792,1658
2433,2309,1999
2607,2341,1723
775,1721,1535
73,1535,1709
602,1557,1721
1201,1802,1700
1450,1922,1743
1674,2045,1795
1386,1868,1682
1264,1746,1673
1181,1758,1660
1199,1802,1691
1472,1996,1763
1577,2062,1756
1722,2096,1721
1037,1781,1617
1057,1606,1665
1355,1731,1776
1235,1904,1781
1535,2010,1772
1776,1967,1793
1237,1746,1674
1142,1876,1698
1423,1933,1689
1226,1877,1699
1151,1793,1842
1646,1995,1829
1209,1950,1654
961,1776,1712
1059,1685,1750
1315,1826,1717
1221,1803,1705
1300,1832,1773
1321,1879,1747
1466,1915,1840
1296,1775,1756
912,1666,1670
1117,1786,1792
1757,2058,1905
1698,2015,1724
911,1808,1680
896,1751,1849
1253,1668,1795
1452,1936,1882
1429,1985,1856
1013,1771,1717
977,1749,1701
1261,1827,1811
1495,2005,1772
2493,2230,1877
1293,1698,1678
317,1650,1809
608,1721,1823
1152,1789,1847
1566,1904,1834
1693,2075,1833
1557,1952,1831
1239,1679,1821
829,1744,1765
1040,1791,1808
1382,1875,1765
1122,1805,1803
1152,1843,1896
1664,2106,1951
1520,2002,1779
1723,1985,1859
1061,1616,1729
433,1521,1714
745,1734,1776
1175,1853,1875
1565,1869,1909
1430,1897,1788
1535,1975,1914
1699,1974,1853
752,1626,1749
881,1727,1808
1261,1866,1841
1742,1984,1936
1345,1819,1824
1355,1956,1776
1360,1778,1862
1105,1695,1872
828,1782,1884
1021,1837,1885
1472,2052,1840
1694,2093,1802
1167,1732,1826
970,1648,1882
1147,1712,1817
1283,1766,1825
1398,1937,1942
1778,2138,1851
1072,1664,1761
926,1671,1904
1226,1751,1906
1061,1759,1777
1342,1895,1857
1492,1982,1919
1518,2000,1968
1651,1975,1863
1217,1875,1695
939,1793,1827
977,1792,1890
1231,1695,1926
1490,1778,1950
2640,2601,2163
1109,1749,1707
129,1218,1632
630,1438,1740
1344,1751,1855
1678,1802,1877
1402,1902,1909
1238,1924,1890
1174,1797,1921
1283,1893,1890
1454,1954,1888
1648,1869,1919
1664,1983,1883
1250,1818,1749
944,1725,1931
1210,1801,2004
1008,1700,1870
1247,1790,1773
1846,1957,1845
1110,1681,1861
1648,2094,2119
2187,2215,1906
709,1603,1669
449,1488,1792
1078,1774,1926
1991,2160,2000
1443,1829,1856
1169,1706,1918
1675,1703,1806
1344,1889,1829
763,1706,1850
828,1610,1867
1274,1808,1952
1905,2191,2039
1755,2000,1936
1610,1914,1808
999,1692,1730
775,1635,1771
1293,1871,1872
1456,1830,1850
1427,1841,1934
1599,1951,1950
1506,1972,1872
1788,2111,1911
1773,1922,1933
990,1453,1823
938,1616,1835
983,1633,1877
1325,1815,1899
1659,1978,1926
1605,1869,1839
1555,1846,1886
1367,1830,1856
932,1691,1841
1125,1822,1831
1454,1869,1873
1532,1897,1921
1375,1854,1920
1309,1856,1874
1450,1901,1902
1455,1922,1895
1514,1897,1839
1857,1859,1969
1441,1663,1857
1018,1619,1844
1280,1713,1919
1641,1890,1943
1256,1761,1809
1212,1805,1872
1985,2043,2032
1598,1846,1894
