1098,1806,1808
1104,1855,1811
1104,1848,1823
1085,1826,1803
1087,1824,1802
1084,1842,1808
1083,1855,1813
1054,1827,1807
1079,1863,1781
1104,1833,1758
1023,1761,1827
992,1776,1840
999,1805,1826
1043,1887,1813
1018,1826,1808
989,1830,1798
972,1839,1808
978,1745,1805
977,1759,1803
971,1808,1826
958,1811,1824
972,1807,1809
981,1838,1812
932,1820,1808
934,1818,1805
962,1874,1822
942,1834,1827
873,1811,1806
798,1807,1805
705,1851,1797
329,1810,1817
0,1797,1822
0,1833,1822
0,1880,1815
0,1827,1781
0,1809,1820
0,1777,1842
0,1785,1831
0,1831,1823
0,1806,1808
0,1738,1790
0,1810,1840
0,1841,1846
0,1841,1837
0,1859,1825
0,1835,1818
0,1835,1822
0,1831,1819
0,1843,1817
0,1839,1814
0,1806,1808
315,1788,1813
1271,1842,1827
1733,1879,1829
1707,1776,1838
1598,1778,1837
1577,1803,1821
1587,1789,1808
1594,1799,1817
1565,1805,1823
1581,1843,1833
1591,1862,1833
1571,1815,1791
1535,1802,1808
1535,1821,1854
1583,1893,1844
1565,1808,1814
1535,1745,1808
1504,1778,1830
1502,1803,1843
1516,1813,1835
1530,1820,1809
1535,1918,1813
1535,1863,1826
1495,1786,1837
1431,1703,1828
1408,1770,1833
1446,1856,1840
1423,1803,1834
1402,1797,1839
1406,1824,1834
1413,1829,1837
1399,1827,1834
1367,1829,1833
1331,1826,1822
1328,1887,1802
1270,1762,1831
1138,1775,1860
1036,1793,1870
1082,1820,1851
1102,1827,1840
1169,1792,1835
1294,1779,1833
1377,1806,1837
1358,1842,1838
1326,1904,1843
1338,1798,1841
1353,1767,1834
1344,1808,1851
1355,1839,1850
1318,1794,1851
1339,1806,1853
1345,1811,1840
1342,1823,1834
1345,1808,1851
1338,1873,1834
1317,1762,1846
1310,1792,1854
1346,1765,1846
1407,1808,1797
1410,1795,1827
1387,1836,1887
1399,1808,1874
1430,1815,1855
1437,1823,1843
1414,1822,1834
1425,1843,1835
1478,1808,1845
1498,1819,1847
1482,1839,1842
1487,1842,1836
1452,1744,1828
1438,1779,1870
1435,1849,1856
1431,1835,1826
1392,1774,1834
1317,1778,1840
1225,1763,1813
1193,1825,1842
1205,1873,1868
1206,1899,1853
1057,1820,1829
906,1808,1839
833,1823,1842
770,1862,1840
678,1871,1831
62,1827,1850
0,1867,1808
0,1774,1840
0,1738,1855
0,1807,1869
0,1849,1853
0,1779,1837
0,1794,1827
0,1822,1845
0,1840,1866
0,1852,1841
0,1771,1827
0,1781,1838
0,1824,1841
0,1833,1840
0,1843,1840
0,1810,1815
0,1846,1840
0,1903,1854
0,1823,1842
0,1809,1840
666,1854,1840
1232,1916,1793
1157,1776,1822
1280,1797,1836
1649,1715,1842
1979,1726,1855
2128,1766,1837
2176,1807,1840
2213,1868,1840
2320,1857,1841
2350,1829,1821
2398,1791,1826
2507,1808,1835
2581,1829,1833
2590,1807,1840
2610,1838,1850
2629,1845,1840
2641,1847,1840
2589,1803,1827
2594,1791,1814
2614,1898,1838
2619,1877,1851
2549,1714,1831
2559,1762,1797
2598,1805,1821
2540,1781,1863
2512,1791,1850
2534,1825,1844
2559,1840,1841
2549,1847,1847
2519,1840,1831
2526,1837,1833
2544,1865,1839
2544,1920,1810
2473,1777,1826
2454,1767,1836
2487,1823,1813
2448,1792,1818
2382,1785,1826
1755,1844,1811
0,1815,1834
0,1890,1829
0,1780,1801
0,1809,1830
0,1775,1831
0,1775,1818
59,1840,1825
1200,1808,1797
2393,1810,1776
2802,1840,1833
2678,1847,1839
2531,1849,1840
2465,1853,1824
2344,1866,1811
1043,1841,1810
0,1786,1813
0,1808,1830
0,1818,1827
0,1835,1815
0,1824,1808
0,1850,1815
0,1841,1815
0,1837,1811
0,1886,1793
0,1899,1840
0,1796,1840
0,1760,1819
0,1808,1817
0,1833,1818
0,1837,1822
0,1885,1808
0,1856,1807
0,1817,1828
0,1833,1811
0,1795,1808
0,1826,1819
0,1861,1826
0,1873,1777
0,1914,1810
0,1822,1850
0,1786,1841
0,1814,1824
0,1885,1815
0,1860,1809
0,1847,1814
0,1837,1840
0,1872,1837
0,1792,1815
0,1793,1821
0,1824,1823
0,1841,1831
0,1843,1813
0,1893,1829
0,1878,1834
0,1845,1823
0,1815,1835
0,1823,1840
0,1841,1838
0,1873,1823
0,1875,1823
0,1850,1819
0,1820,1821
0,1838,1826
0,1887,1808
0,1881,1791
0,1774,1818
0,1756,1857
0,1817,1872
0,1842,1855
0,1842,1841
0,1860,1839
0,1935,1850
0,1845,1842
0,1818,1826
0,1840,1809
0,1856,1840
0,1857,1859
0,1823,1856
0,1835,1852
0,1840,1846
0,1904,1830
0,1820,1834
0,1812,1834
0,1939,1840
0,1777,1827
0,1770,1840
0,1808,1856
0,1840,1854
0,1862,1850
0,1879,1851
0,1881,1792
0,1839,1843
0,1829,1879
0,1823,1865
0,1837,1852
0,1863,1847
0,1893,1847
0,1851,1847
0,1876,1836
0,1843,1845
0,1808,1840
0,1773,1836
0,1762,1846
0,1811,1863
0,1890,1860
0,1868,1854
0,1792,1824
0,1757,1840
375,1807,1875
404,1867,1874
493,1843,1851
1192,1837,1850
1613,1856,1859
1771,1862,1855
1691,1856,1849
1737,1885,1859
1774,1877,1864
1983,1845,1857
2079,1852,1853
1791,1853,1851
1405,1830,1844
1183,1776,1838
1072,1789,1819
1089,1872,1876
1261,1812,1875
604,1808,1857
0,1781,1845
929,1840,1853
1711,1878,1856
816,1790,1840
0,1790,1857
0,1815,1861
1154,1829,1840
2210,1862,1862
2108,1889,1862
1158,1842,1856
219,1854,1862
608,1872,1855
1044,1805,1869
0,1808,1863
0,1833,1856
0,1811,1861
0,1856,1866
0,1816,1856
0,1831,1843
0,1840,1851
0,1821,1850
0,1804,1860
0,1822,1846
0,1840,1815
0,1850,1878
0,1882,1885
0,1829,1872
0,1829,1859
0,1867,1846
0,1746,1822
0,1806,1857
0,1815,1869
0,1809,1849
0,1825,1838
0,1847,1861
0,1845,1874
0,1860,1861
0,1862,1854
0,1855,1854
0,1840,1854
0,1841,1855
0,1856,1834
0,1782,1853
0,1827,1869
0,1872,1858
0,1798,1858
113,1769,1831
414,1805,1834
0,1796,1872
0,1826,1887
26,1814,1847
896,1825,1853
927,1834,1872
907,1866,1873
1328,1875,1876
1147,1837,1863
932,1836,1857
1169,1861,1840
1174,1810,1849
991,1844,1849
891,1825,1870
742,1817,1867
1103,1776,1871
1128,1828,1868
628,1873,1859
352,1794,1858
689,1795,1861
865,1841,1871
881,1854,1869
1125,1791,1798
859,1805,1861
1135,1844,1916
2334,1847,1902
2992,1855,1879
3071,1899,1872
2368,1851,1873
2060,1811,1883
2387,1801,1877
2599,1842,1877
2215,1884,1873
2150,1828,1872
2391,1785,1882
2239,1789,1884
2000,1818,1875
2011,1845,1875
2419,1931,1869
2559,1872,1855
2240,1744,1874
2192,1745,1904
2704,1767,1881
3538,1813,1874
4072,1835,1886
4095,1827,1888
4095,1831,1899
4095,1838,1891
4095,1831,1878
4095,1824,1879
4095,1851,1909
4095,1881,1909
4095,1840,1895
4095,1804,1891
4095,1788,1890
4095,1809,1903
4095,1828,1903
4095,1856,1886
4095,1810,1904
4095,1741,1899
4095,1766,1886
4095,1770,1889
4095,1754,1899
4095,1779,1898
4095,1796,1897
4095,1807,1897
4095,1807,1894
4095,1799,1893
4095,1807,1894
4095,1798,1885
4095,1793,1888
4095,1808,1899
4095,1794,1893
4095,1784,1879
4095,1808,1883
4095,1827,1887
4095,1854,1885
4095,1786,1872
4095,1718,1877
4095,1744,1887
4095,1786,1885
4095,1805,1879
4095,1823,1859
4095,1810,1872
4095,1793,1891
4095,1759,1889
4095,1791,1886
4095,1837,1885
4095,1823,1875
4095,1807,1869
4095,1787,1886
4095,1770,1886
4095,1797,1887
4095,1806,1873
4095,1839,1877
4095,1808,1877
4095,1779,1872
4095,1790,1869
4095,1822,1872
4095,1904,1879
4095,1758,1874
4095,1750,1873
4095,1792,1879
4095,1842,1870
4095,1863,1861
4067,1806,1856
3841,1763,1872
3859,1790,1870
3475,1795,1847
3408,1784,1846
3460,1792,1874
3749,1809,1875
3728,1838,1866
3646,1850,1803
3559,1801,1872
3317,1794,1893
3497,1797,1874
3536,1808,1858
3006,1822,1855
2789,1850,1861
3047,1941,1851
3006,1774,1811
3030,1776,1847
3408,1835,1850
4048,1841,1840
4095,1823,1843
4095,1840,1851
4095,1890,1855
4095,1840,1845
4095,1809,1827
4095,1840,1839
4095,1845,1850
4095,1798,1855
4095,1798,1840
4095,1826,1825
4095,1844,1838
4095,1817,1857
4095,1819,1851
4095,1845,1843
4066,1871,1840
3451,1921,1840
3286,1839,1835
3673,1805,1821
3638,1823,1824
3299,1840,1826
3549,1845,1823
3725,1857,1815
4095,1867,1831
4095,1840,1824
4083,1835,1817
4095,1835,1821
4095,1872,1833
4095,1889,1825
4095,1911,1808
4095,1788,1814
4095,1765,1823
4095,1781,1821
4095,1808,1808
4095,1808,1792
4095,1858,1833
4095,1912,1840
3986,1911,1826
3741,1809,1814
3778,1776,1817
3782,1805,1813
3741,1829,1806
3632,1840,1805
3372,1854,1808
3311,1867,1808
3011,1840,1810
2850,1852,1811
2961,1854,1805
3327,1849,1799
3605,1842,1803
3843,1863,1811
3730,1840,1814
3373,1820,1810
3406,1872,1789
3681,1813,1799
3689,1835,1818
3639,1895,1811
3568,1854,1808
3600,1832,1808
3888,1852,1813
4095,1820,1811
4009,1840,1778
3686,1840,1803
3453,1854,1826
2787,1848,1820
2462,1865,1803
2597,1866,1808
2459,1873,1818
2272,1872,1810
2017,1839,1804
1919,1839,1797
1781,1856,1802
1284,1891,1798
1201,1853,1793
1641,1882,1788
1563,1877,1781
1600,1867,1783
1487,1869,1787
1375,1846,1803
1364,1866,1804
1435,1889,1793
1731,1925,1794
2000,1883,1797
2134,1879,1795
2023,1936,1795
2097,1876,1794
2223,1853,1805
2210,1869,1802
2143,1893,1803
1968,1918,1808
2066,1867,1803
2224,1856,1803
2167,1864,1805
2043,1851,1775
2752,1892,1808
3635,1927,1839
3957,1978,1831
3487,1884,1826
3216,1814,1825
3344,1854,1834
3583,1872,1829
4033,1901,1823
4095,1889,1829
4095,1849,1840
4095,1847,1842
4095,1911,1840
4095,1877,1842
3920,1803,1840
3453,1808,1853
2672,1869,1844
2510,1839,1842
2269,1825,1839
1776,1837,1833
1523,1839,1835
1633,1854,1840
1702,1872,1840
1847,1873,1833
2128,1872,1827
2326,1874,1808
2466,1892,1826
3255,1910,1847
4095,1860,1850
4095,1883,1856
4095,1867,1851
4095,1867,1843
4095,1829,1845
4095,1856,1872
4095,1893,1865
3627,1872,1858
3152,1841,1856
3332,1762,1858
3728,1793,1861
3342,1830,1863
3127,1853,1865
3266,1847,1856
3925,1874,1859
4048,1849,1855
3978,1829,1857
3783,1849,1870
3137,1853,1869
2443,1859,1849
2099,1840,1850
2096,1802,1851
2010,1849,1859
1853,1834,1846
1753,1830,1808
1921,1840,1833
2029,1830,1862
1984,1838,1861
1983,1851,1843
2015,1823,1830
1924,1845,1839
2285,1862,1851
3395,1818,1853
4095,1843,1853
4095,1861,1862
4095,1837,1866
2324,1821,1855
1413,1840,1857
1501,1870,1862
1972,1897,1859
2121,1900,1850
2082,1799,1840
2096,1809,1849
2180,1827,1853
2123,1852,1840
2096,1862,1843
2002,1875,1854
1999,1907,1840
1963,1826,1833
2017,1799,1814
2097,1863,1851
1957,1867,1862
1904,1873,1856
1936,1842,1845
2002,1875,1849
1955,1839,1853
1904,1811,1851
1929,1793,1847
1857,1809,1843
1840,1867,1835
1734,1824,1840
1727,1840,1855
1797,1861,1857
1890,1876,1844
1991,1839,1835
2128,1859,1847
2161,1863,1853
2117,1855,1846
2158,1857,1855
2246,1915,1854
2250,1893,1843
2163,1818,1846
2111,1789,1823
2036,1843,1824
2163,1929,1859
2309,1808,1860
2248,1781,1842
2288,1823,1850
2357,1845,1856
2336,1844,1851
2345,1854,1850
2364,1856,1865
2360,1869,1865
2427,1872,1869
2500,1883,1857
2365,1843,1861
2119,1872,1867
1899,1852,1856
1889,1807,1841
1978,1840,1855
1995,1827,1845
1987,1795,1858
2066,1793,1840
2192,1865,1839
2427,1872,1872
2416,1802,1871
2230,1822,1867
2187,1814,1865
2256,1828,1860
1970,1839,1856
1602,1840,1853
1691,1840,1850
1845,1872,1862
1920,1850,1859
1839,1840,1852
1744,1849,1850
1909,1853,1851
1957,1827,1850
1922,1834,1855
1821,1870,1846
2057,1879,1849
2133,1869,1870
1895,1792,1857
1809,1779,1856
1854,1781,1840
1845,1812,1849
1922,1808,1863
2219,1809,1862
2732,1834,1863
3030,1851,1858
2587,1851,1856
1856,1863,1859
1079,1838,1867
733,1824,1865
679,1813,1857
1007,1834,1856
1313,1856,1865
1202,1857,1864
851,1867,1856
720,1859,1859
717,1801,1858
594,1835,1862
579,1904,1849
626,1825,1850
743,1763,1857
704,1763,1855
770,1799,1858
1126,1843,1866
1383,1845,1861
1194,1907,1831
912,1808,1851
1075,1803,1872
1525,1834,1872
1660,1835,1867
1509,1831,1863
1421,1838,1853
1428,1859,1863
1383,1873,1867
1264,1810,1856
1200,1840,1859
1175,1871,1862
970,1842,1851
847,1809,1851
1260,1782,1855
1462,1809,1870
1642,1859,1866
1405,1828,1852
1099,1827,1858
1569,1871,1866
1645,1906,1863
1266,1816,1849
1049,1751,1834
1008,1794,1851
1436,1843,1875
1583,1856,1872
1492,1854,1863
1616,1863,1862
1633,1871,1861
1642,1827,1859
1811,1814,1856
1421,1884,1866
1246,1889,1858
1645,1811,1855
1749,1781,1847
1758,1821,1857
1658,1814,1866
1414,1789,1862
1380,1827,1871
1453,1887,1874
1342,1839,1863
1307,1782,1854
1502,1774,1859
1574,1809,1869
1408,1827,1867
1344,1827,1867
1567,1822,1856
1535,1840,1856
1328,1861,1883
1298,1833,1875
1758,1838,1872
2111,1840,1872
2206,1911,1872
2254,1879,1861
1737,1743,1871
1230,1763,1886
1230,1808,1874
1361,1844,1861
1557,1822,1863
1792,1840,1878
1827,1838,1876
1948,1868,1872
2058,1782,1862
2032,1808,1879
1968,1805,1886
2034,1811,1878
1731,1821,1888
1487,1807,1882
1434,1802,1856
1558,1811,1869
1745,1815,1901
1807,1872,1904
1686,1857,1894
1385,1805,1872
1200,1792,1877
1341,1839,1887
1456,1878,1877
1459,1785,1878
1842,1746,1884
2141,1795,1897
2209,1843,1888
2528,1819,1895
2800,1859,1888
2866,1814,1895
2727,1795,1893
2503,1803,1885
2405,1824,1889
2313,1829,1901
2352,1808,1891
2453,1793,1883
2719,1831,1889
2593,1840,1899
2064,1883,1886
1740,1808,1863
2335,1766,1861
2839,1799,1899
2781,1819,1906
2489,1827,1888
2623,1869,1883
2846,1835,1886
2626,1842,1894
2140,1832,1887
1796,1807,1882
1888,1817,1889
2188,1755,1882
2257,1776,1872
2299,1811,1874
2320,1796,1874
2224,1795,1872
2151,1803,1872
2143,1819,1883
2153,1837,1887
2195,1856,1882
2272,1857,1870
2294,1855,1863
2275,1803,1871
2023,1781,1872
2044,1815,1872
2310,1825,1839
2537,1808,1871
2509,1809,1886
2439,1808,1870
2518,1866,1868
2461,1932,1865
2267,1753,1868
2101,1723,1856
2164,1778,1857
2299,1809,1865
2274,1809,1872
2098,1809,1861
1961,1824,1852
1916,1852,1856
1717,1841,1856
1535,1838,1844
1605,1827,1850
1710,1869,1859
1698,1838,1849
1637,1808,1839
1431,1781,1817
1293,1829,1856
1265,1843,1866
1199,1807,1849
1280,1829,1857
1337,1878,1861
1099,1919,1863
1011,1799,1866
1209,1862,1872
1296,1811,1855
1629,1840,1855
2883,2097,1897
4095,2224,2002
3440,1918,1899
2029,1748,1857
1691,1695,1805
1849,1721,1845
1917,1802,1903
0,1973,1926
0,2192,1926
0,1986,1877
1570,1741,1766
4095,1728,1850
4095,2032,1968
2759,1954,1891
0,1937,1845
0,2059,2032
4095,1926,1879
4095,1909,1749
3226,1811,1790
2023,1925,1969
1638,2145,2020
1718,2145,1823
1851,1985,1821
1878,2074,1915
1857,1889,1854
1845,1967,1922
1842,1942,1823
1837,2009,1741
1840,1843,1632
1843,1907,1791
1840,1968,1807
1838,2058,1921
1840,1937,1923
1795,1739,1722
1959,1773,1745
2279,1842,1617
2801,1935,1744
3227,1927,1796
4095,2099,1970
4095,2130,1808
4095,2055,1782
4095,1919,1853
4095,1856,1915
3633,1648,1783
3200,1981,1766
4095,2133,1762
4095,1809,1654
4095,2027,1871
4095,1388,1781
2176,1712,1796
0,2199,1898
0,1809,1667
0,1456,1600
0,1655,1792
0,1890,1727
0,1920,1771
0,2110,1889
0,1782,1631
0,1680,1807
0,1839,1823
0,2210,1810
0,1968,1710
0,1630,1560
0,1767,1744
0,1782,1746
0,1941,1796
0,1659,1613
0,1681,1615
0,1661,1748
672,1795,1703
1743,1749,1905
1854,1790,1782
1961,1738,1648
1908,1939,1785
669,1782,1714
2138,1855,1763
2317,1785,1733
1295,1735,1754
2000,1671,1823
2182,1808,1681
2046,1861,1623
1877,1743,1682
1360,1790,1761
993,1699,1753
986,2165,2039
2137,2057,1825
2032,1429,1520
1922,1425,1579
1968,1701,1701
2368,1697,1744
1878,1680,1749
2084,1808,1776
2388,1887,1911
1761,1761,1750
2083,1815,1665
1726,1741,1833
1865,1822,1885
1307,1778,1779
2043,1790,1661
1819,1834,1771
1271,1703,1749
1052,1686,1712
615,1748,1625
899,1746,1755
2064,1799,1874
2179,1914,1721
2074,1687,1916
1818,1535,1815
1515,1520,1712
1535,1637,1711
1023,2055,1870
1334,2007,1849
1395,1739,1742
3398,1399,1644
1239,1574,1751
0,1765,1804
865,1757,1725
0,1790,1789
0,1888,1959
0,1902,1936
0,1847,1691
0,1753,1618
0,1616,1698
0,1808,2023
0,1979,2019
0,1744,1651
0,1611,1584
0,1519,1639
0,1604,1856
0,1834,1790
0,1872,1863
0,1949,1878
0,1713,1844
0,1680,1851
0,1778,1730
0,1977,1761
0,1943,1825
0,1674,1808
0,1826,1909
0,1765,1664
0,1791,1866
0,2003,1975
0,1839,1748
0,1479,1726
0,1530,1833
0,1683,2003
0,1929,1990
0,1776,1733
0,1698,1675
0,1801,1730
0,1723,1743
0,1664,1774
0,1831,1877
0,1919,1906
0,1761,1711
0,1675,1745
0,1735,1830
438,1877,1932
1627,1994,1839
2019,1853,1714
1922,1918,1886
1807,1631,1850
1785,1485,1829
1198,1732,1858
0,2075,1985
0,1910,1827
0,1615,1843
0,1754,1818
0,1765,1874
22,1958,1941
1313,1941,1935
2012,1643,1858
2005,1633,1711
1829,1887,1639
0,1882,1802
0,1745,1904
0,1616,1813
0,1709,1914
0,1929,1933
0,2005,1945
0,1616,1687
0,1727,1936
0,1902,1936
0,1808,1901
0,1773,1669
0,1792,1677
0,1942,1937
782,2144,1946
1824,1841,1962
2041,1664,1943
1904,1623,1785
1806,1733,1695
1792,1826,1867
1808,1797,1927
1818,1758,1995
1811,1718,1902
1821,1655,1709
1824,1627,1734
1819,1959,2014
1816,1924,1884
1819,1951,1923
1944,1854,2071
1491,1801,1830
0,1697,1692
0,1808,1808
0,1839,1680
0,1766,1973
0,1914,1984
0,1696,1811
0,1647,1861
0,1898,1921
0,1790,1856
0,1798,1891
0,1951,2062
0,1897,1852
0,1653,1791
0,1635,1790
960,1872,1840
1898,2122,1978
0,1883,1949
0,1802,1794
0,1655,1837
0,1652,1904
0,1933,1918
0,1889,1881
0,1769,1799
0,1715,1839
0,1663,1827
0,1770,1883
0,1945,2079
0,1934,1853
0,1759,1726
0,1927,1884
0,1919,1975
0,1808,1863
1270,1610,1814
1973,1667,1822
1985,1799,1917
1846,1860,1899
1791,1695,1878
1798,1825,1882
1811,1891,1974
1821,1826,1935
1827,1814,1803
1819,1851,1699
1824,1835,1839
1821,1795,1919
1826,1904,1904
1821,2026,1904
1821,1971,1860
1825,1915,1968
1825,1535,1803
1827,1483,1690
1829,1840,1758
1825,1931,1833
1825,1831,1831
1809,1712,1802
2004,1990,1905
1978,1946,1812
1420,1730,1659
891,1866,1790
796,1808,1949
560,1899,1879
283,1858,1733
92,1708,1679
42,1657,1789
59,1877,1873
0,2243,1822
0,1731,1643
0,1486,1565
0,1604,1586
0,1824,1754
0,1891,1834
416,1938,1856
2559,2054,1776
4095,2087,1791
4095,1829,1681
4095,1771,1690
4095,1882,1810
4016,1949,1856
2702,1575,1655
1495,1649,1620
1358,1812,1745
1682,1849,1776
1872,1712,1760
1883,1792,1709
1872,1705,1763
1845,1884,1799
1840,2006,1747
1863,1881,1779
1776,1801,1747
1789,1967,1683
1829,1743,1671
1842,1683,1739
1829,1698,1740
1835,1883,1732
1829,1985,1792
1840,1861,1705
1823,1778,1774
1820,1881,1646
1830,1721,1679
1837,1723,1824
1833,1859,1815
1839,1965,1822
1825,1975,1732
1824,1970,1727
1831,1797,1776
2694,1690,1712
3104,1617,1716
2231,1808,1802
1626,1852,1859
1634,1853,1792
1815,1619,1749
1963,1717,1754
1883,1995,1668
1699,1863,1776
1680,1771,1822
1712,1873,1781
1779,2015,1826
1826,1819,1757
1879,1815,1792
1861,2071,1887
1811,1751,1757
1813,1857,1787
1865,1929,1698
2021,1782,1770
1954,1535,1773
1769,1609,1841
4095,1859,1904
4095,2005,1904
4095,1895,1867
3991,1916,1936
2481,1905,1635
1769,1670,1570
1721,1712,1846
0,2020,2007
0,2022,1778
0,1735,1726
0,1857,1874
0,1870,1885
0,1629,1777
0,1685,1776
0,1909,1902
0,1861,1712
0,2128,1858
0,2102,1811
0,1726,1803
0,1557,1743
0,1687,1768
112,1869,1744
1849,1892,1824
2465,2014,1875
2388,1898,1884
2187,1893,1855
1999,1909,1877
1805,1714,1792
1650,1710,1671
1431,1951,1827
1370,1697,1789
1670,1735,1862
1509,1786,1904
2147,1958,1877
2077,2005,1809
1535,1830,1847
1711,1744,1760
1857,1931,1901
1875,1862,1820
2053,1890,1839
1859,1994,1792
1642,1907,1808
1511,1661,1772
1616,1717,1871
1751,1914,1942
1995,1968,1851
2298,1904,1904
3119,1872,1855
2449,1655,1823
1968,1711,1746
1415,1718,1775
1799,1895,1878
1745,1959,1903
2071,1958,1921
2137,1947,1947
2068,1845,1835
1840,1846,1679
1798,1937,1873
1723,1979,1904
1157,1825,1875
2227,1808,1936
2272,1765,1795
1381,1609,1853
1845,1712,1840
2327,1825,1841
2019,1863,1851
1661,1877,1840
1968,1872,1827
1920,1831,1878
1462,1995,1865
674,2025,1953
1499,1807,1819
2059,1685,1761
2288,1911,1808
2183,1918,1810
1888,1968,1835
1648,1819,1932
1438,1819,1926
273,1815,1788
1358,1744,1723
2154,1811,1777
2086,1650,1872
1841,1808,1965
1573,2221,1947
1808,1895,1725
1902,1560,1682
1687,1687,1872
1396,1873,1840
1521,2092,1907
1862,1998,1808
1997,1793,1874
1616,1911,1877
1642,2113,1763
2022,1867,1762
2272,1503,1687
2053,1556,1904
1824,1919,1971
1637,2115,1871
1511,1764,1715
1821,1680,1808
1774,1785,1813
1136,1761,1846
1637,1899,1781
2007,1874,1789
2249,1926,1938
2277,1947,1952
2160,1989,1856
1605,1888,1728
847,1839,1737
581,1803,1783
1279,1840,1826
1891,1694,1833
1883,1785,1975
1921,1819,1931
1674,1853,1866
1712,1857,1808
1749,1811,1740
1815,1967,1847
1835,2075,1835
1823,1872,1751
1834,1652,1742
1825,1815,1913
1827,1870,1939
1879,1763,1860
2171,2034,1835
3580,2084,1859
1086,1600,1776
719,1649,1808
1535,1809,1907
1941,1856,1826
1936,1860,1761
1879,1835,1919
1795,1829,1892
1808,1821,1774
1808,1865,1845
1808,1763,1795
1825,1845,1797
1823,1826,1888
1831,1905,1867
1823,1857,1830
1639,1998,1950
1280,2018,1739
859,1711,1815
446,1790,1972
65,1924,1829
0,1845,1789
0,1660,1795
0,1829,1968
0,1823,1879
0,1825,1807
0,1753,1875
0,1885,1898
0,1879,1874
0,1890,1786
0,1788,1818
0,1899,1887
0,1857,1838
0,1715,1859
0,2039,1885
0,1893,1821
754,1793,1963
1847,1953,1968
2081,1867,1851
2090,1781,1801
1472,1758,1856
1618,1733,1830
1809,1744,1822
1863,2003,1859
1841,1837,1856
1825,1836,1917
1827,1727,1845
1824,1751,1808
1828,1840,1808
1831,1940,1887
1825,1935,1887
1830,1910,1897
1829,1867,1933
1829,1954,1831
1827,1799,1809
1831,1725,1881
1831,1742,1895
1835,2027,1831
1823,1989,1968
1832,1690,1845
1830,1649,1770
1830,1695,1859
1897,1801,1968
4095,1951,1958
389,1845,1894
1185,1872,1819
2626,1983,1854
240,1992,1893
995,1856,1843
1811,1844,1866
1995,1825,1896
1887,1923,1927
1817,2019,2006
1808,1914,1873
1815,1571,1698
1825,1603,1774
1834,1776,1994
1828,1879,1929
1830,1775,1907
1827,1824,1954
1840,2023,1909
4095,2032,1881
4095,1712,1799
0,1837,1845
0,1814,1810
1326,1936,1879
2065,2085,2027
2027,2019,2000
1856,1881,1876
1786,1842,1895
1805,1853,1862
1821,1599,1842
1829,1517,1781
1828,1633,1872
1834,1915,2001
2491,1968,1951
3456,1898,1855
2416,1875,1957
1510,1981,1895
1610,1806,1805
1786,1818,1947
1866,2062,1985
1858,2045,1939
1833,1858,1835
1825,1741,1899
1829,1969,1938
1835,1872,1791
1835,1600,1936
1825,1535,1853
1829,1744,1984
1830,1869,1940
1827,2026,1907
1837,2058,1856
1793,2000,1963
1709,1687,1798
1801,1709,1810
0,1836,1845
0,1937,1842
0,2037,1961
0,1960,2025
188,1855,1967
1491,1712,1852
2066,2010,1854
2006,1845,1738
1855,1744,1961
1796,1694,1953
2128,1900,1959
2631,1813,1798
1865,1929,1885
1356,1961,1910
1333,1744,1858
1669,1746,2000
2064,2011,1903
2247,1714,1679
2448,1809,1888
2896,1903,1957
1169,1822,1883
589,1920,1930
1015,2096,1925
1609,1829,1856
1755,1631,1806
1895,1697,1890
4095,1872,1930
1165,1822,1900
4095,1841,1907
4095,1942,1833
3924,1712,1846
0,1733,1949
533,1812,1899
4095,1919,1891
594,1807,1881
1072,1899,1893
0,1927,1788
1040,1850,1851
1904,1825,1966
2007,1891,2006
1861,1840,1771
4095,1699,1792
4095,1888,1950
0,1962,1939
3751,1751,1831
4095,1750,1867
4095,1887,2023
2767,1894,1877
862,1612,1776
1633,1685,1883
2511,1866,1940
2255,1875,1819
1919,1804,1776
1820,1859,1877
1855,2023,2064
1863,1958,1876
1869,1736,1836
1861,1686,1844
1856,1701,1883
1856,1670,1853
1856,1781,1798
1856,2000,1840
1857,2015,1947
1866,1795,1845
2397,1683,1877
3555,1754,1888
2544,1885,1974
873,1856,1751
0,1728,1742
546,1888,1921
0,1886,1899
1278,1867,1840
3024,1856,1833
2209,1878,1847
0,1936,1865
258,1786,1819
1472,1840,1874
1986,1723,1935
1936,1766,1884
1776,1894,1936
1745,1856,1808
1786,1916,1757
1793,1910,1855
1799,1809,1879
1806,1853,1904
1808,1872,1879
1814,1871,1917
1903,2127,1995
1791,1814,1786
1773,1688,1755
1804,1984,1859
1818,2175,1989
1825,1808,1837
1817,1649,1887
1817,1915,1904
1820,1741,1819
1758,1652,1809
1271,1834,1851
457,1840,1872
0,1981,1927
0,2058,1901
0,1903,1797
0,1787,1792
0,1806,1904
0,1894,1936
0,1975,1913
0,2073,1939
0,2042,1871
0,1621,1712
0,1659,1810
0,1774,1859
0,1872,1886
0,1769,1842
0,1796,1907
0,2046,1994
0,1922,1878
0,2010,1833
0,1840,1775
0,1739,1813
0,1914,1999
0,1872,1808
0,1826,1795
0,1574,1748
0,1879,1897
0,1787,1901
0,1703,1933
0,1954,1911
0,2064,1821
0,2027,1751
0,1776,1812
