1890,1860,1917
1899,1851,1935
1926,1872,1936
1933,1883,1920
1918,1872,1906
1870,1798,1904
1882,1792,1943
1900,1807,1915
1888,1827,1904
1921,1809,1887
1922,1929,1887
1904,1917,1894
1815,1725,1937
1837,1744,1936
1873,1759,1913
1892,1808,1899
1879,1808,1891
1891,1822,1894
1919,1840,1901
1914,1862,1899
1885,1850,1887
1887,1857,1887
1920,1890,1875
1935,1857,1906
1873,1827,1889
1866,1823,1872
1911,1914,1855
1954,1872,1840
1852,1769,1894
1807,1849,1894
1831,1733,1870
1867,1728,1866
1881,1814,1855
1968,1818,1840
1910,1845,1893
1835,1795,1872
1823,1776,1851
1856,1808,1847
1913,1842,1856
1921,1850,1857
1891,1856,1847
1883,1850,1844
1907,1856,1841
1904,1873,1856
1887,1882,1846
1923,1808,1776
1907,1813,1833
1865,1904,1853
1809,1761,1842
1854,1781,1849
1917,1850,1853
1894,1769,1856
1858,1835,1778
1835,1795,1810
1884,1869,1855
1889,1770,1838
1843,1725,1811
1852,1785,1818
1904,1831,1822
1919,1853,1824
1870,1826,1819
1874,1840,1823
1901,1857,1822
1909,1857,1826
1889,1849,1811
1899,1869,1808
1950,1952,1810
1872,1781,1840
1834,1802,1850
1829,1823,1815
1870,1810,1817
1900,1862,1808
1883,1819,1808
1904,1719,1789
1880,1813,1823
1872,1879,1839
1856,1842,1808
1873,1781,1799
1878,1758,1807
1893,1795,1807
1873,1810,1808
1883,1842,1817
1911,1855,1806
1923,1850,1773
1866,1888,1834
1857,1879,1827
1917,1844,1829
1899,1815,1810
1870,1857,1795
1890,1908,1789
1886,1845,1818
1845,1776,1807
1855,1811,1801
1885,1804,1767
1892,1866,1827
1856,1808,1815
1838,1775,1797
1857,1810,1799
1911,1854,1808
1913,1859,1808
1882,1855,1804
1882,1870,1808
1920,1890,1814
1905,1870,1801
1901,1877,1788
1892,1845,1739
1904,1915,1789
1871,1779,1829
1850,1802,1834
1872,1898,1815
1840,1726,1799
1840,1742,1779
1827,1770,1793
1861,1803,1759
1901,1816,1808
1919,1936,1839
1853,1822,1815
1846,1799,1795
1902,1831,1805
1911,1868,1809
1887,1857,1808
1883,1855,1804
1920,1842,1744
1929,1862,1792
1892,1922,1841
1928,1888,1841
1891,1784,1808
1835,1895,1814
1807,1757,1798
1829,1749,1785
1872,1782,1795
1889,1809,1801
1856,1857,1776
1855,1786,1808
1887,1816,1823
1893,1850,1805
1891,1838,1797
1892,1901,1794
1919,1834,1803
1895,1822,1803
1869,1835,1798
1885,1850,1806
1917,1862,1802
1919,1886,1795
1895,1825,1713
1863,1808,1798
1889,1914,1871
1959,1970,1844
1874,1783,1808
1756,1715,1791
1808,1739,1799
1871,1791,1794
1872,1820,1789
1895,1872,1799
1920,1911,1799
1902,1853,1797
1877,1808,1791
1882,1803,1808
1891,1838,1811
1902,1847,1803
1868,1854,1795
1891,1899,1795
1906,1907,1799
1895,1777,1744
1898,1872,1794
1868,1823,1788
1865,1727,1837
1857,1734,1838
1863,1739,1803
1855,1824,1816
1852,1856,1808
1867,1846,1791
1872,1872,1791
1873,1847,1801
1915,1855,1808
1913,1853,1810
1888,1886,1806
1888,1858,1803
1939,1860,1818
1898,1890,1811
1859,1890,1792
1831,1799,1778
1885,1744,1765
1872,1808,1842
1872,1883,1839
1888,1869,1810
1887,1797,1826
1920,1811,1830
1907,1799,1790
1819,1755,1781
1830,1826,1818
1874,1894,1823
1853,1853,1809
1859,1802,1808
1890,1817,1824
1908,1867,1820
1872,1862,1817
1847,1853,1815
1900,1843,1808
1899,1855,1806
1859,1866,1805
1866,1872,1813
1911,1893,1821
1916,1967,1801
1872,1889,1733
1876,1790,1799
1885,1761,1869
1877,1775,1863
1849,1842,1808
1845,1785,1819
1848,1749,1815
1857,1817,1809
1849,1823,1808
1876,1817,1777
1900,1811,1823
1910,1834,1837
1872,1836,1825
1885,1886,1811
1893,1840,1819
1889,1837,1823
1872,1862,1823
1877,1901,1863
1895,1855,1821
1905,1838,1747
1894,1968,1798
1868,1850,1858
1884,1778,1846
1904,1834,1835
1885,1795,1811
1826,1744,1819
1849,1790,1826
1904,1874,1810
1866,1815,1818
1871,1821,1836
1882,1821,1821
1875,1835,1817
1875,1841,1820
1883,1872,1824
1924,1885,1798
1921,1821,1808
1857,1850,1841
1862,1871,1840
1892,1866,1830
1911,1887,1794
1887,1854,1789
1867,1871,1872
1904,1919,1875
1905,1861,1814
1840,1690,1811
1840,1716,1839
1878,1747,1817
1903,1797,1810
1886,1872,1809
1858,1842,1825
1872,1803,1833
1899,1831,1831
1873,1824,1813
1881,1839,1831
1901,1841,1829
1899,1860,1831
1894,1887,1812
1878,1841,1824
1905,1851,1830
1915,1824,1827
1902,1816,1807
1874,1931,1828
1924,1904,1745
1871,1771,1820
1826,1744,1866
1855,1883,1859
1918,1776,1841
1895,1754,1829
1815,1823,1838
1829,1778,1831
1896,1863,1831
1909,1869,1818
1856,1789,1822
1850,1788,1834
1889,1822,1842
1916,1831,1852
1904,1835,1823
1900,1851,1833
1906,1884,1841
1913,1854,1822
1897,1842,1765
1882,1917,1833
1878,1885,1858
1920,1744,1846
1859,1784,1840
1853,1803,1842
1921,1856,1807
1920,1826,1838
1856,1807,1855
1825,1773,1840
1873,1802,1837
1914,1875,1841
1888,1857,1840
1883,1827,1843
1903,1843,1851
1909,1840,1844
1883,1890,1840
1886,1936,1839
1919,1799,1843
1902,1798,1840
1886,1817,1823
1872,1893,1840
1905,2003,1868
1871,1730,1857
1817,1670,1840
1833,1761,1829
1887,1802,1845
1909,1835,1845
1911,1831,1847
1877,1837,1851
1889,1849,1841
1923,1894,1831
1881,1840,1829
1859,1844,1841
1904,1809,1842
1899,1811,1830
1867,1823,1856
1872,1866,1858
1939,1872,1839
1955,1878,1791
1833,1847,1855
1799,1776,1866
1859,1751,1857
1875,1733,1829
1873,1771,1823
1872,1777,1840
1906,1810,1851
1943,1833,1840
1882,1865,1857
1859,1854,1869
1895,1857,1857
1920,1858,1839
1899,1856,1829
1907,1891,1827
1920,1855,1856
1856,1835,1838
1825,1775,1822
1846,1782,1839
1898,1828,1847
1938,1904,1838
1899,1835,1810
1859,1823,1778
1871,1799,1858
1884,1839,1895
1875,1819,1862
1901,1835,1806
1914,1799,1838
1899,1808,1863
1866,1829,1853
1887,1791,1826
1883,1829,1843
1873,1850,1856
1883,1859,1833
1878,1906,1841
1906,1838,1855
1869,1798,1838
1857,1830,1825
1889,1893,1806
1877,1802,1842
1877,1808,1854
1867,1819,1823
1898,1839,1774
1923,1859,1854
1898,1931,1873
1872,1850,1853
1874,1786,1843
1909,1902,1840
1915,1863,1861
1879,1737,1865
1891,1727,1810
1937,1793,1801
1916,1883,1859
1840,1817,1856
1835,1789,1842
1887,1831,1859
1921,1859,1856
1891,1840,1847
1870,1831,1856
1909,1879,1824
1917,1838,1843
1887,1825,1844
1906,1856,1840
1948,1856,1799
1905,1904,1867
1842,1830,1879
1868,1866,1867
1914,1840,1827
1901,1818,1845
1867,1785,1841
1875,1918,1840
1915,1782,1843
1885,1714,1860
1867,1769,1872
1897,1843,1850
1895,1849,1839
1874,1801,1812
1872,1777,1808
1855,1828,1857
1906,1870,1863
1913,1849,1851
1884,1851,1855
1878,1861,1850
1911,1879,1856
1933,1873,1845
1872,1853,1838
1891,1919,1763
1923,1852,1842
1871,1780,1895
1845,1815,1873
1920,1914,1856
1898,1883,1846
1855,1756,1823
1840,1750,1831
1871,1773,1859
1904,1817,1871
1869,1805,1853
1851,1867,1840
1855,1834,1859
1905,1779,1840
1904,1803,1841
1878,1817,1841
1867,1850,1846
1893,1857,1846
1909,1857,1840
1898,1862,1840
1900,1853,1851
1907,1887,1851
1922,1855,1793
1872,1853,1865
1873,1950,1846
1904,1843,1835
1904,1761,1866
1873,1787,1865
1838,1793,1852
1867,1817,1840
1847,1729,1863
1845,1736,1837
1847,1846,1852
1886,1859,1876
1905,1871,1867
1881,1878,1827
1863,1827,1829
1889,1844,1839
1902,1854,1842
1881,1856,1837
1894,1866,1840
1947,1911,1813
1936,1886,1813
1859,1857,1869
1840,1823,1853
1890,1824,1851
1873,1751,1843
1871,1766,1831
1875,1842,1840
1904,1843,1854
1920,1853,1842
1913,1807,1799
1856,1779,1818
1858,1876,1871
1886,1911,1853
1865,1799,1838
1863,1785,1824
1904,1800,1846
1922,1827,1855
1886,1843,1840
1872,1845,1844
1902,1823,1839
1925,1869,1814
1888,1806,1842
1887,1814,1858
1907,1847,1856
1907,1815,1856
1840,1808,1847
1854,1854,1851
1942,1943,1853
1925,1902,1818
1826,1687,1821
1827,1765,1856
1869,1805,1856
1900,1805,1849
1865,1816,1837
1871,1860,1852
1898,1866,1851
1907,1840,1848
1887,1849,1842
1908,1812,1770
1888,1806,1841
1875,1808,1877
1884,1763,1854
1881,1838,1869
1890,1922,1867
1884,1822,1873
1865,1782,1847
1877,1775,1843
1897,1815,1851
1890,1853,1854
1903,1854,1849
1919,1874,1835
1863,1877,1843
1843,1759,1866
1842,1755,1859
1878,1814,1872
1914,1878,1851
1883,1787,1845
1856,1785,1846
1872,1814,1854
1910,1841,1855
1923,1854,1831
1917,1897,1838
1894,1893,1861
1885,1806,1867
1910,1761,1861
1903,1838,1811
1855,1760,1849
1861,1776,1873
1877,1807,1851
1877,1826,1841
1885,1830,1845
1920,1854,1854
1953,1869,1856
1906,1887,1840
1838,1785,1840
1843,1777,1855
1895,1841,1862
1891,1822,1854
1893,1839,1842
1909,1839,1811
1914,1811,1840
1903,1856,1877
1875,1860,1861
1875,1782,1846
1904,1811,1831
1901,1871,1846
1879,1855,1867
1887,1824,1857
1898,1860,1835
1873,1813,1840
1872,1825,1846
1906,1831,1861
1958,1841,1806
1871,1782,1846
1830,1808,1865
1883,1850,1872
1917,1805,1855
1895,1869,1840
1903,1809,1837
1914,1819,1850
1904,1805,1849
1872,1826,1867
1877,1813,1808
1935,1841,1817
1923,1891,1891
1872,1946,1870
1845,1800,1846
1878,1809,1855
1911,1815,1860
1861,1851,1849
1859,1767,1840
1882,1757,1847
1904,1802,1853
1890,1831,1841
1879,1851,1840
1925,1858,1847
1932,1894,1856
1876,1841,1839
1858,1807,1838
1907,1813,1849
1909,1862,1853
1887,1819,1847
1881,1786,1808
1923,1786,1808
1891,1804,1829
1815,1805,1877
1842,1813,1882
1895,1830,1861
1895,1829,1850
1885,1849,1841
1872,1897,1825
1902,1798,1851
1901,1770,1847
1867,1759,1846
1871,1791,1841
1913,1851,1845
1920,1856,1842
1891,1823,1840
1899,1839,1841
1933,1834,1853
1906,1823,1837
1905,1904,1806
1885,1814,1861
1879,1813,1875
1872,1808,1856
1881,1826,1823
1874,1837,1855
1878,1794,1859
1893,1827,1846
1882,1799,1842
1866,1783,1833
1881,1803,1840
1915,1838,1844
1929,1808,1807
1871,1800,1849
1872,1871,1847
1891,1866,1831
1870,1850,1831
1872,1804,1847
1904,1840,1863
1917,1872,1856
1878,1808,1827
1874,1808,1790
1893,1818,1830
1893,1874,1870
1891,1899,1863
1903,1905,1830
1909,1758,1814
1887,1762,1838
1856,1771,1846
1842,1702,1856
1867,1744,1852
1895,1807,1861
1887,1823,1846
1899,1836,1843
1885,1840,1837
1879,1868,1838
1856,1843,1834
1875,1840,1839
1917,1863,1847
1935,1842,1841
1907,1857,1840
1878,1920,1776
1894,1836,1799
1855,1823,1868
1839,1759,1856
1861,1808,1862
1891,1834,1854
1915,1843,1865
1886,1824,1852
1875,1833,1829
1917,1850,1840
1920,1826,1856
1872,1856,1850
1891,1885,1835
1898,1819,1839
1858,1746,1840
1840,1771,1865
1866,1852,1858
1906,1834,1849
1921,1823,1843
1869,1831,1847
1863,1831,1845
1895,1808,1815
1904,1819,1831
1853,1825,1865
1868,1845,1847
1889,1830,1848
1905,1869,1866
1886,1829,1849
1911,1843,1823
1907,1733,1829
1866,1775,1877
1853,1839,1870
1863,1840,1856
1894,1814,1840
1921,1847,1843
1893,1830,1840
1883,1827,1842
1871,1792,1840
1874,1818,1837
1858,1788,1852
1871,1809,1856
1922,1838,1853
1927,1837,1853
1888,1810,1813
1842,1819,1856
1873,1855,1898
1914,1872,1857
1878,1843,1819
1883,1822,1857
1901,1889,1870
1872,1808,1865
1842,1763,1842
1877,1826,1839
1918,1867,1821
1882,1851,1865
1873,1853,1862
1854,1821,1825
1856,1725,1839
1872,1767,1867
1867,1801,1857
1855,1806,1845
1887,1817,1840
1930,1852,1801
1855,1805,1856
1850,1812,1889
1888,1840,1872
1915,1844,1865
1904,1831,1843
1887,1840,1829
1877,1880,1857
1883,1872,1866
1892,1837,1856
1871,1920,1853
1888,1867,1859
1860,1774,1858
1857,1827,1840
1829,1775,1825
1847,1775,1873
1886,1870,1855
1862,1813,1841
1855,1767,1843
1884,1808,1851
1919,1882,1853
1854,1799,1842
1845,1803,1856
1904,1840,1809
1889,1856,1859
1869,1833,1830
1889,1833,1850
1872,1840,1870
1878,1872,1845
1845,1819,1830
1849,1878,1853
1887,1910,1854
1893,1786,1855
1852,1803,1859
1873,1856,1853
1900,1894,1840
1917,1871,1834
1866,1811,1837
1840,1794,1839
1907,1926,1866
1890,1857,1867
1819,1711,1856
1824,1758,1851
1868,1817,1849
1895,1839,1829
1902,1819,1784
1871,1821,1840
1904,1840,1858
1884,1972,1865
1836,1856,1855
1835,1835,1863
1872,1787,1857
1887,1808,1840
1869,1825,1833
1882,1869,1840
1920,1870,1850
1915,1859,1842
1874,1856,1801
1812,1778,1863
1861,1807,1870
1895,1818,1834
1879,1879,1803
1861,1832,1858
1879,1808,1873
1882,1775,1840
1871,1791,1798
1863,1840,1851
1882,1840,1861
1895,1887,1856
1856,1840,1846
1872,1872,1846
1906,1867,1856
1925,1936,1853
1890,1808,1855
1866,1793,1855
1889,1852,1857
1871,1841,1847
1840,1805,1851
1855,1841,1856
1883,1834,1837
1893,1840,1847
1887,1881,1840
1872,1862,1775
1862,1783,1855
1879,1808,1862
1877,1824,1839
1872,1840,1853
1878,1905,1873
1872,1808,1865
1870,1762,1855
1861,1791,1855
1887,1830,1855
1911,1857,1859
1886,1846,1844
1888,1840,1851
1900,1929,1856
1886,1851,1855
1856,1792,1855
1893,1831,1859
1886,1842,1856
1915,1887,1855
1886,1829,1845
1840,1770,1841
1855,1817,1840
1894,1815,1817
1871,1851,1891
1841,1846,1875
1902,1935,1803
1906,1771,1859
1863,1789,1883
1847,1776,1865
1889,1813,1856
1887,1819,1849
1864,1824,1842
1895,1838,1850
1904,1841,1847
1904,1857,1845
1875,1845,1842
1894,1872,1846
1923,1918,1853
1921,1874,1875
1870,1768,1834
1851,1717,1763
1856,1776,1839
1854,1850,1893
1842,1920,1866
1872,1874,1852
1889,1808,1859
1858,1830,1850
1846,1809,1859
1849,1814,1856
1883,1899,1840
1900,1941,1831
1869,1775,1804
1849,1693,1854
1865,1755,1865
1885,1839,1869
1858,1822,1857
1869,1829,1854
1898,1855,1856
1899,1863,1855
1881,1881,1852
1887,1878,1836
1939,1836,1793
1872,1794,1868
1808,1791,1884
1851,1875,1886
1878,1889,1845
1894,1835,1847
1869,1843,1831
1843,1765,1840
1875,1769,1840
1872,1842,1857
1843,1887,1840
1841,1872,1843
1870,1819,1856
1891,1821,1850
1891,1898,1845
1895,1881,1859
1906,1885,1830
1923,1772,1758
1887,1883,1877
1863,1793,1902
1859,1769,1867
1854,1787,1873
1875,1818,1890
1849,1799,1830
1859,1797,1808
1885,1840,1827
1881,1917,1841
1870,1866,1842
1859,1826,1872
1865,1830,1899
1869,1872,1839
1858,1845,1809
1876,1867,1851
1888,1838,1851
1854,1915,1845
1865,1999,1830
1920,1892,1745
1889,1617,1861
1826,1683,1933
1803,1746,1867
1841,1787,1850
1904,1865,1884
1981,1969,1891
2148,2020,1906
1885,1812,1837
1686,1718,1799
1750,1803,1834
1886,1867,1856
1936,1975,1835
1900,1925,1886
1413,1883,1903
1739,1860,1808
1963,1914,1865
1557,1729,1899
1911,1686,1858
2007,1763,1904
1804,1883,1911
1981,1889,1878
1586,1846,1823
0,1909,1905
2352,1889,1881
2857,1943,1917
2163,1730,1803
1501,1913,1881
0,1943,1879
0,2032,1857
0,1761,1787
0,1799,1776
0,1830,1816
0,1989,1890
0,2032,1954
1328,1924,1895
0,1664,1728
4095,1825,1942
4095,1901,1951
3185,1855,1927
1520,1792,1831
1265,1872,1824
1709,1905,1841
1967,1650,1835
2550,1846,1840
2165,1858,1856
1798,1649,1730
1186,1721,1783
1409,1671,1877
1407,1759,1873
1495,1834,1842
1232,2077,1861
1312,1945,1753
1364,2064,1869
1361,1975,1958
800,1613,1913
0,1651,1872
1661,1968,1797
927,1808,1808
4095,1810,1867
2551,1871,1814
2256,1840,1871
2026,1865,1853
2103,1701,1873
1946,1842,1905
1135,1812,1869
208,1862,1837
1518,1703,1702
1910,1614,1851
587,1641,1868
357,1711,1751
1269,1803,1901
1569,1935,1968
2029,1938,1975
1807,1874,1947
1840,1857,1856
1827,1658,1815
2287,1807,1911
2063,1921,1917
2334,1782,1930
3707,1739,1972
4095,1850,1946
2487,1689,1906
2047,1600,1944
2117,1978,2032
1852,1885,2014
2112,2057,2064
2014,1627,1945
2207,1855,2059
2651,1681,2011
2496,1607,1935
2084,1856,2064
1873,1894,2038
1840,1834,2083
1851,1777,1980
3066,1997,2154
3088,1939,2039
2096,1766,1954
955,1667,2000
0,1758,2043
0,1666,1942
0,1683,2112
0,1851,2058
444,1767,1974
1482,1605,1947
2437,1937,2075
2371,1874,2149
1867,1843,2091
1841,2003,2164
1885,1883,2063
2034,1597,1905
1802,1968,2141
1746,1898,2061
1868,1534,1866
2110,1566,1959
1992,1840,2009
1814,2027,2192
1701,1827,2067
1680,1590,1855
1610,1787,1984
1818,1970,2197
1839,1783,1971
1931,1777,1904
1399,1627,1869
955,1754,2031
899,1889,1920
1594,1808,1893
2205,1758,2137
2399,1717,2069
1930,1776,1963
1079,1854,2036
1264,1695,1993
1575,1883,1921
1404,2032,1946
1689,1845,1952
2101,1858,1914
1584,1859,2074
1421,1711,2069
1850,1630,1866
2465,1686,1881
2469,2001,2058
1781,1971,1953
1760,1722,1890
2445,1959,2033
2448,1737,1954
2075,1827,1922
1797,1761,1811
2005,1762,1914
2162,1763,2000
2096,1858,2000
2197,1570,1859
2385,1771,1968
1922,1837,1895
1063,1776,1753
1142,1904,1890
2631,1841,1955
3087,1695,1857
2286,1785,1994
1785,1953,1978
1725,1873,1974
1818,1670,1863
1785,1651,1847
142,1677,1958
0,1808,1964
0,1710,1725
0,1827,1810
0,1814,1891
0,1837,1959
0,1711,1851
688,1805,2029
1810,1921,1923
2082,1869,1840
1949,1572,1885
1826,1600,1841
1807,1633,1828
1822,1792,1802
1835,1971,1904
1838,1888,1968
1830,1891,1885
1343,2000,1854
1007,1651,1763
1325,1575,1669
1600,1906,1811
1703,1883,1863
1877,1648,1821
1560,1646,1959
1397,1875,1950
1426,1719,1804
1827,1525,1861
1563,1791,1933
1392,1715,1755
1577,1795,1767
2128,1922,1787
2385,1988,1918
2257,1918,1872
3024,1743,1811
3277,1674,1718
2485,1726,1913
1905,1618,1936
1773,1689,1937
1827,2094,1951
1869,1994,1818
1863,1507,1458
1847,1733,1889
1855,1706,1866
1854,1729,1858
1793,1926,1905
1718,1850,1814
1458,1589,1712
1366,1616,1788
1503,1880,1819
1341,1830,1904
1627,1722,1898
1908,1766,1797
1392,1964,1787
1344,2030,1866
1477,1819,1845
799,1563,1712
1632,1786,1813
1920,1954,2018
1952,1842,2132
1555,1798,1778
2263,1738,1689
2614,1726,1872
1949,1836,2110
1732,1931,1910
2378,1776,1689
1947,1857,1846
1613,1728,1797
2190,1835,1916
2002,1913,1969
2259,1685,1625
1023,1744,1776
1717,1813,1946
1319,1793,2022
1947,1931,1946
1917,1851,1819
1135,1923,1745
1264,1773,1866
1744,1679,1953
1940,1791,1878
2172,1911,1883
2025,1985,1747
1713,1957,1937
841,1847,1893
1241,1574,1717
1601,1613,1728
1830,1776,1841
1008,1808,1846
1509,1603,1824
1929,1781,1922
4095,1817,1877
4095,1911,1937
2092,2043,1847
2506,1867,1858
2157,1690,1888
1882,1776,1854
2879,1876,1891
4095,1762,1787
4095,1813,1799
4095,1956,1902
3650,1882,1983
3023,1899,2034
1840,1877,1907
1597,1806,1808
1955,1529,1690
2023,1595,1808
1524,1872,2032
482,1943,2010
1088,1818,1797
1744,1725,1780
2130,1835,1942
2345,1898,1895
2278,1947,1890
1687,1847,1810
1191,1866,1865
1407,1744,1742
1935,1889,1865
1963,1739,1850
1603,1616,1751
1847,1827,1907
1997,1863,1951
2006,1919,1882
2032,1883,1797
1771,1734,1818
1791,1673,1907
1799,1829,1953
1790,1872,1811
1535,1987,1750
1636,2000,1878
1210,2082,1954
1703,1982,1807
2377,1850,1713
1792,1587,1872
1790,1535,1853
1837,1699,1929
1767,1807,1834
1744,1876,1739
1571,1895,1839
1645,1897,1961
1907,1985,1981
1847,2000,1957
1942,1967,1722
1373,1772,1642
1472,1776,1866
2043,1676,1851
1585,1868,1872
1752,1749,1834
2151,1805,1826
2032,2019,1904
1811,2023,1927
1778,1793,1727
1681,1840,1764
1648,1792,1938
1434,1936,1745
1733,1941,1813
1601,1919,1856
1974,1814,1742
1867,1695,1786
1633,1756,1863
1717,1830,1974
2291,1904,2115
1716,1970,1730
1422,1841,1615
2080,1937,1900
1442,1840,1967
1535,2019,1927
1904,1923,1737
2001,1712,1887
1935,1897,1787
1503,1769,1647
1398,1831,1830
1808,1962,1934
1600,1945,2016
2115,1958,1755
1798,1735,1663
1889,1843,1704
1816,1863,1950
1616,1808,1871
1869,1854,1750
2530,1802,1825
1535,1967,1957
1412,1975,1909
1957,1987,1808
1535,1862,1755
1733,1574,1733
1971,1899,1947
1657,1915,1873
1328,1834,1844
1808,1790,1808
1693,1878,1841
1938,1827,1733
1589,1814,1798
1651,2012,1936
1853,1855,1854
1840,2018,1879
1644,2037,1829
1858,1783,1669
1766,1690,1827
1662,1870,1847
1911,1851,1820
2126,1911,1889
1936,1968,1869
1488,1851,1680
1260,1557,1701
1441,1947,1950
1911,2037,1802
1678,1792,1776
2253,1827,1862
2448,1839,1827
1708,1855,1776
1851,1807,1758
1590,1808,1695
1785,1907,1882
1826,1958,1875
2107,1895,1776
1755,1837,1767
1534,1723,1842
1666,1888,1958
1877,1837,1777
1904,1874,1845
1342,1873,1826
1331,1856,1818
2792,1901,1769
2987,1854,1771
2256,1937,1761
1783,2160,1910
1454,1711,1810
1497,1654,1846
1806,1813,1783
1829,1882,1808
2367,1937,1808
2006,1791,1696
2191,1843,1792
1711,1886,1803
1745,1883,1833
1741,2021,1968
2194,1846,1783
1744,1821,1680
1936,1947,1804
2201,1886,1905
1616,1801,1680
1313,1789,1753
1791,1851,1949
2442,1872,1860
1671,1833,1765
1745,1872,1840
1838,1921,1835
1353,1712,1753
2388,1699,1761
1967,1820,1783
1666,1981,1935
1747,1804,1773
1689,1731,1819
2819,1874,1808
2061,2027,1906
1424,1921,1920
2157,1828,1765
2337,1770,1629
2124,1933,1773
1448,1918,1975
1697,1930,1872
1632,1907,1791
1664,1791,1699
1872,1842,1903
2836,1778,1883
2331,1771,1721
1689,1754,1725
1452,1744,1762
768,1895,1947
1904,1909,1837
1683,1934,1904
494,1733,1670
1851,1962,1853
2730,2000,1865
2677,1874,1647
2178,2080,1799
1616,2174,2005
1698,1737,1968
1606,1585,1629
2000,1855,1737
1424,1809,1847
1658,1907,1840
2837,1915,1861
2127,1893,1881
1926,2014,1899
1733,2391,1872
1781,2233,1757
1251,1872,1740
1212,2010,1814
1495,1871,1655
1390,1904,1693
1854,1923,1881
1726,2083,1903
1476,1933,1554
1810,1872,1535
1967,1618,1520
2001,1712,1648
1917,1728,1753
1849,2160,1921
1629,1737,1750
1414,1793,1797
2063,2103,1705
1090,1875,1535
1309,1827,1535
1458,1958,1779
1535,2029,1889
1698,1946,1705
1884,1813,1493
1806,1808,1521
2094,1868,1797
1803,1874,1836
2089,1850,1774
2328,1648,1555
1315,1743,1530
1841,1792,1697
2495,1877,1649
1312,1923,1781
1871,1845,1698
1715,1904,1741
1010,1740,1626
2064,1698,1584
1379,2025,1767
1414,2155,1827
1520,2027,1734
1779,1707,1577
1795,1967,1681
2425,1757,1527
2231,1627,1639
1520,1856,1760
1376,1905,1680
1931,1616,1577
2271,1683,1727
1873,1790,1771
1836,1950,1698
1647,1942,1756
1770,1846,1715
1296,1821,1635
1534,1838,1682
1649,1878,1595
2032,1759,1701
1799,1953,1871
1794,1710,1601
1437,1669,1622
1577,2193,1808
2178,2080,1717
2117,1521,1554
1457,1465,1650
1968,1981,1937
2039,1970,1840
1818,1535,1501
1427,1847,1712
1758,1826,1858
2224,1915,1845
2108,1781,1617
1523,1666,1594
1636,1850,1647
1762,1774,1639
1713,1887,1618
1974,1850,1697
2131,1859,1783
1422,1850,1910
1684,1930,1863
1581,1847,1601
1509,1783,1665
1744,2181,1965
2131,1488,1626
1630,1445,1639
1433,1680,1751
1831,1968,1872
2006,2108,1853
1731,1787,1525
1619,1601,1607
1759,1911,1874
2031,1893,1815
2195,1749,1710
1930,1604,1734
2236,1837,1792
1957,2067,1910
1503,1989,1742
1573,1815,1840
1793,1651,1759
1841,1697,1775
1830,1719,1799
1920,1922,1763
1888,1882,1757
1938,1953,1798
2123,1769,1744
1996,1535,1654
1828,1789,1836
1529,1993,1856
1837,1895,1786
1969,1897,1747
1806,2021,1842
1611,1815,1910
1665,1862,1792
1753,1590,1817
1905,1606,1863
1705,1688,1834
1829,1926,1785
2000,1809,1770
1731,1529,1758
1786,1704,1814
1865,1904,1865
1845,2055,1919
1745,1949,1938
1791,1857,1814
1817,1776,1753
2880,1821,1761
4095,2012,1879
4095,2012,2085
4095,1476,1795
4095,1584,1765
4095,1776,1723
4095,1569,1790
4095,1712,1970
4095,2089,1973
4095,1892,1776
4095,1666,1773
4095,1611,1842
4095,1744,1930
2515,2029,2066
1687,1993,1814
1616,1979,1843
1798,2142,1970
1835,1639,1764
1827,1718,1837
1827,1519,1875
1837,1725,1759
1838,1999,1891
1819,1585,1744
1847,1477,1776
1817,1699,1938
1819,1969,1923
1826,1840,1760
1826,2033,1901
1846,1984,1792
1840,1878,1968
1810,1827,1927
1809,1712,1731
2063,1871,1887
1520,2057,1970
1461,1730,1762
1936,1463,1727
2514,1623,1859
4095,1673,1952
3945,2035,2033
0,1763,1808
2851,2010,1786
4095,1965,1946
940,1678,1845
0,1690,1846
0,1831,2032
541,2118,1846
1710,2124,1713
2126,1825,1827
2045,1675,1811
1745,1719,1897
1685,1649,1817
1763,1667,1841
1869,1856,1987
2174,2115,2158
2062,1637,1834
1809,1535,1655
1870,1827,1721
2199,2010,2000
2041,1987,1947
2007,1766,1757
1946,1769,1846
1232,2083,1999
1486,1937,1837
2060,1661,1859
2163,1873,1901
1895,1821,1862
1790,1711,1882
1796,1769,1874
1859,1719,1948
2018,1840,1968
3149,1763,1901
1268,1885,1899
767,2025,1886
1152,1757,1807
4095,1673,1789
3662,1929,1958
1859,2045,2082
1257,1670,1823
1616,1867,1929
2009,2001,1913
2060,1899,1834
1799,1738,1824
1728,2071,1919
1856,1595,1822
1817,1499,1936
2327,1893,2096
1934,1822,1984
1796,1762,1760
1812,1776,1820
2027,1798,1868
2343,2131,1952
1686,2022,1808
1568,1827,1872
1456,1910,2016
1842,2064,2150
1967,1945,1770
1714,1707,1583
2086,1609,1743
2117,1850,1968
1685,1723,2122
1797,1781,1911
2016,1895,1903
4095,1792,1818
4095,1678,1765
267,1650,1811
336,1877,1936
637,2074,1885
778,2294,1965
2057,1929,1968
2130,1645,1831
1799,1689,1812
1838,2195,2064
1766,2513,2128
1776,1778,1744
1977,1378,1645
2167,1486,1770
1840,1792,2010
1553,2199,2177
1658,2211,1994
1815,1431,1584
2007,1445,1625
1862,1769,1834
1856,2228,2118
1940,2031,1902
1679,1655,1715
1863,1687,1809
2019,1851,1901
3141,1911,1936
2019,2089,1909
1698,2192,2068
1673,1662,1839
2102,1420,1766
1749,1626,1833
1703,1712,1933
1412,1748,1914
1673,1802,1933
17,1892,1926
973,1895,1907
2047,2093,1984
2203,1872,1819
2004,1689,1844
1911,1765,1913
1847,1882,1981
1786,1967,1957
1920,1863,1882
2382,1839,1920
2160,1931,1968
1909,1912,1931
2385,1801,1911
1715,1761,1935
1319,1889,1997
1270,1706,1946
1695,1744,1971
3413,1815,1971
1815,1760,1895
746,1811,1922
2190,2001,2019
2511,1887,1961
351,1818,1920
