1831,1810,1569
1832,1791,1478
1839,1919,1471
1838,2034,1497
1838,1970,1523
1829,1837,1488
1835,1743,1422
1838,1679,1398
1830,1727,1475
1835,1781,1527
1840,1968,1589
1827,1840,1472
1835,1771,1422
1838,1805,1440
1835,1810,1464
1840,1822,1513
1839,1951,1649
1828,1810,1562
1837,1713,1407
1831,1742,1349
1835,1839,1495
1831,1824,1568
1838,1753,1525
1835,1838,1503
1831,1842,1499
1851,1789,1509
1840,1744,1501
1898,1776,1511
1959,1847,1534
1963,1863,1530
1865,1802,1507
1850,1809,1579
1872,1805,1568
1830,1791,1520
1895,1887,1535
2081,2102,1610
2142,2027,1597
1724,1607,1458
1599,1634,1582
1726,1712,1578
1791,1787,1553
1819,1747,1583
1775,1742,1561
1811,1819,1648
1793,1845,1609
1733,1763,1535
1801,1866,1581
1878,1936,1613
2073,2130,1796
1844,1789,1562
1603,1559,1460
1648,1621,1515
1699,1806,1645
1728,1838,1654
1777,1869,1660
1840,1925,1645
1968,2002,1709
1829,1799,1687
1652,1665,1598
1643,1664,1616
1709,1725,1623
1701,1757,1651
1706,1809,1680
1863,2035,1764
2029,2011,1743
1825,1711,1674
1609,1664,1692
1670,1808,1725
1700,1765,1701
1682,1750,1706
1843,1888,1750
1800,1815,1659
1692,1783,1629
1680,1809,1617
1746,1826,1607
1931,1990,1583
1786,1872,1633
1779,1712,1618
1718,1650,1413
1673,1842,1471
1695,1853,1486
1517,1601,1493
1579,1678,1510
1690,1747,1517
1727,1821,1483
1377,1761,1424
934,1744,1456
1567,1877,1460
1922,1961,1488
1926,1793,1366
1855,1520,1403
1829,1683,1491
1826,1730,1515
1835,1711,1474
1835,1755,1456
1837,2073,1503
1830,1998,1458
1834,1622,1381
1833,1621,1492
1837,1671,1490
1835,1733,1472
1838,1808,1471
1840,1973,1535
1833,1898,1513
1833,1680,1454
1834,1673,1514
1839,1734,1554
1837,1890,1570
1831,1879,1509
1837,1855,1441
1831,1691,1513
1828,1596,1600
1831,1637,1609
1838,1833,1649
1832,1915,1651
1830,1872,1604
1835,1725,1596
1795,1733,1563
1865,1806,1586
2001,1902,1633
1922,1920,1641
1818,1781,1623
1750,1696,1618
1779,1711,1642
1808,1879,1664
1695,1836,1630
1787,1751,1604
1844,1771,1618
1844,1753,1722
1835,1703,1713
1835,1747,1701
1831,1808,1671
1830,1776,1700
1837,1767,1712
1837,1779,1744
1829,1859,1756
1836,1842,1735
1829,1743,1713
1830,1804,1728
1836,1845,1808
1837,1841,1760
1827,1873,1751
1830,1910,1759
1831,1854,1726
1830,1723,1749
1837,1812,1739
1833,1792,1755
1835,1808,1830
1829,1646,1826
1837,1701,1813
1836,1832,1825
1834,2126,1921
1829,1814,1799
1829,1637,1764
1833,1712,1811
1835,1808,1851
1810,1839,1852
1773,1855,1849
1782,1868,1854
1808,1841,1870
1808,1825,1859
1843,1893,1840
1791,1814,1808
1743,1713,1899
1726,1747,1925
1753,1838,1907
1831,1931,1935
1835,1808,2000
1789,1831,1902
1714,1713,1833
1762,1742,1849
1933,1931,1909
1803,1822,1909
1703,1763,1901
1769,1804,1942
1833,1850,1936
1824,1867,1925
1806,1865,1920
1808,1865,1936
1845,1878,1939
1840,1863,1866
1774,1706,1858
1746,1779,2017
1771,1799,2019
1766,1821,1984
1797,1839,1994
1856,1970,1973
1903,1920,1969
1735,1729,1936
1672,1659,1943
1745,1770,2010
1814,1813,2000
1822,1820,1985
1778,1843,1956
1789,1878,1937
1824,1888,2017
1795,1804,1983
1793,1793,1872
1778,1845,1950
1788,1840,2064
1808,1822,2059
1860,1891,1968
1820,1917,1973
1744,1769,1998
1714,1726,2015
1765,1751,2013
1813,1933,2000
1838,1899,2019
1778,1802,2037
1843,1850,2145
1836,1846,2029
1810,1845,1957
1766,1841,1952
1748,1750,1936
1785,1757,2019
1805,1808,2064
1834,1870,2072
1822,1927,2032
1785,1840,1985
1798,1857,2064
1811,1853,2057
1838,1952,2044
1807,1877,1963
1808,1776,1980
1810,1837,2102
1810,1858,2064
1846,1907,2027
1861,1946,2015
1871,1866,2032
1818,1757,2141
1767,1782,2047
1803,1904,1984
1836,1830,1955
1772,1782,2000
1742,1769,2060
1792,1823,2087
1803,1869,2059
1805,1904,2001
1831,1882,2014
1814,1841,2037
1821,1874,2071
1822,1883,2054
1856,1938,2077
1857,1982,1985
1818,1818,1964
1749,1774,2047
1795,1855,2090
1875,1936,2074
1820,1861,1987
1767,1834,2007
1767,1805,2021
1819,1827,2018
1831,1883,2081
1792,1847,2109
1779,1799,2006
1859,1959,2002
1845,1914,2017
1789,1837,1994
1790,1821,2033
1882,1906,2089
1927,2019,2096
1897,1969,2099
1890,1963,2059
1770,1814,1904
1808,1801,1995
1843,1819,2007
1841,1901,2015
1831,1937,2053
1722,1794,1983
1715,1693,1968
1803,1823,2013
1841,1876,2033
1815,1847,2027
1808,1839,2023
1834,1867,2023
1872,1899,1995
1876,1921,1984
1856,1936,2010
1815,1908,2003
1815,1936,2004
1824,1815,2023
1809,1744,1996
1865,1886,2020
2239,2122,2081
2221,2125,2023
1533,1680,1889
1507,1647,1871
1895,1831,1970
2167,1934,2047
1841,1918,2015
1619,1872,2047
1869,2035,2073
1827,1707,1999
1699,1651,1910
1718,1798,1947
1782,1866,1924
1837,1792,1985
1898,1854,2015
1899,1893,1963
1897,1855,1963
1699,1757,1914
1699,1777,1920
1791,1815,1999
0,1925,2007
0,1911,1956
1046,1895,1970
701,1887,1934
0,1835,1934
0,1860,1950
0,1846,1926
0,1803,1872
0,1743,1981
0,1666,1971
0,1776,1969
0,1883,1946
0,1821,1900
0,1759,1873
0,1738,1909
574,1808,1968
0,1758,1931
0,1762,1872
0,1873,1895
0,1777,1883
0,1782,1877
0,1731,1823
0,1767,1920
0,1850,1943
0,1851,1873
0,1829,1899
0,1843,1988
0,1767,1904
0,1766,1873
437,1815,1853
0,1983,1749
0,1533,1754
0,1593,1935
0,1951,1998
0,1885,1866
0,1579,1763
0,1623,1793
0,1777,1826
0,1729,1877
0,1744,1861
0,1795,1919
0,1810,1937
0,1831,1954
0,1840,1904
0,1807,1810
0,1767,1791
400,1777,1824
1616,1852,1894
0,1854,1962
0,1925,1995
0,1786,1755
0,1670,1703
0,1648,1825
0,1645,1853
0,1771,1907
0,1777,2053
0,1734,1975
0,1700,1772
0,1729,1819
429,1838,1934
1713,1969,2158
2121,1856,1990
2007,1747,1727
1865,1749,1763
1830,1997,2094
1840,1999,2326
1844,1746,1726
1844,1728,1598
1853,1652,1699
1850,1704,1876
1840,1755,1776
1840,1535,1835
1843,1686,1900
1841,1825,1878
1847,1856,1891
1840,1821,1890
1839,1853,1853
1840,1907,1961
1835,1904,2054
1835,1794,1767
1840,1786,1700
1840,1947,1892
1840,2224,2254
1823,2077,2448
1941,1697,1718
2647,1635,1390
3640,1942,1631
4095,1739,1877
4095,1701,1997
4095,1678,1893
4095,1877,1859
4095,2128,2118
4095,1911,2322
4095,1739,2019
4095,1776,1728
4095,1712,1648
4095,1776,1660
4095,1793,1852
4095,1847,1847
4095,1950,1891
4095,1907,2026
4095,1905,1910
4095,1694,1755
4095,1744,1825
4095,1689,1818
4095,1689,1844
4095,1778,1797
4095,1810,1826
4095,1808,1870
4095,1853,1932
4095,1933,1870
4095,2047,1920
4095,1947,1865
4095,1795,1919
4095,1815,2195
4095,1810,1919
4095,1759,1575
4095,1773,1554
4095,1905,1840
4095,1837,1899
4095,1575,1776
4095,1585,1764
4095,1739,1846
4095,2046,1936
4095,2096,2003
4095,1829,1917
4095,1593,1851
4095,1627,1782
4095,1731,1709
4095,1815,1797
4095,1914,2032
4095,2087,2017
4095,1903,1796
4095,1965,1726
4095,1840,1773
4095,1647,1733
4095,1783,1822
4095,1840,1867
4095,1763,1813
4095,1663,1811
4095,1785,1839
4095,1776,1877
4095,1777,1886
4095,1780,1858
4095,1767,1841
4095,1795,1834
4095,1823,1789
4095,1847,1843
4095,1781,1863
4095,1979,1962
4095,2032,1916
4095,1586,1719
4095,1795,1777
4095,1712,1821
4095,1655,1872
4095,1856,1827
4095,1919,1813
4095,1846,1914
4095,1682,1788
4095,1535,1728
4095,1711,1823
4095,1763,1818
4095,1793,1822
4095,1841,1871
4095,1995,1967
4095,1799,1925
4095,1609,1716
4095,1695,1726
4095,1779,1813
4095,1820,1865
4095,1855,1869
4095,1761,1832
4095,1737,1803
4095,1645,1753
4095,1730,1786
4095,1895,1861
4095,1771,1850
4095,1689,1798
4095,1712,1850
2032,1666,1807
0,1734,1873
956,1712,1824
1725,1815,1824
1808,2006,1840
1750,1817,1747
995,1728,1750
2592,1799,1856
1648,1797,1872
720,1748,1793
0,1754,1762
0,1954,1845
1343,1986,1788
0,1757,1808
0,1603,1863
4095,1623,1786
4095,1653,1749
1554,1683,1814
2891,1728,1838
3024,1734,1813
0,1775,1799
1943,1872,1823
3283,1868,1893
2527,1763,1794
1854,1741,1776
1703,1802,1849
1795,1796,1811
1857,1782,1779
1859,1862,1767
1852,1824,1774
1842,1757,1809
1840,1797,1845
1846,1787,1854
1841,1680,1851
1839,1687,1798
1833,1721,1787
1840,1731,1814
1839,1755,1830
173,1777,1824
1072,1795,1831
0,1816,1843
0,1839,1821
0,1837,1794
0,1850,1808
0,1854,1810
0,1826,1824
0,1837,1823
0,1840,1833
0,1840,1840
0,1900,1887
0,2011,1871
0,1836,1791
0,1708,1827
0,1810,1809
0,1719,1872
0,1714,1937
0,1845,1915
0,1777,1837
0,1745,1823
1087,1814,1874
2717,1837,1887
1625,1854,1885
2349,1863,1874
2082,1855,1877
1088,1879,1879
3696,1879,1889
3173,1856,1886
2063,2067,1857
1668,1875,1835
1735,1673,1919
1847,1636,1932
1874,1680,1889
1862,1792,1882
1847,1936,1938
1843,1894,1921
1841,1793,1841
1840,1812,1855
1841,1855,1881
1841,1872,1890
1844,1873,1888
1840,1891,1897
1843,1906,1896
1840,1957,1858
1840,1844,1841
2146,1850,1909
2811,1806,1923
3791,1822,1922
4095,1871,1888
4095,1777,1899
4095,1762,1882
4095,1825,1925
4095,1934,1943
4095,1875,1937
4095,1855,1930
4095,1828,1926
4095,1872,1909
4095,2032,1961
4095,1861,1977
4095,1674,1875
4095,1693,1911
4095,1792,1968
4095,1855,1927
4095,1902,1893
4095,1858,1910
4095,1823,1926
4095,1838,1928
4095,1840,1920
4095,1853,1915
4095,1896,1904
4095,1887,1904
4095,1963,1847
4095,1719,1936
4095,1687,1926
4095,1811,1934
4095,1718,1899
4095,1731,1902
4095,1793,1921
4095,1838,1925
4095,1841,1904
4095,1839,1895
4095,1854,1901
4095,1873,1910
4095,1874,1922
4095,1915,1898
4095,1815,1903
4095,1837,1926
4095,1910,1899
4095,1936,1872
4095,1776,1839
4095,1635,1905
4095,1723,1936
4095,1755,1923
4095,1791,1923
4095,1835,1914
4095,1863,1918
4095,1869,1915
4095,1853,1904
4095,1884,1904
4095,1872,1899
4095,1854,1882
4095,1882,1891
4095,2000,1906
4095,1811,1930
4095,1825,1872
4095,1850,1859
4095,1872,1935
4095,1729,1905
4095,1775,1849
4095,1713,1850
4095,1765,1911
4095,1818,1920
4095,1818,1901
4095,1835,1881
4095,1866,1891
4095,1878,1892
4095,1877,1889
4095,1947,1894
4095,1889,1890
4095,1867,1868
4095,1858,1867
4095,1846,1920
4095,1818,1920
4095,1887,1862
4095,1852,1851
4095,1819,1875
4095,1805,1877
4095,1811,1894
4095,1790,1887
4095,1785,1863
4095,1813,1861
4095,1863,1904
4095,1853,1904
4095,1878,1887
4095,1903,1879
4095,1877,1873
4095,1867,1904
4095,1870,1874
4095,1911,1891
4095,1846,1907
4095,1807,1904
4095,1853,1875
4095,1898,1872
4095,1854,1872
4095,1853,1903
4095,1901,1862
4095,1906,1831
4095,1776,1877
4095,1823,1909
4095,1827,1882
4095,1829,1872
4095,1834,1871
4095,1859,1874
4095,1923,1877
4095,1834,1818
4095,1843,1863
4095,1895,1936
4095,1904,1915
4095,1871,1883
4095,1866,1866
4095,1854,1871
4095,1923,1876
4095,1897,1858
4095,1843,1867
4095,1921,1870
4095,1934,1872
4095,1808,1867
4095,1744,1867
4095,1815,1872
4095,1872,1877
4095,1968,1882
4095,1921,1878
4095,1851,1871
4095,1861,1821
4095,1862,1852
4095,1836,1890
4095,1849,1902
4095,1904,1904
4095,1870,1874
4095,1866,1856
4095,1885,1872
4095,1903,1854
4095,1943,1862
4095,1886,1868
4095,1874,1869
4095,1882,1861
4095,1931,1868
4095,1930,1843
4095,1872,1808
4095,1854,1857
4095,1872,1908
4095,1885,1874
4095,1811,1840
4095,1755,1863
4095,1847,1875
4095,1873,1855
4095,1874,1857
4095,1903,1850
4095,1885,1862
4095,1884,1862
4095,1878,1845
4095,1879,1837
4095,1933,1802
4095,1863,1863
4095,1899,1883
4095,1967,1862
4095,1921,1857
3984,1821,1803
3680,1811,1859
2735,1905,1875
1847,1895,1853
1639,1859,1839
1744,1973,1824
1847,1837,1812
1852,1788,1809
1840,1884,1821
1830,1907,1830
1833,1919,1811
1836,1876,1827
1834,1852,1826
1830,1909,1840
1830,1898,1837
1834,1936,1799
1835,1845,1782
1828,1883,1809
1830,1890,1797
1838,1966,1801
1828,1872,1844
1833,1899,1839
1833,1901,1833
1835,1870,1824
1832,1885,1825
1827,1905,1824
1831,1968,1827
1827,1962,1812
1830,1894,1830
1830,1895,1834
1833,1930,1815
1837,1930,1808
1833,1920,1803
1862,1943,1824
1913,1921,1809
1951,1837,1819
1953,1819,1788
1968,1893,1799
1934,1966,1854
2016,1971,1841
2032,1822,1818
2039,1840,1826
2098,1901,1837
2149,1930,1824
2160,1883,1771
2150,1872,1822
2181,1933,1855
2244,2029,1847
2255,1909,1814
2221,1863,1827
2264,1887,1841
2311,1941,1834
2324,1910,1839
2320,1904,1811
2377,1984,1808
2371,1924,1847
2398,1875,1853
2355,1818,1840
2349,1827,1843
2359,1830,1842
2384,1843,1839
2418,1875,1839
2448,1910,1842
2490,1938,1850
2463,1872,1841
2461,1878,1840
2485,1949,1861
2515,1966,1840
2501,1855,1843
2499,1872,1856
2543,1897,1870
2558,1909,1853
2559,1899,1779
2528,1751,1793
2503,1821,1904
2559,1953,1933
1922,1902,1882
1648,1842,1823
1903,1755,1829
1909,1847,1841
1856,1792,1856
1831,1819,1855
1831,1871,1855
1833,1874,1854
1835,1866,1838
1835,1869,1854
1839,1877,1855
1835,1904,1847
1834,1907,1838
1830,1890,1840
1833,1920,1858
1829,1922,1852
1833,1887,1789
1831,1875,1858
1826,1786,1898
1835,1759,1855
1834,1860,1818
1837,1799,1807
1831,1810,1843
1831,1861,1856
1835,1891,1840
1831,1809,1850
1837,1837,1845
1835,1872,1854
1835,1901,1854
1829,1858,1849
1833,1871,1826
1830,1927,1855
1819,1901,1872
1815,1819,1849
1885,1833,1845
1915,1847,1850
1917,1882,1840
1916,1873,1799
1954,1814,1815
1966,1838,1873
2010,1925,1888
2030,1858,1850
1963,1786,1855
1973,1789,1834
2013,1806,1835
2032,1834,1855
2083,1856,1857
2109,1865,1845
2127,1901,1837
2121,1932,1833
2121,1805,1844
2161,1791,1825
2175,1809,1779
2119,1776,1855
2121,1811,1841
2170,1808,1853
2217,1830,1825
2183,1899,1866
2202,1879,1871
2240,1862,1857
2220,1785,1840
2245,1835,1829
2237,1805,1834
2243,1812,1844
2256,1824,1839
2267,1874,1845
2270,1813,1840
2287,1808,1840
2287,1818,1855
2285,1841,1856
2320,1857,1844
2357,1925,1827
2349,1850,1835
2290,1862,1811
2310,1811,1809
2327,1671,1836
2313,1714,1852
2302,1847,1863
2329,1773,1827
2352,1782,1855
2346,1813,1857
2347,1834,1862
2362,1857,1856
2378,1872,1847
2369,1791,1835
2367,1847,1840
2383,1868,1829
2403,1827,1872
2402,1829,1847
2375,1767,1821
2349,1731,1816
2393,1796,1829
2413,1904,1808
2375,1709,1838
2355,1792,1866
2368,1773,1857
2403,1837,1861
2388,1810,1843
2384,1751,1830
2421,1762,1838
2430,1810,1842
2394,1840,1853
2427,1868,1851
2447,1877,1844
2434,1766,1857
2373,1809,1847
2384,1865,1850
2418,1863,1830
2439,1866,1776
2416,1750,1802
2386,1757,1867
2384,1789,1879
2406,1856,1853
2394,1861,1855
2397,1808,1871
2410,1760,1853
2422,1771,1846
2381,1791,1831
2382,1780,1824
2418,1760,1842
2427,1773,1838
2405,1794,1841
2423,1809,1849
2462,1824,1853
2429,1810,1831
2385,1823,1840
2388,1837,1856
2423,1843,1859
2449,1871,1837
2419,1831,1786
2383,1835,1856
2384,1830,1843
2372,1702,1797
2371,1743,1829
2338,1705,1859
2367,1744,1855
2384,1776,1839
2384,1785,1836
2413,1840,1840
2422,1847,1842
2401,1831,1841
2398,1840,1844
2410,1876,1837
2404,1871,1840
2394,1808,1835
2372,1759,1837
2394,1791,1840
2438,1853,1844
2402,1792,1790
2382,1765,1829
2343,1901,1867
2320,1751,1854
2305,1691,1866
2308,1747,1851
2343,1791,1840
2391,1871,1841
2378,1821,1827
2338,1775,1801
2317,1779,1843
2342,1805,1853
2349,1831,1843
2326,1830,1845
2331,1825,1846
2352,1840,1849
2347,1825,1837
2320,1810,1822
2327,1939,1834
2362,1794,1856
2340,1764,1842
2321,1776,1765
2363,1950,1839
2352,1856,1911
2253,1753,1846
2176,1648,1839
2228,1735,1840
2299,1802,1846
2298,1782,1855
2263,1776,1833
2288,1790,1826
2315,1811,1832
2294,1825,1839
2271,1833,1838
2274,1849,1840
2300,1874,1854
2353,1922,1861
2320,1918,1792
2247,1808,1826
2212,1694,1791
2226,1712,1813
2233,1817,1859
2232,1911,1901
2242,1787,1867
2215,1792,1819
2183,1779,1818
2181,1723,1822
2211,1743,1831
2217,1786,1841
2218,1794,1831
2263,1851,1840
2256,1842,1829
2232,1814,1842
2240,1886,1842
2285,1920,1886
2351,1933,1847
2225,1879,1830
2141,1712,1753
2209,1843,1837
2212,1840,1922
2197,1872,1883
2235,1808,1903
2212,1840,1830
2163,1771,1846
2162,1810,1872
2182,1812,1885
2185,1798,1840
2401,1917,1855
2559,2070,1921
2139,1843,1861
1933,1753,1845
2073,1844,1810
2079,1739,1789
2231,1841,1824
2463,1936,1906
2380,1945,1904
2207,1968,2001
2047,1779,1843
2270,1904,1837
2537,2013,1898
2139,1760,1840
1900,1741,1827
2289,1999,1959
2400,2016,1993
1937,1747,1812
1962,1920,1785
2550,2365,1930
2498,2074,1921
1846,1426,1699
1857,1520,1715
2062,1684,1862
1989,1726,1906
1968,1833,1839
2096,1995,1879
2004,2007,1811
880,1872,1735
2000,1792,1738
2211,1881,1793
1968,2111,1873
1819,1911,1811
1808,1795,1865
1827,1891,1815
1833,2018,1840
1799,1890,1691
1479,2096,1720
1664,1763,1865
1717,1651,1820
1987,1622,1803
1934,1585,1727
2080,1680,1723
1936,1930,1774
1831,2077,1830
1806,1981,1892
1826,1607,1717
1839,1771,1667
1838,1761,1773
1839,1965,1862
1831,1791,1777
1834,1852,1840
1834,1803,1735
1831,1746,1841
1827,1967,1811
1833,1712,1664
1830,1517,1721
1834,1855,1729
1835,1856,1767
1904,1712,1868
2113,1671,1906
2225,1727,1856
2448,1975,1778
2220,1858,1769
2073,1675,1712
2019,1641,1698
2160,1690,1760
2218,1668,1764
2603,2103,1881
2283,1722,1750
2061,1455,1780
2227,1667,1754
2383,1669,1797
2287,1679,1777
2252,1879,1794
2218,1662,1787
2198,1589,1701
2366,1856,1854
2406,1849,1747
2189,1638,1694
2409,1730,1843
2512,1722,1840
2229,1637,1751
2225,1616,1795
2378,1758,1807
2799,2173,1878
2352,1776,1690
2017,1322,1616
2313,1529,1859
2362,1681,1863
2305,1886,1765
2304,1728,1840
2379,1797,1860
2431,1697,1795
2427,1722,1771
2256,1675,1745
1968,1579,1824
2227,1712,1872
2304,1602,1767
2195,1680,1737
2448,1867,1878
2346,1744,1813
1862,1523,1606
1628,1517,1746
1609,1785,1899
641,1598,1778
0,1666,1822
0,1968,1829
21,1919,1776
342,1605,1808
688,1614,1757
1445,1693,1787
2047,1846,1868
2192,1698,1806
2236,1584,1775
2371,1669,1749
2462,1612,1823
2633,1709,1808
2431,1596,1722
2768,1730,1919
2439,1796,1887
2201,1510,1757
2396,1598,1818
2863,1951,1893
2762,1841,1817
2239,1612,1733
2481,1793,1821
2913,1987,1946
2427,1653,1803
2477,1499,1840
2501,1595,1776
2368,1713,1713
2653,1798,1953
2433,1779,1871
2224,1561,1830
2445,1697,1881
2463,1617,1794
2419,1589,1760
2749,2025,2043
2480,1836,1810
2277,1526,1746
2474,1718,1827
2301,1616,1744
2409,1781,1888
2326,1784,1872
2510,1781,1808
2547,1763,1851
2441,1757,1851
2115,1564,1791
2208,1460,1744
2521,1781,1858
2279,1773,1871
2257,1653,1811
2506,1663,1798
2559,1695,1766
2608,1693,1941
2285,1867,1901
2015,1648,1780
2455,1811,1885
2322,1720,1835
2111,1647,1856
2251,1664,1840
2435,1729,1745
2209,1806,1665
2249,1776,1865
2480,1797,1930
2275,1570,1882
2089,1447,1806
2166,1571,1789
2363,1690,1812
2428,1825,1909
2824,2240,2001
2307,1876,1936
1780,1425,1750
2117,1535,1794
2513,1898,1750
2419,1824,1792
2270,1791,1985
2437,1858,2047
1791,1477,1758
1836,1495,1835
2293,1744,1922
2224,1743,1818
2435,1835,1877
2160,1779,1797
2123,1678,1802
2185,1791,1837
2215,1936,1938
2250,1842,1840
2329,1782,1813
2505,1801,1804
2087,1776,1820
1829,1677,1854
1954,1573,1900
2233,1808,1996
2307,1759,1888
2423,1867,1794
1959,1835,1856
1987,1778,1758
2145,1710,1909
2105,1931,1937
2286,2338,1975
2176,1829,1826
2211,1637,1872
2130,1528,1791
2064,1652,1842
1867,1776,1840
2244,2150,1845
2064,1846,1808
2128,1863,1967
2207,1801,1870
1849,1750,1794
1733,1664,1872
2039,1779,1920
2257,1766,1920
2224,1967,1834
2119,2012,1817
1936,1774,1808
1933,1624,1840
2733,2176,2078
2142,1963,1873
1571,1745,1725
1662,1584,1762
2699,2160,1978
2601,2128,1856
1518,1655,1805
1324,1563,1939
1808,1595,1922
2235,1777,1903
2604,2215,1997
2000,2032,1814
1604,1719,1675
2141,1674,1767
2394,2094,2037
1809,1956,1872
1846,1936,1919
2376,1920,1904
1831,1831,1808
1444,1753,1835
2106,1949,1967
2323,2090,1910
2082,1931,1917
1680,1678,1735
1808,1615,1789
1850,1706,1853
2443,2058,2028
2183,2062,1869
1584,1772,1796
1851,1972,1866
1933,1846,1887
1958,2016,1946
1987,2094,1904
2027,1910,1838
1981,1936,1877
1723,1776,1794
1727,1660,1920
2243,1824,1837
2374,2002,1787
1578,1782,1892
1584,1735,1873
2230,2156,1959
1968,1861,1887
1429,1616,1853
1726,1819,1847
1942,1878,1821
2103,1956,1860
2130,2128,1980
1851,1955,1842
2258,2060,1915
2368,2064,1709
1255,1522,1693
1325,1584,1950
2391,2062,2158
2139,1977,1973
1404,1681,1702
1755,1778,1897
2661,2262,1955
1777,1970,1861
1158,1626,1742
1635,1775,1840
2416,2090,1879
2250,2094,1888
1747,2001,1802
1625,1815,1894
2388,2038,1917
1711,1686,1641
1584,1934,1933
2268,1984,2085
1889,1821,1901
1207,1522,1747
1319,1607,1754
1854,1858,1797
2112,2002,1839
1862,1909,1968
2012,2017,1946
2006,1901,1839
1680,1860,1777
1913,1991,1821
1742,2043,1855
1991,1904,1936
2336,2192,2059
1653,1819,1824
1232,1583,1694
1693,1621,1870
2715,2249,2032
2319,1967,1789
963,1605,1767
1040,1632,1813
2128,1989,1973
2000,1975,1831
1914,1959,1876
1862,1916,1846
1763,1904,1834
1855,1898,1937
2238,2123,1922
1621,1766,1684
1534,1705,1797
1614,1925,1882
1789,1862,1856
2145,1936,1977
1820,1936,1959
1572,1691,1743
1520,1690,1795
1824,1974,1826
2442,2147,1984
1906,1872,1906
1280,1680,1770
1535,1703,1803
2167,2325,1970
2289,2368,1963
1472,1621,1680
1490,1733,1907
1818,1887,1863
1723,1790,1791
1718,1697,1856
2066,2007,2014
1636,1703,1818
1842,1979,1921
1957,2031,1911
1712,1728,1715
1361,1672,1790
1626,1838,1863
2133,1959,1907
2311,2187,2018
2001,2030,1904
1712,1869,1740
1317,1622,1708
1500,1829,1799
1906,1904,1927
2455,2164,1951
1847,1725,1840
1311,1639,1901
1447,1741,1863
2058,1918,1968
1664,1808,1776
1399,1698,1751
1631,1776,1805
2120,1929,1935
2221,2080,1905
1892,1889,1807
1835,1951,1802
1664,1817,1851
1388,1776,1839
1693,1902,1882
2339,2235,2003
2553,2149,1936
2012,1789,1841
1499,1811,1926
1394,1811,2000
1258,1641,1765
1520,1746,1722
1728,1744,1808
2316,1987,1956
1838,1831,1781
1328,1776,1735
1467,1760,1841
1803,1872,1931
1848,1813,1822
1800,1854,1840
1937,2023,1911
2031,1951,1829
1893,1920,1762
1619,1826,1874
1607,1758,1949
1837,1817,1952
1798,1885,1873
1535,1781,1776
1724,1766,1903
2227,2006,1959
1851,1926,1877
1581,1782,1743
1481,1740,1798
1851,1856,1841
1645,1785,1811
2002,2160,2010
2525,2199,1985
1525,1744,1718
1168,1637,1792
1699,1680,1970
2007,1835,1959
1733,1877,1887
1808,1855,1822
1927,1850,1901
1680,1951,1894
1887,1946,1808
1709,1808,1855
1573,1678,1847
1686,1857,1842
1737,1881,1887
1971,1866,1994
2100,1994,1936
1923,1974,1818
1691,2065,1882
1695,1788,1827
1609,1680,1851
2025,2042,2105
2135,1995,1925
1592,1758,1712
1317,1504,1766
1555,1696,1882
1967,1947,1950
2206,1997,1838
1776,1815,1803
1693,1889,1998
1875,1921,1999
1755,1856,1786
1557,1877,1803
1744,1902,1890
1840,1904,1965
2129,1899,1926
1808,1727,1760
1803,1778,1835
2063,2109,2032
1620,1833,1926
1426,1568,1799
1638,1744,1856
1679,1857,1771
1937,1926,1803
1865,1873,1857
2160,2190,2037
1821,1920,1936
1521,1643,1805
1754,1734,1831
1712,1831,1874
1723,1953,1917
1853,1890,1797
1807,1774,1883
1701,1664,1849
2030,2055,2070
2368,2092,1934
1486,1600,1722
1243,1591,1753
1825,1926,1962
2482,2260,2066
1742,1837,1837
1218,1535,1712
1568,1730,1850
2234,1993,2015
2559,2224,1911
1648,1733,1718
1296,1727,1858
1834,2007,2057
1926,1872,1939
1664,1603,1721
1557,1569,1777
1628,1723,1867
2412,2150,2086
2038,1933,1841
1271,1631,1700
1326,1653,1803
1834,1907,1935
2026,1981,1904
1856,1927,1870
1783,1859,1922
1950,1920,1854
2000,1893,1824
2109,2092,1811
1735,1789,1781
1424,1591,1854
1648,1673,1892
1799,1751,1965
1939,1875,1891
2005,1940,1810
1808,1829,1822
1702,1808,1870
1904,1761,1804
1708,1847,1803
1693,1843,1951
1712,1923,1886
1813,1968,1803
1854,1885,1840
2266,2195,1890
1993,1855,1814
1487,1696,1749
1524,1702,1872
1952,1750,1879
1931,1750,1840
1997,1935,1931
2113,2000,1904
1369,1709,1773
1396,1701,1806
2062,1894,1939
2224,1886,1870
1775,1977,1773
1629,1965,1846
2061,1957,1966
1942,1833,1787
1600,1904,1747
1829,1783,1871
1776,1821,1859
2091,1971,1910
2231,1974,1866
1753,1757,1802
1383,1511,1793
1562,1686,1823
1738,1845,1806
1872,1829,1747
1894,1899,1916
2286,2112,2072
1829,1819,1766
1381,1689,1715
1776,1860,1801
1913,1839,1839
1696,1840,1782
1716,1872,1867
1949,1980,1910
1793,1898,1815
2221,1871,1877
1867,1755,1781
1580,1712,1802
1833,1846,1907
1906,2030,1904
2112,1974,1838
2007,1895,1821
1314,1630,1731
1390,1661,1808
1916,1871,1872
2063,1950,1895
2327,2214,1803
1694,1834,1776
1319,1484,1824
1637,1654,1894
1961,1845,1877
1917,1831,1728
1776,1920,1803
2214,2102,1891
2135,2007,1902
1459,1662,1765
1219,1507,1801
1606,1721,1839
2139,1861,1846
2112,1984,1815
1968,1968,1822
1987,2007,1925
1847,1850,1837
2242,2018,1947
1909,1964,1836
1114,1521,1737
1527,1869,1803
2119,1910,1814
1760,1742,1863
1535,1641,1863
1654,1680,1887
2090,1719,1728
1931,1851,1790
2279,2180,1973
1826,1845,1725
1378,1666,1755
1611,1801,1984
1988,1962,1886
1787,1857,1779
1937,1908,1876
1968,1971,1904
1904,1850,1837
1770,1744,1805
1746,1861,1779
1771,1786,1728
1620,1613,1860
1685,1655,1902
1960,1932,1904
1965,1905,1801
1619,1739,1699
