1818,1856,1849
1819,1836,1846
1844,1843,1854
1872,1851,1846
1843,1872,1807
1808,1791,1831
1845,1799,1872
1830,1818,1867
1811,1871,1824
1803,1808,1801
1837,1826,1891
1831,1850,1877
1792,1818,1839
1825,1866,1837
1855,1840,1843
1869,1911,1840
1833,1804,1840
1829,1790,1855
1859,1833,1863
1858,1849,1851
1840,1843,1841
1823,1861,1846
1842,1856,1852
1853,1858,1847
1833,1871,1841
1830,1850,1840
1864,1895,1837
1885,1855,1840
1825,1783,1804
1779,1756,1838
1810,1798,1843
1818,1778,1859
1815,1840,1872
1833,1813,1866
1852,1817,1855
1842,1834,1851
1817,1834,1840
1831,1843,1855
1867,1862,1852
1875,1859,1840
1844,1856,1840
1836,1860,1847
1863,1855,1853
1872,1850,1842
1842,1872,1825
1840,1799,1824
1857,1891,1861
1857,1927,1859
1824,1827,1807
1808,1771,1835
1840,1744,1874
1837,1771,1872
1823,1859,1847
1828,1829,1840
1847,1808,1867
1883,1851,1853
1834,1823,1840
1842,1793,1834
1845,1842,1863
1830,1858,1873
1815,1855,1867
1846,1861,1866
1863,1863,1862
1877,1854,1855
1836,1864,1854
1833,1881,1854
1856,1895,1855
1845,1893,1856
1818,1777,1856
1838,1746,1856
1867,1831,1859
1872,1839,1840
1855,1807,1805
1841,1854,1874
1850,1840,1886
1869,1847,1851
1802,1823,1856
1813,1809,1862
1852,1834,1878
1859,1840,1851
1853,1849,1845
1866,1853,1851
1867,1831,1841
1835,1829,1858
1813,1841,1872
1825,1840,1866
1861,1856,1870
1867,1861,1866
1845,1862,1856
1861,1927,1863
1877,1873,1870
1869,1830,1862
1818,1740,1850
1815,1809,1865
1879,1840,1879
1856,1808,1870
1843,1863,1846
1850,1821,1827
1854,1829,1897
1872,1866,1899
1855,1865,1869
1842,1832,1875
1873,1803,1875
1874,1830,1881
1823,1842,1872
1842,1882,1872
1866,1840,1863
1866,1856,1869
1845,1829,1886
1840,1829,1886
1894,1908,1885
1887,1858,1867
1828,1757,1846
1811,1774,1867
1831,1818,1904
1847,1822,1897
1845,1841,1872
1856,1847,1882
1883,1843,1875
1855,1795,1874
1849,1837,1866
1853,1803,1892
1871,1824,1893
1872,1839,1873
1856,1852,1872
1856,1917,1883
1879,1894,1885
1893,1793,1858
1822,1826,1837
1808,1730,1872
1840,1791,1911
1839,1807,1900
1834,1813,1877
1850,1853,1872
1884,1888,1871
1872,1846,1881
1837,1808,1882
1866,1839,1890
1872,1875,1897
1845,1811,1872
1822,1794,1875
1827,1797,1887
1863,1831,1888
1871,1845,1885
1855,1843,1881
1865,1855,1882
1890,1886,1893
1871,1852,1882
1850,1872,1875
1876,1907,1871
1888,1808,1827
1856,1763,1843
1809,1826,1900
1840,1824,1908
1840,1857,1906
1827,1813,1872
1823,1791,1872
1830,1830,1878
1862,1856,1887
1872,1869,1887
1851,1838,1876
1854,1819,1882
1872,1814,1882
1891,1835,1882
1858,1842,1877
1866,1890,1879
1883,1858,1869
1877,1825,1883
1845,1798,1855
1872,1823,1853
1873,1761,1904
1863,1787,1926
1851,1803,1893
1838,1849,1892
1838,1840,1904
1857,1845,1889
1843,1841,1886
1872,1851,1895
1888,1880,1904
1879,1904,1879
1847,1820,1888
1859,1830,1901
1889,1863,1902
1860,1856,1894
1836,1811,1909
1851,1793,1909
1874,1812,1888
1885,1829,1890
1857,1886,1886
1870,1853,1865
1903,1789,1859
1885,1750,1926
1819,1761,1929
1807,1811,1935
1869,1855,1921
1855,1808,1904
1829,1821,1904
1849,1840,1917
1903,1890,1919
1872,1827,1910
1839,1840,1904
1852,1821,1909
1880,1827,1927
1901,1873,1928
1872,1872,1918
1841,1835,1920
1860,1796,1922
1856,1801,1919
1846,1818,1866
1851,1846,1948
1873,1853,1968
1872,1845,1942
1856,1819,1917
1845,1783,1923
1871,1793,1937
1867,1825,1936
1836,1824,1911
1853,1841,1920
1882,1857,1939
1863,1841,1936
1840,1828,1931
1845,1830,1917
1870,1840,1919
1870,1855,1922
1836,1872,1917
1842,1840,1915
1872,1809,1935
1890,1823,1936
1857,1867,1920
1854,1821,1926
1891,1822,1890
1897,1878,1909
1867,1873,1951
1840,1789,1955
1854,1847,1907
1854,1808,1906
1840,1785,1902
1855,1800,1936
1879,1837,1930
1872,1869,1913
1835,1829,1895
1851,1795,1891
1872,1837,1922
1867,1843,1915
1856,1841,1911
1870,1843,1907
1891,1856,1903
1881,1856,1898
1865,1846,1890
1875,1889,1895
1915,1893,1901
1903,1872,1890
1840,1792,1899
1869,1822,1841
1886,1966,1898
1839,1761,1886
1783,1691,1917
1823,1767,1905
1889,1808,1879
1877,1833,1892
1832,1825,1904
1855,1835,1886
1891,1855,1885
1891,1856,1875
1858,1841,1877
1855,1858,1882
1879,1868,1873
1882,1859,1872
1856,1860,1865
1856,1861,1867
1886,1853,1872
1904,1877,1863
1872,1882,1819
1850,1808,1841
1840,1792,1898
1865,1859,1890
1813,1812,1872
1819,1819,1870
1858,1808,1843
1861,1743,1849
1847,1753,1830
1856,1802,1835
1872,1905,1901
1865,1856,1887
1847,1840,1843
1879,1840,1835
1904,1831,1809
1863,1828,1867
1833,1839,1872
1866,1856,1865
1901,1905,1856
1885,1815,1841
1859,1803,1846
1853,1840,1847
1876,1827,1845
1855,1833,1840
1831,1829,1849
1867,1867,1831
1869,1815,1795
1837,1810,1854
1806,1747,1883
1838,1776,1867
1891,1815,1843
1892,1838,1831
1858,1839,1833
1867,1853,1840
1887,1861,1847
1882,1864,1847
1860,1856,1840
1865,1853,1845
1894,1857,1840
1909,1861,1796
1851,1851,1843
1846,1837,1860
1889,1867,1849
1923,1909,1834
1840,1808,1826
1849,1877,1833
1863,1791,1810
1838,1790,1813
1808,1773,1868
1822,1794,1856
1867,1831,1847
1877,1845,1829
1847,1842,1823
1860,1844,1830
1895,1859,1841
1890,1851,1831
1864,1853,1826
1878,1858,1827
1901,1883,1798
1915,1878,1810
1840,1845,1840
1854,1841,1835
1862,1783,1837
1840,1783,1831
1829,1775,1823
1858,1835,1837
1908,1871,1798
1879,1808,1804
1850,1801,1813
1810,1788,1841
1855,1814,1850
1870,1833,1840
1855,1833,1809
1867,1837,1808
1887,1851,1825
1877,1841,1811
1847,1830,1821
1879,1890,1818
1914,1875,1776
1861,1804,1823
1820,1782,1840
1826,1780,1838
1872,1836,1808
1876,1795,1823
1873,1814,1809
1872,1872,1811
1887,1799,1815
1863,1779,1830
1825,1802,1831
1846,1838,1830
1894,1862,1829
1890,1837,1813
1851,1897,1840
1840,1830,1825
1881,1833,1825
1907,1857,1811
1859,1837,1816
1842,1798,1827
1867,1829,1820
1897,1822,1776
1862,1855,1820
1872,1856,1846
1888,1863,1842
1872,1792,1815
1857,1831,1821
1858,1865,1825
1897,1820,1830
1892,1808,1827
1831,1817,1831
1843,1847,1834
1891,1904,1819
1895,1871,1821
1872,1872,1822
1887,1793,1815
1895,1789,1835
1878,1818,1825
1866,1841,1827
1869,1841,1825
1894,1858,1840
1892,1850,1826
1872,1827,1787
1909,1877,1786
1909,1830,1835
1872,1766,1840
1839,1837,1840
1857,1873,1831
1898,1841,1823
1872,1813,1834
1857,1811,1810
1860,1840,1807
1850,1817,1826
1858,1811,1833
1848,1847,1818
1855,1844,1815
1878,1825,1830
1879,1839,1820
1856,1852,1808
1863,1838,1821
1897,1873,1837
1906,1887,1787
1851,1795,1827
1856,1851,1840
1895,1862,1828
1857,1759,1813
1851,1779,1822
1843,1867,1829
1859,1823,1837
1847,1782,1837
1840,1808,1834
1861,1840,1835
1893,1856,1827
1929,1842,1808
1861,1902,1833
1841,1840,1840
1869,1850,1823
1855,1826,1824
1850,1835,1824
1863,1870,1822
1878,1856,1781
1863,1823,1849
1828,1789,1853
1857,1840,1836
1879,1837,1821
1862,1827,1805
1824,1845,1827
1855,1824,1840
1897,1873,1825
1846,1787,1834
1824,1783,1826
1846,1827,1829
1898,1840,1818
1895,1867,1829
1839,1881,1841
1834,1831,1840
1885,1885,1841
1865,1835,1835
1833,1803,1831
1849,1826,1835
1887,1850,1823
1917,1854,1791
1870,1849,1840
1836,1863,1887
1840,1830,1855
1853,1819,1823
1846,1821,1806
1861,1840,1845
1889,1857,1843
1886,1836,1837
1841,1829,1826
1858,1847,1829
1867,1850,1831
1872,1883,1830
1858,1857,1819
1856,1822,1823
1877,1829,1839
1874,1839,1837
1858,1865,1834
1856,1819,1808
1872,1815,1810
1846,1812,1840
1836,1783,1837
1860,1824,1808
1887,1827,1866
1845,1846,1872
1821,1823,1853
1846,1840,1837
1889,1808,1820
1874,1812,1815
1842,1847,1844
1862,1872,1845
1879,1872,1852
1854,1851,1845
1831,1843,1840
1842,1850,1846
1871,1843,1841
1872,1844,1835
1867,1851,1835
1856,1886,1840
1888,1949,1779
1870,1787,1829
1808,1718,1888
1780,1719,1863
1815,1747,1842
1840,1852,1870
1840,1818,1837
1850,1808,1841
1872,1836,1841
1870,1840,1846
1843,1838,1846
1855,1846,1846
1888,1862,1845
1884,1867,1841
1853,1855,1846
1835,1842,1845
1856,1851,1840
1867,1862,1843
1852,1857,1842
1830,1827,1846
1865,1947,1840
1886,1869,1815
1819,1702,1829
1808,1725,1854
1854,1772,1790
1872,1881,1847
1828,1840,1883
1818,1779,1859
1861,1803,1854
1878,1825,1844
1841,1838,1852
1840,1850,1863
1876,1853,1842
1872,1858,1840
1856,1853,1840
1856,1846,1842
1885,1849,1844
1893,1854,1840
1855,1867,1838
1835,1952,1810
1869,1814,1834
1819,1729,1858
1806,1721,1850
1838,1776,1841
1878,1813,1833
1893,1811,1806
1840,1808,1854
1846,1818,1847
1872,1861,1869
1873,1866,1856
1855,1854,1850
1869,1889,1845
1885,1890,1845
1869,1829,1840
1872,1833,1847
1858,1843,1840
1853,1814,1827
1872,1831,1831
1850,1803,1839
1831,1813,1843
1855,1862,1840
1858,1835,1821
1837,1774,1829
1853,1834,1845
1890,1834,1822
1856,1810,1853
1845,1815,1863
1857,1857,1847
1888,1879,1798
1873,1838,1840
1823,1819,1872
1855,1831,1868
1895,1831,1852
1874,1863,1846
1857,1840,1854
1856,1819,1842
1858,1779,1841
1842,1835,1840
1847,1851,1814
1833,1825,1871
1865,1858,1871
1868,1801,1846
1830,1813,1840
1843,1789,1840
1875,1808,1842
1871,1843,1860
1850,1886,1854
1843,1840,1837
1878,1861,1845
1875,1866,1847
1829,1791,1805
1859,1775,1827
1867,1808,1871
1853,1823,1866
1855,1843,1850
1862,1882,1847
1833,1794,1839
1837,1789,1839
1847,1805,1827
1863,1857,1845
1888,1859,1851
1876,1845,1843
1836,1835,1840
1853,1830,1838
1887,1845,1840
1883,1872,1846
1865,1920,1838
1855,1813,1839
1871,1851,1862
1849,1858,1827
1839,1808,1777
1825,1715,1854
1854,1756,1879
1870,1792,1857
1856,1807,1843
1858,1808,1840
1873,1821,1837
1841,1867,1851
1815,1840,1844
1841,1868,1840
1875,1840,1851
1879,1843,1854
1867,1872,1841
1847,1862,1843
1879,1811,1854
1882,1802,1850
1860,1810,1843
1872,1822,1831
1882,1856,1847
1855,1851,1888
1822,1792,1861
1856,1815,1849
1893,1888,1852
1847,1792,1841
1811,1835,1805
1873,1816,1791
1839,1783,1887
1831,1791,1890
1840,1808,1866
1863,1840,1857
1868,1845,1854
1870,1843,1850
1857,1851,1850
1856,1854,1859
1888,1873,1869
1873,1857,1856
1840,1854,1853
1861,1907,1857
1891,1815,1838
1858,1830,1852
1849,1802,1857
1859,1795,1793
1823,1738,1856
1821,1821,1874
1809,1792,1869
1827,1805,1861
1871,1817,1857
1877,1840,1851
1841,1842,1849
1840,1845,1855
1867,1850,1855
1866,1842,1854
1853,1840,1855
1850,1849,1857
1868,1856,1859
1857,1856,1856
1850,1883,1857
1856,2005,1859
1859,1756,1840
1867,1776,1853
1840,1817,1835
1855,1777,1822
1859,1772,1842
1828,1808,1893
1827,1812,1883
1841,1833,1865
1879,1872,1862
1865,1840,1872
1829,1808,1860
1839,1825,1851
1872,1871,1855
1863,1857,1853
1835,1821,1861
1855,1817,1864
1872,1837,1863
1867,1842,1863
1841,1845,1853
1882,1931,1855
1897,1856,1831
1840,1781,1854
1822,1778,1861
1854,1843,1856
1885,1859,1841
1845,1767,1838
1818,1806,1795
1831,1799,1811
1847,1829,1883
1849,1835,1882
1839,1836,1862
1866,1884,1863
1871,1830,1858
1866,1830,1851
1841,1809,1846
1859,1836,1855
1895,1872,1858
1898,1921,1863
1837,1777,1840
1853,1845,1843
1871,1818,1847
1838,1806,1840
1801,1797,1827
1829,1787,1840
1868,1806,1872
1873,1831,1861
1858,1809,1831
1841,1844,1854
1867,1871,1866
1866,1874,1862
1837,1829,1847
1870,1833,1809
1887,1840,1868
1871,1847,1877
1837,1849,1858
1858,1873,1843
1879,1866,1847
1857,1810,1840
1817,1824,1840
1846,1858,1841
1872,1919,1837
1858,1847,1840
1835,1776,1844
1856,1797,1846
1861,1768,1838
1863,1792,1861
1843,1808,1842
1852,1807,1839
1841,1792,1833
1841,1813,1840
1825,1821,1842
1853,1860,1823
1883,1856,1843
1855,1839,1872
1836,1834,1863
1839,1840,1856
1860,1846,1856
1875,1847,1853
1857,1840,1853
1835,1891,1849
1860,1876,1856
1845,1826,1853
1829,1848,1854
1855,1821,1850
1874,1841,1855
1846,1808,1856
1843,1861,1836
1829,1822,1839
1855,1815,1808
1840,1765,1846
1812,1797,1856
1843,1808,1881
1872,1819,1875
1846,1838,1840
1839,1820,1823
1844,1814,1871
1853,1845,1876
1845,1856,1878
1818,1851,1853
1847,1855,1845
1888,1858,1854
1871,1866,1857
1847,1874,1853
1868,1840,1855
1894,1894,1857
1864,1867,1857
1829,1833,1841
1837,1843,1837
1847,1746,1853
1872,1791,1821
1841,1776,1824
1813,1811,1866
1853,1840,1869
1872,1852,1856
1840,1843,1839
1866,1872,1790
1872,1833,1856
1846,1846,1874
1819,1834,1859
1853,1845,1855
1895,1857,1861
1874,1859,1854
1839,1857,1850
1872,1862,1855
1876,1895,1872
1824,1787,1851
1814,1821,1838
1842,1825,1841
1862,1808,1851
1882,1827,1843
1854,1854,1847
1842,1873,1839
1852,1781,1843
1859,1761,1808
1818,1829,1849
1857,1886,1868
1884,1902,1853
1862,1831,1846
1819,1824,1846
1837,1840,1847
1872,1869,1849
1878,1878,1843
1853,1839,1795
1863,1863,1842
1867,1847,1872
1865,1815,1857
1851,1858,1840
1831,1838,1839
1839,1759,1840
1862,1779,1846
1844,1811,1842
1856,1837,1851
1890,1866,1851
1898,1886,1837
1838,1836,1839
1846,1828,1853
1900,1809,1835
1871,1837,1856
1834,1859,1857
1866,1850,1844
1883,1859,1840
1865,1885,1855
1829,1864,1855
1841,1813,1852
1872,1869,1842
1871,1846,1852
1834,1831,1851
1841,1833,1840
1904,1840,1795
1888,1805,1843
1826,1899,1879
1833,1820,1872
1859,1745,1863
1861,1777,1855
1834,1809,1849
1858,1840,1845
1889,1817,1854
1894,1829,1865
1841,1842,1860
1844,1841,1857
1892,1847,1856
1877,1849,1835
1834,1887,1867
1840,1841,1862
1872,1829,1847
1870,1805,1820
1856,1835,1855
1874,1846,1866
1887,1872,1856
1866,1902,1825
1828,1787,1792
1838,1792,1861
1862,1830,1887
1861,1881,1872
1859,1835,1843
1842,1818,1843
1856,1822,1845
1857,1793,1846
1840,1797,1846
1845,1836,1851
1874,1840,1839
1872,1825,1852
1844,1849,1854
1844,1872,1858
1857,1835,1851
1865,1830,1841
1837,1827,1849
1847,1840,1861
1909,1915,1829
1877,1856,1790
1805,1783,1854
1825,1821,1884
1852,1866,1863
1876,1898,1849
1834,1846,1852
1825,1757,1847
1841,1762,1851
1852,1840,1850
1839,1840,1853
1840,1789,1854
1872,1813,1854
1872,1845,1834
1839,1814,1845
1828,1836,1858
1863,1840,1858
1892,1863,1842
1830,1840,1850
1829,1834,1856
1875,1822,1786
1870,1818,1851
1840,1825,1904
1843,1841,1874
1841,1840,1849
1842,1847,1841
1840,1899,1849
1844,1875,1840
1870,1823,1838
1836,1759,1853
1819,1757,1856
1851,1796,1856
1891,1843,1862
1872,1838,1855
1840,1815,1843
1856,1845,1843
1873,1842,1845
1865,1840,1845
1849,1822,1830
1861,1852,1835
1857,1823,1815
1830,1824,1878
1815,1831,1882
1856,1843,1861
1909,1935,1837
1858,1875,1871
1795,1775,1842
1821,1757,1855
1876,1887,1865
1857,1795,1861
1827,1759,1840
1840,1781,1839
1905,1849,1869
1899,1860,1859
1899,1927,1843
1927,1872,1847
1920,1874,1875
1870,1873,1847
1849,1818,1856
2072,2000,1963
2254,2012,1919
1929,1856,1875
1175,1920,1872
2082,1871,1898
2199,1747,1783
1285,1712,1859
0,1913,1985
841,2058,1980
0,1824,1869
0,1783,1808
0,1991,1872
0,1967,1970
707,1817,1984
1734,1808,1906
0,1940,1878
0,1925,1818
1082,1847,1770
4095,1975,1783
1572,1984,1856
726,2021,1909
2297,1887,1849
1161,1933,1893
2906,1835,1847
1498,2071,1763
3711,2097,1856
2270,1813,1707
1319,1574,1837
2081,1955,2003
3141,1825,1954
2649,1791,1841
1925,1743,1734
1803,1777,1777
1706,1936,1834
1072,1883,1843
1618,2085,1833
0,1951,1759
0,1745,1698
19,1931,1779
1263,2207,2000
1934,2135,2000
2096,1956,1953
2898,1749,1826
3927,1968,1664
825,1808,1806
4095,2057,2000
4095,1649,1796
2789,1637,1731
1844,1791,1830
1667,1697,1805
1792,1712,1824
1874,1775,1804
1885,1593,1776
1862,1767,1839
1845,1759,1680
1850,1728,1703
1854,1889,1743
1842,1968,1755
1850,1913,1809
1843,1942,1872
1847,1875,1959
1827,1974,1806
1843,1968,1726
1840,1809,1885
1840,1674,1753
1843,1765,1664
1842,1602,1765
1842,1820,1778
1825,1699,1633
1838,1706,1936
1840,1748,1969
1842,1727,1834
1834,1867,1711
1837,1808,1579
1842,1802,1648
2405,1744,1791
3678,2047,1823
3641,1884,1687
2910,1658,1633
3742,1744,1872
4095,2007,2016
4095,1822,1771
4095,1695,1782
4095,1767,1830
4095,2199,1855
4095,1680,1645
4095,1359,1638
4095,1610,1844
4095,1621,1642
4095,1600,1497
4095,1830,1607
4095,1774,1712
4095,1761,1626
4095,2011,1731
4095,1850,1631
4095,1490,1524
4095,1701,1691
4095,1984,1769
4095,1883,1787
2758,1600,1727
1750,1494,1834
1558,1732,1758
1727,1466,1407
1850,1585,1426
1712,1707,1461
1791,1808,1535
1905,1894,1566
1885,1779,1664
1799,1893,1759
1744,2031,1685
1808,1714,1311
1929,1627,1696
1971,1874,1898
1900,1849,1718
1920,1526,1498
415,1781,1680
1126,1790,1573
3061,1438,1479
224,1508,1629
0,1741,1552
0,1889,1645
896,1936,1557
2624,1657,1290
2255,1789,1515
2192,1808,1762
1730,1966,1628
1241,1856,1425
1769,1932,1645
1850,1794,1711
4095,1717,1749
4095,1803,1889
3513,1834,1861
2197,1817,1688
1677,1905,1611
1719,1742,1600
1841,1463,1470
1891,1586,1467
1876,1917,1586
1848,1765,1628
1823,1635,1610
1813,1904,1578
1850,1679,1535
1901,1703,1743
0,1794,1837
0,2098,1774
144,2005,1574
4095,1759,1535
4095,1627,1734
3538,1885,1765
2359,1813,1694
1890,1635,1515
1901,1715,1522
1766,1677,1743
1840,1779,1778
1904,1744,1617
1895,1662,1579
1859,1835,1670
1840,1836,1796
1851,1783,1748
2525,1630,1689
3618,1850,1655
4095,2066,1647
4095,1761,1703
4095,1697,1745
4095,1928,1853
4095,1965,1840
4095,1799,1687
4095,1562,1637
4095,1682,1795
4095,1839,1794
4095,1865,1707
4095,1767,1654
4095,1724,1736
4095,1626,1744
4095,1811,1920
4095,1764,1821
4095,1731,1787
4095,1707,1786
4095,1826,1751
4095,1851,1733
4095,1920,1719
4095,1981,1885
4095,2000,1919
4095,1655,1874
4095,1606,1709
4095,1553,1783
4095,1647,1846
4095,1882,1939
4095,1783,1838
4095,1826,1888
4095,1767,1635
4095,1719,1571
4095,1871,1601
4095,1824,1795
4095,1863,2069
4095,1978,2043
4095,1799,1953
4095,1728,1789
4095,1732,1712
4095,1718,1862
4095,1783,1781
4095,1693,1855
4095,1614,1823
4095,1741,1810
4095,1954,1968
4095,1895,1982
4095,1835,1851
4095,1897,1772
4095,2080,1874
4095,1856,1817
4095,1687,1827
4095,1757,1950
4095,1648,1905
4095,1629,1994
4095,1935,1904
4095,1938,1717
4095,1735,1712
4095,2079,1873
4095,1729,1921
4095,1575,1932
4095,1718,1889
4095,1682,1858
4095,1749,1830
4095,1919,1842
4095,2121,1883
4095,1937,1903
4095,1648,1922
4095,1883,2061
4095,2039,2005
4095,1822,1908
4095,1606,2026
4095,1744,1923
4095,1801,1635
4095,1721,1779
4095,1858,2143
4095,1984,2020
4095,1758,1713
4095,1737,1777
4095,1903,1838
4095,1927,1834
4095,1875,1910
4095,2117,2131
4095,2005,2194
4095,1647,2025
4095,1695,1965
4095,1879,2019
4095,1788,1961
4095,1769,1874
4095,1951,1915
4095,1776,1838
4095,1610,1755
4095,1844,1750
4095,1957,1929
4095,1968,2103
4095,1890,2000
4095,1962,1904
4095,1731,1725
4095,1745,1997
4095,2145,2153
4095,1851,1936
4095,1792,2027
4095,1805,2093
4095,1950,2013
4095,1690,1903
4095,1758,1883
4095,1831,2017
4095,1980,1909
4095,1744,1703
4095,1585,1727
4095,1930,2023
4095,2028,2045
4095,1943,2021
4095,2163,1948
4095,2096,1997
4095,1832,2121
4095,1790,2149
4095,1655,2016
4095,1771,1996
4095,1747,1975
4095,1813,1903
4095,1818,1774
4095,1913,1813
4095,1905,1802
4095,1888,1792
4095,1990,1891
4095,1877,1936
4095,1851,1897
4095,1938,2031
4095,2047,2134
4095,2031,2014
4095,1757,1933
4095,1664,2000
4095,1691,2016
4095,1984,2065
4095,1910,1870
4095,1955,1881
3840,1895,1711
3253,1733,1721
3294,1750,2004
4095,1852,1827
3921,1906,1841
3358,1809,1962
3339,1922,1971
3519,2086,2046
3910,2094,1936
3323,1949,1904
2743,1728,1973
3049,1882,2238
3683,1667,2006
3040,1811,1811
2817,1939,1810
3206,2112,1919
2757,1649,1854
2779,1757,1717
2622,1807,1712
2508,1827,1920
3031,2026,2034
2877,2139,2081
2728,2125,1916
2610,1968,1919
2739,1937,1918
2608,1840,1950
2556,1695,1970
2592,1754,1916
2355,1936,1814
2218,1757,1936
2222,1889,2096
2160,1937,1878
2362,1933,1663
2387,1909,1824
2455,1941,1927
2289,1993,1747
2304,2005,1968
2427,2085,2205
2030,2099,2031
1797,1751,1937
2150,1955,1835
2043,1829,1679
1710,1646,1887
2039,1822,2176
2218,2062,2032
1735,2065,1744
1654,1800,1600
1675,1741,1873
1877,1967,2025
2295,1986,1822
1637,1872,1805
1767,1991,1922
2072,2143,2097
1872,2174,2038
1806,1778,1907
1317,1641,1893
1216,1727,1803
1360,1919,1917
1598,1994,1899
1575,1979,1920
1808,1984,1875
1648,1890,1727
1667,1808,1762
1408,1969,1953
1261,2058,2011
1488,2053,2030
1467,1990,1941
1264,2007,1904
1165,1916,1858
1871,2006,2047
2016,2159,2064
1454,1902,1813
595,1487,1743
631,1682,1897
1178,1905,2026
1585,2019,1856
1104,1842,1680
1008,1979,1887
1375,2079,1918
1311,2013,1856
1071,1958,1918
954,1899,1940
1152,2091,1831
1452,2143,1917
1264,2047,2000
882,1994,1969
914,1671,1915
1103,1664,1946
977,1902,1920
869,1874,1978
773,1817,1849
817,1911,1747
1125,1999,1792
950,1950,1804
1011,1881,1731
672,1978,1777
419,1985,1925
331,2077,2064
687,2032,2026
1167,2034,1943
1062,1826,1885
832,1872,2062
863,1806,1904
1041,1945,1827
845,1682,1913
531,1745,2031
550,1823,1874
610,1766,1663
719,1887,1681
1200,2145,1740
814,1931,1782
530,1795,1776
721,1990,1947
1071,2100,2002
845,2064,2064
804,1966,2066
1195,2138,1956
645,1791,1885
291,1687,1879
402,1664,1885
826,1726,1941
926,1957,1900
677,1949,1825
494,1859,1522
668,1954,1486
477,1828,1683
772,1810,1982
872,1978,2023
487,1950,2100
845,2085,2146
1039,2223,1950
839,1911,1709
484,1693,1647
309,1723,1822
496,1777,1962
963,1954,2016
623,1776,1715
400,1839,1705
432,1842,1691
438,1814,1680
684,1969,1811
1215,2128,1963
1037,2111,1871
1023,2134,1786
363,1716,1867
243,1914,1886
509,1945,1750
543,1665,1788
577,1693,2023
406,1744,1920
270,1735,1819
656,1845,1726
799,2032,1643
449,1918,1711
535,1840,1693
592,1872,1683
707,2039,1755
764,1882,1853
511,2131,1966
1039,2207,1984
531,1677,1967
732,1731,1977
245,1680,1818
28,1659,1808
448,1811,1739
496,1830,1619
432,1761,1653
622,1921,1766
720,2031,1654
700,2015,1628
554,1679,1812
531,1552,1821
573,1771,1670
663,2003,1781
805,2025,1989
1053,2006,2030
231,1760,1727
193,1751,1712
230,1703,1776
635,1876,1680
902,1738,1740
435,1731,1817
720,1930,1701
1072,1954,1610
595,1811,1676
95,1784,1755
658,2043,1909
752,1978,1805
795,1965,1771
235,1871,1631
639,1937,1651
755,1699,1745
592,1480,1987
835,1809,1918
719,1904,1642
204,1763,1370
547,1799,1461
667,1775,1648
637,1808,1744
321,1840,1655
388,1895,1708
832,2077,1808
1963,2479,1809
889,2192,1639
177,1558,1875
240,1400,1806
83,1535,1562
384,1588,1534
727,1970,1746
815,1898,1794
1150,1975,1789
273,1693,1517
0,1491,1355
581,1711,1360
1861,2058,1501
934,1752,1385
0,1766,1755
339,1913,1906
894,2282,1977
1193,2285,1981
1063,1987,1616
546,1739,1776
607,1680,1741
1104,1979,1730
1264,1814,1455
23,1571,1437
557,1781,1667
812,1846,1261
460,1840,1077
190,1701,1319
833,1899,1857
1127,2101,1921
1023,2128,1646
912,2086,1587
432,1699,1534
476,1787,1662
1768,1995,1914
1473,1824,1746
0,1680,1663
0,1898,1687
635,1665,1630
911,1647,1565
919,1773,1453
854,1755,1339
841,1808,1366
866,2066,1611
876,2159,1594
873,1961,1465
1232,2033,1757
752,1959,1707
677,1878,1742
691,1629,1754
679,1623,1751
757,1777,1772
960,1985,1698
727,1795,1472
678,1921,1475
912,1847,1358
803,1535,1129
882,1730,1501
1003,1992,1844
1286,2037,1923
944,2044,1712
624,1995,1535
1387,2043,1407
1282,1819,1470
181,1614,1673
481,1731,1797
885,1744,1607
560,1761,1468
882,1856,1535
1164,1903,1562
970,1856,1840
1039,1746,1663
875,1712,1424
775,1874,1353
752,1841,1243
1470,2086,1414
1494,1994,1428
646,1831,1390
297,1831,1869
784,1855,1965
1139,1975,1658
1307,2150,1394
1207,1919,1622
1006,1579,1767
704,1506,1617
599,1488,1379
1121,1882,1456
1244,1931,1505
1328,1936,1443
1191,1968,1583
891,1903,1505
626,1729,1398
1178,1931,1461
874,1840,1695
1140,1878,1825
1506,2285,1648
1232,2064,1614
1320,1634,1638
1116,1552,1606
727,1723,1518
1081,1731,1584
1152,1750,1686
1101,1867,1365
1487,1979,1233
1006,1903,1296
753,1743,1660
1171,1718,1671
1296,1887,1476
1527,2045,1514
1390,1991,1653
1062,2017,1790
1399,2091,1618
1083,1757,1450
643,1498,1421
990,1678,1635
1508,1712,1857
1378,1882,1684
1191,1866,1626
1068,1840,1442
928,1805,1350
1276,1922,1650
1484,1934,1591
1195,1843,1534
1373,1869,1633
1620,1954,1663
1424,2061,1873
1019,1893,1856
1141,1903,1680
1247,1764,1706
1466,1744,1485
1296,1698,1555
1177,1808,1733
1454,2035,1734
1303,1798,1606
861,1569,1678
1043,1780,1655
1246,1959,1490
1519,2117,1622
1792,2181,1810
1146,1693,1731
1096,1602,1756
1426,2022,1761
1735,2193,1834
1436,1856,2013
1407,1709,1887
2090,1837,1867
1311,1875,1626
827,1593,1616
1569,1771,1731
1245,1750,1665
1072,1686,1600
1104,1791,1533
1535,1936,1819
1523,1975,1791
1653,2064,1815
1266,1761,1915
1194,1841,1905
1700,2029,1965
1649,2090,1940
1309,1726,1728
1140,1477,1854
1215,1630,2035
1515,1847,2022
1459,1867,1845
1279,1813,1625
1747,1863,1392
1454,1868,1484
1052,1824,1680
1350,1899,1963
1414,1886,2131
1561,2097,2064
2037,2179,2083
1398,1673,1953
1266,1840,1897
1232,1645,1904
1264,1695,1984
1127,1614,1978
1232,1853,1991
