1824,1814,1861
1823,1819,1856
1809,1816,1842
1835,1826,1840
1847,1834,1839
1836,1812,1851
1801,1798,1846
1817,1819,1856
1849,1840,1854
1851,1847,1851
1830,1851,1844
1840,1860,1843
1865,1837,1840
1855,1833,1856
1799,1837,1856
1836,1855,1809
1868,1904,1829
1818,1798,1815
1776,1730,1872
1744,1751,1879
1795,1783,1852
1809,1769,1851
1799,1793,1841
1814,1813,1847
1842,1840,1845
1840,1840,1845
1814,1840,1843
1831,1849,1847
1858,1861,1850
1843,1859,1849
1823,1847,1845
1834,1853,1847
1872,1873,1856
1898,1931,1857
1811,1888,1840
1778,1762,1840
1808,1762,1850
1813,1807,1847
1799,1813,1846
1814,1825,1850
1858,1879,1859
1839,1847,1855
1821,1826,1840
1834,1840,1842
1856,1860,1851
1851,1862,1851
1833,1870,1851
1856,1890,1853
1856,1840,1854
1855,1828,1828
1803,1790,1818
1790,1841,1857
1840,1858,1859
1840,1793,1838
1786,1774,1844
1808,1813,1851
1835,1835,1855
1831,1839,1854
1834,1845,1853
1827,1869,1847
1859,1875,1853
1853,1847,1851
1818,1810,1853
1833,1818,1855
1871,1838,1856
1879,1897,1851
1842,1833,1833
1814,1775,1772
1792,1744,1857
1819,1774,1873
1809,1790,1858
1809,1811,1855
1836,1823,1850
1838,1850,1830
1807,1771,1840
1818,1767,1856
1858,1811,1853
1850,1808,1845
1822,1802,1842
1835,1815,1844
1868,1829,1850
1847,1835,1841
1831,1834,1830
1849,1807,1834
1847,1819,1835
1795,1830,1834
1777,1718,1814
1789,1709,1842
1827,1759,1863
1840,1809,1856
1840,1787,1796
1813,1734,1811
1836,1797,1870
1833,1815,1872
1815,1810,1858
1839,1822,1856
1858,1822,1856
1845,1814,1845
1831,1808,1835
1842,1858,1839
1870,1859,1839
1841,1766,1840
1792,1744,1834
1808,1866,1808
1808,1742,1826
1791,1707,1840
1794,1759,1840
1806,1751,1836
1843,1780,1838
1840,1793,1840
1813,1798,1844
1834,1808,1843
1859,1815,1841
1843,1819,1846
1824,1817,1841
1839,1823,1847
1859,1826,1854
1855,1835,1840
1851,1865,1840
1887,1856,1808
1879,1751,1789
1754,1694,1867
1735,1741,1878
1839,1835,1846
1851,1841,1827
1803,1747,1863
1778,1753,1862
1808,1791,1865
1853,1817,1856
1857,1853,1843
1817,1787,1842
1827,1792,1851
1862,1815,1852
1856,1824,1854
1833,1820,1846
1841,1838,1843
1864,1843,1853
1847,1842,1846
1819,1803,1846
1819,1792,1843
1872,1808,1850
1846,1801,1841
1795,1793,1840
1804,1805,1843
1840,1855,1845
1834,1807,1831
1799,1794,1855
1819,1839,1862
1863,1887,1852
1840,1817,1840
1810,1773,1840
1819,1778,1855
1856,1808,1856
1840,1814,1850
1825,1817,1843
1839,1875,1851
1859,1843,1854
1851,1802,1849
1827,1810,1843
1830,1831,1844
1839,1811,1856
1843,1820,1846
1825,1856,1841
1858,1785,1792
1854,1782,1843
1803,1808,1872
1794,1787,1854
1837,1808,1811
1817,1803,1835
1801,1798,1866
1789,1825,1869
1823,1807,1855
1859,1790,1855
1853,1795,1849
1820,1808,1849
1838,1838,1857
1872,1847,1858
1850,1829,1851
1823,1829,1842
1825,1810,1847
1863,1819,1856
1880,1834,1858
1821,1882,1851
1793,1810,1840
1826,1770,1851
1842,1790,1851
1814,1811,1849
1843,1872,1848
1858,1858,1808
1830,1789,1848
1796,1790,1872
1817,1814,1860
1857,1837,1858
1856,1828,1856
1840,1842,1849
1847,1824,1845
1865,1839,1858
1853,1826,1856
1840,1840,1817
1835,1815,1856
1862,1831,1873
1867,1873,1860
1821,1805,1847
1808,1780,1845
1827,1787,1840
1837,1841,1841
1799,1808,1858
1835,1776,1861
1867,1831,1867
1858,1839,1855
1809,1787,1847
1810,1781,1856
1850,1807,1859
1851,1819,1854
1829,1822,1855
1842,1838,1860
1872,1855,1863
1838,1821,1862
1818,1809,1855
1852,1833,1857
1863,1840,1870
1873,1893,1849
1843,1773,1794
1809,1759,1852
1823,1757,1897
1825,1829,1890
1808,1808,1882
1827,1767,1876
1872,1791,1873
1869,1805,1872
1845,1808,1872
1840,1823,1875
1886,1835,1881
1856,1825,1874
1827,1823,1873
1851,1831,1874
1884,1857,1878
1858,1830,1872
1854,1809,1871
1835,1809,1870
1821,1819,1872
1835,1872,1876
1824,1830,1874
1838,1808,1871
1903,1872,1867
1841,1798,1861
1776,1707,1870
1807,1744,1882
1857,1809,1879
1872,1865,1883
1840,1781,1873
1840,1788,1876
1867,1819,1882
1865,1831,1881
1840,1822,1879
1842,1829,1884
1887,1830,1887
1885,1856,1829
1854,1808,1850
1854,1795,1908
1831,1851,1920
1829,1813,1892
1792,1791,1885
1818,1838,1891
1882,1863,1893
1846,1801,1891
1828,1808,1888
1838,1783,1898
1859,1840,1904
1855,1834,1894
1854,1840,1891
1846,1808,1909
1856,1777,1905
1841,1793,1899
1827,1813,1889
1850,1838,1902
1882,1844,1904
1858,1840,1894
1844,1841,1891
1843,1843,1895
1872,1846,1875
1850,1852,1892
1811,1839,1908
1843,1840,1911
1852,1840,1897
1847,1806,1841
1808,1824,1902
1834,1822,1926
1851,1843,1920
1871,1889,1902
1822,1795,1891
1833,1838,1890
1859,1787,1907
1850,1791,1909
1828,1800,1909
1840,1834,1904
1865,1842,1904
1856,1847,1903
1852,1873,1900
1856,1820,1901
1862,1818,1905
1851,1825,1904
1833,1853,1901
1857,1819,1878
1829,1834,1917
1808,1835,1920
1822,1843,1909
1840,1856,1906
1859,1877,1907
1839,1815,1908
1815,1833,1909
1840,1830,1907
1877,1853,1862
1857,1830,1907
1815,1808,1929
1839,1826,1926
1865,1893,1918
1850,1837,1910
1842,1829,1904
1855,1840,1910
1878,1902,1910
1841,1776,1906
1807,1763,1902
1830,1819,1906
1871,1856,1919
1861,1856,1906
1831,1820,1874
1842,1843,1906
1840,1884,1931
1830,1863,1919
1811,1825,1911
1844,1838,1918
1871,1879,1920
1849,1842,1921
1826,1837,1913
1856,1867,1919
1858,1827,1925
1851,1828,1927
1843,1853,1877
1842,1841,1925
1857,1888,1961
1838,1855,1946
1805,1818,1922
1826,1789,1932
1871,1823,1943
1901,1851,1936
1797,1825,1925
1802,1826,1935
1843,1849,1942
1852,1857,1943
1840,1854,1936
1856,1869,1937
1871,1872,1936
1857,1875,1936
1833,1821,1936
1843,1827,1937
1884,1854,1941
1865,1872,1936
1849,1847,1936
1834,1860,1936
1856,1855,1947
1843,1823,1943
1814,1826,1940
1838,1864,1941
1862,1818,1919
1842,1830,1947
1824,1846,1959
1851,1858,1949
1898,1875,1951
1860,1855,1937
1823,1835,1935
1833,1858,1937
1874,1904,1934
1867,1841,1930
1815,1825,1937
1841,1899,1938
1877,1855,1935
1855,1807,1887
1808,1725,1920
1823,1771,1948
1871,1827,1942
1873,1814,1924
1810,1794,1915
1815,1818,1917
1845,1860,1921
1851,1821,1915
1827,1807,1922
1850,1823,1925
1872,1843,1926
1875,1846,1919
1847,1842,1906
1840,1831,1899
1852,1850,1903
1840,1846,1923
1819,1834,1909
1841,1849,1897
1867,1839,1906
1856,1809,1904
1822,1823,1901
1853,1867,1901
1862,1846,1904
1849,1811,1897
1845,1826,1879
1872,1919,1872
1872,1790,1856
1822,1742,1904
1797,1774,1904
1839,1808,1901
1867,1830,1891
1859,1835,1886
1840,1839,1878
1843,1846,1885
1872,1897,1895
1860,1849,1887
1845,1825,1881
1867,1823,1874
1856,1840,1877
1825,1845,1873
1803,1834,1866
1823,1861,1856
1870,1821,1847
1843,1837,1882
1821,1827,1876
1853,1819,1878
1891,1856,1872
1843,1813,1857
1810,1790,1861
1837,1814,1869
1867,1841,1869
1866,1879,1858
1829,1840,1854
1847,1834,1858
1869,1851,1857
1866,1823,1807
1797,1739,1854
1810,1774,1877
1861,1819,1874
1842,1839,1847
1813,1801,1841
1829,1809,1856
1859,1830,1863
1849,1827,1853
1830,1824,1851
1845,1837,1855
1869,1840,1858
1859,1829,1849
1830,1812,1845
1842,1819,1851
1870,1830,1856
1862,1870,1840
1827,1792,1840
1836,1765,1840
1878,1803,1836
1857,1775,1808
1790,1757,1842
1781,1770,1855
1843,1837,1856
1853,1818,1851
1820,1778,1840
1839,1775,1840
1847,1787,1841
1833,1777,1836
1823,1776,1828
1840,1790,1840
1876,1818,1808
1858,1788,1834
1822,1789,1861
1844,1805,1855
1875,1886,1846
1858,1821,1829
1824,1745,1828
1837,1715,1841
1851,1762,1840
1841,1797,1828
1818,1774,1807
1837,1787,1825
1842,1792,1852
1854,1776,1840
1818,1766,1838
1825,1776,1836
1852,1793,1837
1850,1802,1839
1840,1813,1837
1840,1798,1835
1871,1840,1840
1860,1797,1826
1825,1776,1827
1858,1808,1829
1877,1808,1840
1847,1778,1835
1809,1814,1828
1846,1834,1786
1855,1730,1843
1841,1744,1858
1854,1791,1841
1863,1873,1836
1830,1751,1822
1807,1751,1823
1802,1808,1851
1825,1803,1854
1862,1814,1843
1859,1808,1840
1826,1796,1837
1839,1808,1840
1865,1831,1841
1861,1827,1835
1840,1825,1835
1855,1840,1833
1873,1846,1840
1854,1804,1833
1850,1822,1827
1872,1869,1823
1905,1899,1786
1824,1733,1819
1773,1725,1854
1840,1785,1846
1879,1821,1847
1830,1819,1831
1808,1807,1827
1838,1841,1839
1881,1815,1841
1854,1813,1841
1834,1824,1836
1843,1838,1840
1878,1850,1843
1868,1841,1840
1847,1806,1808
1856,1881,1847
1887,1842,1856
1865,1827,1847
1835,1824,1840
1825,1815,1840
1839,1827,1845
1838,1840,1827
1821,1810,1833
1845,1833,1843
1881,1824,1841
1870,1851,1831
1822,1831,1834
1830,1792,1840
1859,1827,1838
1878,1807,1831
1819,1819,1834
1823,1815,1839
1872,1835,1847
1856,1837,1840
1812,1843,1834
1823,1830,1822
1853,1820,1840
1867,1856,1814
1859,1819,1808
1822,1809,1861
1840,1840,1872
1845,1895,1849
1823,1797,1814
1845,1807,1828
1867,1857,1862
1853,1857,1855
1833,1855,1847
1852,1850,1840
1856,1866,1841
1829,1842,1837
1808,1823,1831
1842,1831,1841
1874,1819,1843
1847,1824,1845
1844,1833,1840
1841,1852,1842
1863,1857,1842
1857,1869,1840
1835,1857,1840
1846,1844,1845
1879,1853,1845
1867,1840,1843
1842,1840,1835
1844,1825,1840
1856,1841,1851
1862,1893,1843
1840,1840,1839
1860,1807,1843
1850,1809,1851
1815,1835,1847
1819,1865,1849
1838,1858,1843
1855,1846,1839
1845,1818,1840
1834,1818,1839
1849,1841,1846
1873,1856,1851
1857,1851,1849
1843,1851,1847
1865,1872,1851
1898,1899,1823
1840,1833,1840
1792,1834,1856
1822,1815,1862
1856,1840,1856
1842,1808,1842
1829,1819,1839
1843,1857,1849
1872,1838,1850
1855,1828,1844
1825,1833,1841
1856,1847,1850
1879,1875,1853
1850,1904,1843
1811,1813,1841
1839,1823,1847
1858,1840,1847
1842,1846,1853
1840,1849,1842
1844,1859,1839
1872,1905,1847
1872,1851,1846
1835,1827,1842
1831,1838,1849
1863,1850,1847
1856,1851,1840
1838,1835,1842
1846,1827,1781
1842,1771,1831
1819,1824,1875
1810,1840,1872
1846,1837,1865
1857,1819,1854
1835,1829,1851
1814,1831,1851
1856,1847,1853
1865,1859,1856
1854,1853,1847
1851,1854,1840
1845,1856,1852
1861,1862,1853
1855,1854,1849
1837,1903,1841
1845,1850,1846
1870,1840,1854
1867,1877,1845
1825,1821,1842
1857,1831,1855
1867,1871,1851
1847,1852,1843
1815,1769,1845
1813,1808,1854
1852,1838,1858
1857,1839,1854
1836,1837,1850
1845,1840,1855
1872,1856,1859
1857,1851,1851
1837,1856,1847
1851,1874,1862
1873,1859,1861
1863,1840,1846
1855,1840,1846
1857,1850,1855
1893,1882,1862
1862,1840,1829
1828,1797,1799
1839,1822,1855
1855,1851,1889
1843,1842,1872
1835,1907,1857
1829,1823,1856
1855,1806,1857
1879,1896,1850
1842,1840,1837
1835,1785,1845
1843,1805,1855
1837,1823,1853
1817,1840,1855
1856,1844,1853
1872,1856,1858
1852,1857,1846
1834,1856,1846
1853,1861,1850
1873,1872,1857
1872,1872,1855
1842,1855,1846
1829,1840,1835
1838,1838,1841
1837,1818,1840
1817,1801,1836
1839,1827,1838
1858,1851,1846
1847,1856,1845
1830,1849,1840
1840,1846,1837
1877,1858,1841
1868,1849,1840
1823,1837,1840
1835,1857,1840
1872,1891,1854
1861,1871,1842
1841,1861,1839
1835,1827,1838
1807,1825,1847
1829,1866,1841
1804,1776,1802
1826,1751,1838
1841,1806,1875
1835,1826,1868
1820,1833,1849
1846,1847,1851
1872,1858,1856
1857,1858,1847
1839,1850,1846
1856,1870,1856
1879,1867,1857
1863,1847,1854
1831,1843,1850
1843,1841,1846
1842,1835,1846
1865,1872,1842
1821,1883,1843
1808,1799,1844
1835,1797,1855
1833,1802,1828
1825,1835,1840
1840,1877,1870
1871,1846,1875
1862,1848,1856
1813,1839,1857
1809,1851,1866
1835,1860,1867
1840,1847,1858
1818,1851,1855
1829,1856,1851
1870,1876,1854
1867,1886,1839
1815,1779,1845
1839,1811,1829
1855,1837,1837
1815,1792,1872
1808,1814,1873
1821,1811,1861
1855,1826,1853
1840,1838,1849
1813,1840,1853
1835,1855,1856
1856,1860,1860
1841,1851,1855
1814,1846,1853
1837,1873,1866
1862,1846,1867
1843,1843,1859
1831,1861,1847
1865,1897,1858
1889,1792,1855
1822,1799,1841
1771,1804,1850
1802,1825,1854
1841,1858,1851
1825,1822,1830
1800,1791,1841
1819,1826,1870
1856,1854,1872
1862,1845,1857
1824,1838,1852
1837,1844,1854
1861,1856,1858
1853,1855,1855
1829,1854,1849
1851,1870,1851
1877,1888,1857
1840,1827,1850
1840,1872,1792
1878,1883,1850
1845,1774,1863
1785,1728,1854
1789,1770,1843
1830,1821,1845
1871,1834,1848
1857,1818,1840
1808,1822,1841
1815,1840,1845
1851,1851,1845
1850,1845,1842
1832,1845,1843
1847,1851,1849
1876,1856,1847
1872,1855,1842
1837,1867,1840
1840,1847,1841
1848,1833,1845
1838,1813,1840
1822,1872,1836
1839,1867,1840
1842,1789,1840
1840,1801,1840
1843,1872,1839
1842,1839,1841
1849,1814,1849
1849,1837,1842
1817,1810,1840
1839,1813,1840
1862,1841,1846
1841,1825,1834
1828,1854,1827
1847,1840,1833
1857,1829,1846
1829,1835,1823
1829,1838,1803
1831,1837,1868
1869,1839,1874
1851,1863,1853
1814,1840,1841
1816,1829,1839
1844,1851,1841
1837,1830,1840
1815,1835,1841
1839,1849,1843
1871,1878,1842
1856,1855,1838
1836,1856,1840
1825,1819,1840
1838,1792,1840
1846,1799,1835
1821,1815,1837
1837,1879,1840
1869,1875,1847
1835,1795,1840
1818,1799,1840
1840,1830,1840
1859,1821,1848
1835,1808,1844
1851,1833,1842
1856,1831,1843
1840,1854,1851
1811,1825,1842
1811,1827,1841
1857,1845,1822
1862,1840,1829
1823,1839,1872
1810,1851,1877
1834,1856,1865
1850,1831,1860
1825,1839,1850
1822,1818,1847
1835,1813,1857
1854,1825,1865
1842,1851,1856
1835,1861,1855
1834,1829,1853
1872,1817,1853
1871,1834,1855
1808,1813,1844
1815,1840,1847
1835,1795,1861
1823,1794,1855
1835,1814,1855
1840,1856,1855
1858,1840,1856
1854,1835,1856
1823,1835,1846
1810,1808,1852
1836,1824,1853
1830,1830,1852
1814,1840,1849
1839,1863,1859
1867,1881,1858
1851,1849,1846
1807,1827,1851
1815,1824,1855
1844,1858,1861
1850,1840,1847
1813,1826,1844
1825,1826,1847
1840,1812,1857
1840,1825,1835
1851,1826,1808
1839,1831,1866
1859,1878,1871
1862,1802,1859
1857,1835,1868
1807,1783,1851
1810,1775,1840
1828,1795,1845
1823,1803,1849
1845,1830,1853
1870,1842,1853
1858,1855,1854
1835,1838,1847
1846,1829,1853
1862,1844,1856
1863,1861,1852
1855,1834,1857
1858,1888,1869
1867,1869,1869
1828,1783,1854
1779,1783,1849
1823,1808,1857
1882,1894,1865
1938,1904,1872
2026,1903,1905
2014,1860,1825
1776,1747,1850
1467,1803,1890
1821,1840,1878
1935,1858,1850
1742,1838,1885
994,2042,1907
2320,2295,2015
2604,2128,1961
2082,1668,1790
1781,1697,1858
1760,1853,1906
1811,1766,1845
1845,1765,1822
1853,1969,1835
1834,1819,1891
1828,1787,1930
1835,1645,1895
1837,1684,1869
1840,1795,1879
1831,1769,1889
1838,1777,1904
1835,1682,1894
1834,1696,1967
1831,1601,1902
1837,1495,1895
1834,1488,1854
1836,1535,1831
1840,1585,1834
1823,1471,1840
1830,1286,1805
1834,1289,1717
1837,1370,1680
1875,1430,1662
1872,1339,1739
1843,1563,1765
1828,1465,1787
1653,1207,1696
1713,1215,1669
1931,1365,1650
1847,1433,1627
1922,1456,1663
1747,1335,1626
1903,1421,1659
1909,1401,1607
1983,1361,1673
1791,1265,1629
1808,1264,1535
1825,1279,1535
1779,1408,1609
2014,1510,1586
1873,1357,1590
1535,1220,1535
1741,1242,1648
1983,1430,1635
2105,1489,1642
2047,1467,1530
1769,1327,1535
1871,1328,1456
1931,1359,1517
1889,1414,1630
1707,1406,1600
1744,1437,1534
1904,1435,1621
2256,1638,1683
1897,1410,1604
1578,1345,1508
1761,1274,1501
1819,1422,1511
1936,1329,1687
2032,1420,1653
1986,1498,1586
1782,1456,1658
1904,1406,1631
1736,1585,1601
1872,1392,1573
1918,1219,1574
1827,1408,1599
2163,1700,1853
2032,1591,1754
1947,1589,1600
1950,1591,1535
1857,1520,1725
2128,1506,1830
1916,1305,1515
1599,1306,1462
1535,1411,1588
1856,1468,1783
1789,1397,1605
1950,1629,1651
1793,1394,1644
1597,1399,1589
1765,1526,1693
2142,1647,1789
2180,1616,1698
1867,1585,1668
1923,1573,1714
1763,1526,1683
1920,1497,1673
1921,1634,1692
1954,1535,1654
1712,1396,1675
1855,1467,1680
1857,1408,1696
1871,1607,1836
1718,1425,1731
1890,1520,1673
1728,1563,1600
1776,1655,1698
2213,1855,1806
2287,1616,1738
1597,1457,1715
1664,1691,1747
1920,1693,1683
1779,1511,1601
1833,1531,1806
2252,1915,1815
1946,1499,1690
1942,1469,1750
1654,1653,1904
1751,1507,1871
1813,1502,1804
1765,1749,1798
1673,1623,1637
1837,1535,1665
2057,1706,1731
2269,1875,1793
1923,1571,1676
1569,1558,1645
1798,1709,1747
2338,1877,1769
1990,1634,1750
1821,1555,1846
2470,1631,1926
2201,1664,1828
1265,1699,1746
1263,1658,1840
2147,1726,1963
1870,1875,1813
1715,1725,1744
1744,1770,1861
1707,1746,1869
1735,1392,1787
1959,1746,1808
1869,1776,1752
1552,1600,1696
1872,1839,1839
2160,1986,1901
1869,1729,1737
1741,1845,1680
2214,1723,1687
1901,1670,1706
1294,1808,1782
1639,1983,1865
2192,2013,1844
1936,1773,1834
1671,1535,1792
1793,1619,1735
1925,1863,1885
1811,1999,1808
1806,1733,1648
1890,1773,1767
1872,1968,1830
1671,1779,1746
1723,1900,1728
2128,2160,1621
2145,2023,1706
1431,1680,1786
1602,1809,1743
2007,1941,1610
1763,1787,1577
1755,1924,1631
2381,2095,1786
1830,2015,1633
1373,1790,1517
1703,1857,1833
2389,2139,1959
2072,2005,1772
1506,1921,1699
1657,2001,1643
2117,2163,1642
1945,1739,1706
1580,1674,1615
1609,1837,1660
1679,2005,1679
1975,2074,1661
1851,2094,1711
1535,1957,1588
1769,2055,1734
2037,2001,1712
1936,2131,1680
1966,1899,1681
2209,2032,1839
2289,2304,1869
1248,1865,1710
1395,1882,1699
1743,1840,1680
1694,1980,1680
1854,1942,1808
1843,2025,1740
1792,2000,1670
1995,2077,1722
2032,2078,1719
1805,2000,1710
1711,2030,1775
2143,2177,1744
1966,2097,1725
1660,2022,1807
1671,2055,1888
1872,1962,1861
1904,2035,1873
2139,2210,1734
1908,2015,1602
1309,1873,1758
1379,1783,1743
1804,1957,1792
1925,2135,1855
2073,1937,1712
1983,2033,1743
2096,2224,1703
1413,1978,1606
1301,1911,1756
1797,2082,1936
2118,2317,1885
1911,2323,1867
1935,2135,1883
1927,2128,1862
1953,1821,1760
1705,1717,1821
1488,1851,1841
1886,1974,1829
1687,2123,1787
1586,1998,1790
2157,2164,1847
2045,2181,1715
1399,2009,1677
1638,2081,1711
1958,2197,1845
2176,2265,1993
1584,1771,1835
1535,1859,1859
1969,2087,1869
1810,2035,1677
1658,1822,1759
1884,2061,1833
1971,2163,1865
2325,2285,2001
1875,2175,1916
1420,1799,1734
1572,1914,1739
2144,2192,1821
1712,1961,1794
1655,1934,1952
1626,1968,1884
1923,2177,1885
1739,2042,1743
1639,1964,1797
2271,2237,1961
1831,2038,1844
1327,1809,1808
1642,1917,1921
2057,2141,1946
1961,2128,1854
2004,2159,1864
2077,2095,1779
1744,2042,1840
1434,1791,1871
1744,1935,1952
2152,2075,1935
1584,1981,1786
1516,2090,1827
1985,2231,1883
1779,2010,1855
1873,1993,1858
2000,2076,1893
1904,1991,1882
1851,2128,1986
1776,2067,1858
1672,2157,1915
1641,1946,1984
1743,1826,1933
1893,1827,1943
1986,1980,1865
1971,2010,1776
1520,1936,1796
1669,1984,1862
1651,1964,1871
1807,2026,1860
1954,2098,1907
2079,2112,1970
1902,2135,1802
1706,2030,1962
1735,2096,2047
1945,2155,1891
1851,1931,1936
1904,2096,1971
1808,1933,1901
1927,1858,1933
1859,1840,1829
1535,1917,1904
1840,2062,1894
1743,2065,1813
1851,2097,1826
1793,2015,1904
1989,2037,1968
1891,2032,1973
1606,1965,1946
1903,2181,2032
2074,2247,1897
1865,1853,1766
1499,1802,1941
1703,1797,2038
2370,2035,2000
1705,1965,1833
1367,1838,1786
1803,2032,1884
1741,2067,1947
1969,2042,1936
2080,1999,1883
1682,1995,1915
1867,2027,1969
1799,2128,1826
1995,1949,1920
1725,2059,1985
1514,1915,1904
1856,1970,1781
1862,1879,1934
1898,1936,2058
1823,1901,1917
1868,1872,1842
1779,1984,1872
1582,1941,1904
1739,2093,1857
1973,2099,1926
1973,1998,2017
2431,2221,1991
1845,1917,1795
1428,1904,1857
1658,1778,1889
1493,1837,1903
1703,1867,1984
1997,2032,1970
1999,2014,1917
1774,1997,1856
1715,1947,1942
1984,1901,1981
1982,1947,1871
1535,1876,1857
1619,1939,1968
2061,1904,1993
2287,2119,1967
1835,1923,1819
1514,1921,1901
2053,2207,2055
2154,2026,1963
1463,1909,1968
1605,1744,1840
2149,1959,1936
1891,1760,2031
1438,1712,1889
1593,1921,1838
1981,2034,1830
1841,1809,1777
1902,1885,2058
2095,1999,2097
1823,2000,1897
1776,2032,1898
2161,2192,1998
1785,1942,1875
1361,1715,1883
1663,1793,1872
1850,1743,1869
1872,1843,1963
1855,1844,1978
2080,1949,2009
2038,1940,1968
1570,1799,1908
1558,1886,1908
1760,1858,1739
1806,1826,1859
1921,2029,1968
2096,2128,1979
1728,2002,1847
1602,1793,1919
2155,1953,2027
2545,1985,2097
1875,2010,1900
1408,1891,1774
1463,1756,1796
1707,1698,2032
1626,1696,1960
1599,1765,1891
1940,1919,1904
2061,2007,2045
1821,1874,1911
1638,1887,1845
1986,2007,1789
2033,1990,1863
1814,1916,1873
1744,1819,1963
1808,1722,1951
2112,1935,1961
1888,1794,1890
1651,1776,1827
1709,1787,1897
1759,1893,1871
1924,1919,1943
1819,1917,2010
1888,1842,1758
1761,1910,1871
1499,1684,1950
1584,1759,1977
2021,1842,1834
1930,2028,1843
2206,2091,2060
1839,1776,1906
1619,1789,1846
1774,1826,1937
1921,1860,1884
2016,1907,1850
1809,1841,1997
1745,1919,1937
1667,1799,1934
1517,1788,1906
1891,1877,1929
1913,1808,1809
1787,1819,1754
1954,1919,1895
1936,1916,1869
1754,1707,1915
1727,1711,1849
1797,1818,1869
1822,1833,1898
2000,1922,1941
1831,1987,1825
1759,1968,1856
1962,2018,1957
2034,1823,2038
1706,1783,1873
1680,1775,1732
1761,1932,1933
2141,2026,1980
1941,1728,2016
1719,1664,1814
1563,1711,1763
1901,1818,1815
1803,1852,1991
1809,1905,1873
1856,1943,1670
1888,2001,1761
2095,1934,1986
1893,1969,2109
1773,1874,2038
1921,1902,1973
1889,1559,1869
1795,1637,1837
1778,1858,1860
1797,1934,1915
1750,1917,1904
1687,1873,1855
1854,1775,1840
2068,1990,1804
1795,1809,1813
1870,1769,1894
2126,2031,1989
1920,2015,1927
1649,1939,1901
1807,1781,1907
1853,1606,1842
1789,1637,1795
1812,1795,1872
1947,1936,1856
1838,2004,1826
1697,1842,1961
1671,1821,1982
1769,1885,1873
1917,1796,1807
1866,1843,1728
1859,1834,1791
2079,2017,1974
2327,2069,2032
1787,1867,1891
1606,1994,2015
1839,1798,2011
1616,1653,1903
1747,1733,1710
1931,1711,1712
1912,1692,1897
1665,1773,1968
1535,1823,1946
1759,1937,1840
2071,2099,1735
2085,2029,1755
1910,1767,1908
1975,1894,2092
2085,2198,2011
1633,1734,1776
1601,1557,1722
1872,1906,1950
1921,1818,1873
1705,1638,1823
1675,1675,1790
2034,1904,1753
2164,1905,1913
1526,1850,1972
1488,1839,1877
1853,1853,1819
1906,2065,1908
1930,2023,1923
1883,1712,1940
1805,1801,1861
2015,2128,1787
1782,1831,1773
1601,1719,1962
1794,1831,1899
2157,2071,1776
1726,1669,1674
1667,1521,1863
1680,1795,2113
2075,2013,2067
1956,2018,1824
1796,1966,1699
1723,1941,1725
1968,1901,2001
1809,1783,1879
1629,1859,1810
1863,2133,1829
1927,1874,1949
1909,1898,1916
1929,1738,2017
1935,1679,2041
1520,1683,1821
1386,1714,1717
2128,2064,1744
1963,1924,1648
1502,1773,1714
1803,1990,1910
2087,1907,1946
2032,2030,1855
1953,2109,1871
1728,1965,2043
1824,1906,2129
1735,1840,1978
1642,1578,1818
1747,1673,1746
1718,1747,1725
1959,1914,1812
1856,1957,1839
1914,1981,1747
1783,1781,1597
1858,1903,1792
1750,1855,2029
1726,1931,2032
2230,2256,1991
2162,2189,1827
1607,1900,1915
1426,1607,1822
1814,1625,1919
1807,1751,2007
1925,1936,1963
1766,1746,1579
1595,1641,1553
1522,1829,1943
2103,2080,2031
1887,1965,1822
1711,1952,1772
2027,1984,1647
1819,2016,1627
1942,2025,1771
1824,1728,1996
1690,1888,2227
1555,1629,2158
1722,1722,2020
2014,1984,1872
1959,2035,1771
1487,1739,1750
1614,1751,1677
2037,1950,1671
1897,1835,1716
1925,1711,1664
1654,1778,1746
1605,1872,2064
1706,1975,2110
2265,2256,1984
2346,2283,1863
1984,2192,1875
1479,1596,1882
1126,1296,1952
1535,1613,1804
2019,1846,1873
1811,1825,1875
1633,1728,1798
1665,1778,1756
1968,1968,1781
1748,1967,1660
1819,1898,1593
2343,2192,1712
1921,1972,1777
1385,1842,2047
1648,1878,2197
1866,1936,2106
2118,2205,1923
2014,1949,1903
2219,1958,2118
1890,1775,1951
1181,1525,1859
1353,1509,1834
1879,1728,1869
1920,2077,1722
1802,2115,1507
1587,1661,1655
1648,1607,1842
1877,1823,1849
2066,1893,1874
1883,2018,1865
1931,2026,2047
2047,2074,2078
1712,1935,1950
1607,1937,1756
1869,2017,1616
2287,2357,1805
1787,1637,2015
1725,1774,2190
1728,1739,2011
1826,1822,1988
1653,1840,1840
1564,1698,1682
1783,1822,1614
2239,2159,1488
1839,1883,1373
1474,1739,1679
1840,1947,2069
2102,2033,2063
1985,2103,1882
1731,2027,1925
1747,2141,2096
2438,1979,2170
2256,2000,1968
1271,1417,1772
1118,1425,1745
1494,1651,1847
2097,1901,1803
1829,1769,1674
1611,1865,1872
1935,2032,1951
1910,2023,1603
1620,1817,1337
1767,1760,1678
1994,1943,2005
2149,2158,2066
2003,2127,1915
1797,2087,1871
1919,1947,2019
1953,1841,2096
1686,1664,1892
1781,1613,1993
1976,1795,1973
1386,1698,1796
1443,1694,1793
1808,1885,1904
2094,2114,1904
1926,1947,1678
2119,2030,1525
1751,1939,1404
1522,1835,1653
1782,1935,2096
1881,2028,2203
1994,2133,2119
2034,2118,1939
2070,1805,1952
1600,1462,1919
1411,1602,1847
1573,1683,1825
1826,1786,1808
1793,1834,1647
1756,1950,1457
1927,2032,1554
1722,1871,1745
1681,1865,1933
1909,1987,1869
2192,2256,1808
2214,2171,1893
1956,1830,2034
1469,1678,2033
1805,1707,2115
1783,1658,1969
1813,1745,1836
1577,1678,1840
1856,2000,1968
2000,2061,1744
1698,1838,1394
1364,1663,1155
1699,1706,1580
2143,1856,2334
1721,1869,2227
1515,1895,1674
1860,2119,1565
2027,1997,1921
1872,1781,2217
1928,1673,2245
1697,1690,1997
1658,1727,1918
1936,1975,2000
1971,1885,1887
1879,1899,1535
