2502,1856,1845
2512,1844,1827
2485,1823,1808
2455,1840,1811
2458,1901,1828
2458,1841,1823
2445,1840,1814
2416,1845,1822
2446,1878,1822
2450,1841,1799
2397,1853,1783
2358,1808,1814
2383,1771,1839
2394,1805,1823
2368,1840,1813
2381,1841,1813
2395,1859,1808
2368,1861,1826
2353,1888,1828
2323,1840,1820
2332,1840,1823
2337,1862,1815
2307,1861,1803
2305,1825,1794
2317,1845,1761
2299,1878,1823
2257,1842,1825
2269,1853,1818
2320,1893,1818
2289,1843,1805
2223,1775,1789
2233,1856,1791
2255,1831,1803
2258,1810,1808
2224,1844,1805
2207,1838,1796
2239,1847,1794
2250,1859,1808
2201,1819,1786
2185,1831,1818
2214,1894,1809
2197,1827,1812
2167,1803,1809
2192,1847,1811
2204,1843,1813
2162,1839,1805
2139,1841,1804
2149,1860,1766
2177,1895,1807
2151,1853,1840
2128,1806,1819
2102,1829,1808
2135,1862,1810
2128,1866,1808
2110,1883,1803
2115,1867,1807
2125,1866,1797
2098,1915,1779
2087,1817,1791
2124,1782,1776
2067,1791,1795
2034,1827,1818
2031,1853,1821
2060,1891,1817
2096,1851,1806
2090,1812,1798
2035,1819,1798
2034,1846,1799
2069,1863,1810
2064,1879,1798
2034,1872,1788
2042,1831,1813
2075,1858,1819
2065,1835,1807
2011,1840,1802
2014,1858,1805
2045,1839,1807
2052,1871,1799
2055,1929,1744
1981,1803,1811
1999,1749,1831
1998,1753,1786
1987,1819,1796
1997,1855,1819
2023,1866,1809
1985,1840,1799
1955,1828,1781
1954,1857,1806
1944,1866,1811
1951,1879,1821
1950,1879,1803
1924,1825,1797
1930,1805,1803
1953,1813,1808
1939,1837,1806
1949,1855,1812
1989,1870,1809
1980,1888,1803
1926,1899,1795
1905,1872,1786
1933,1792,1809
1935,1811,1805
1936,1836,1761
1921,1804,1807
1893,1785,1831
1872,1806,1841
1862,1819,1823
1889,1847,1813
1900,1861,1811
1877,1859,1812
1846,1841,1807
1862,1840,1807
1868,1831,1799
1863,1867,1826
1851,1862,1820
1840,1878,1824
1840,1847,1821
1867,1869,1811
1849,1875,1808
1855,1849,1825
1869,1851,1816
1860,1833,1808
1831,1777,1809
1865,1868,1809
1898,1823,1811
1895,1846,1767
1803,1777,1808
1797,1806,1850
1840,1830,1838
1860,1822,1805
1835,1853,1819
1855,1883,1821
1839,1826,1817
1813,1824,1817
1789,1828,1810
1808,1849,1819
1838,1856,1823
1840,1862,1824
1825,1845,1822
1824,1832,1805
1843,1854,1815
1801,1874,1814
1782,1858,1829
1807,1837,1831
1849,1817,1829
1827,1873,1821
1792,1808,1815
1806,1797,1819
1817,1808,1824
1828,1829,1827
1802,1836,1822
1824,1823,1821
1803,1821,1824
1788,1865,1808
1775,1825,1818
1798,1815,1795
1792,1859,1849
1787,1827,1842
1763,1769,1845
1778,1790,1839
1790,1809,1831
1801,1830,1834
1767,1824,1831
1783,1836,1841
1802,1855,1850
1776,1841,1843
1737,1826,1838
1749,1852,1840
1776,1856,1836
1777,1786,1831
1728,1776,1831
1757,1807,1836
1815,1870,1823
1728,1819,1835
1686,1815,1840
1742,1793,1835
1767,1809,1840
1762,1821,1840
1740,1838,1838
1745,1808,1818
1786,1851,1791
1782,1912,1840
1736,1775,1867
1744,1766,1863
1760,1792,1850
1745,1789,1851
1739,1789,1843
1744,1808,1842
1779,1853,1842
1767,1879,1833
1737,1779,1839
1742,1774,1846
1767,1808,1841
1744,1825,1835
1727,1834,1840
1752,1841,1848
1771,1858,1847
1789,1881,1845
1751,1820,1846
1701,1777,1840
1729,1799,1830
1729,1823,1848
1705,1808,1852
1712,1807,1855
1749,1835,1841
1757,1895,1867
1722,1819,1853
1739,1819,1840
1757,1790,1855
1740,1795,1856
1744,1840,1787
1739,1808,1854
1759,1815,1894
1775,1865,1872
1760,1875,1847
1744,1792,1846
1744,1807,1842
1743,1806,1840
1738,1808,1851
1746,1833,1862
1762,1841,1868
1777,1821,1860
1712,1801,1843
1743,1795,1840
1731,1802,1856
1728,1811,1851
1723,1814,1834
1743,1872,1863
1767,1913,1866
1746,1829,1841
1717,1765,1862
1733,1789,1862
1776,1852,1803
1759,1810,1855
1727,1843,1879
1728,1856,1872
1766,1809,1863
1766,1764,1856
1727,1777,1851
1771,1807,1846
1761,1853,1851
1739,1856,1856
1714,1811,1852
1749,1817,1856
1764,1837,1850
1751,1877,1847
1728,1839,1830
1737,1803,1837
1767,1817,1837
1762,1872,1859
1739,1866,1863
1728,1786,1854
1763,1805,1855
1776,1825,1843
1747,1824,1837
1775,1872,1828
1781,1831,1851
1778,1824,1856
1761,1825,1845
1779,1790,1847
1810,1812,1815
1782,1803,1834
1713,1802,1872
1735,1852,1870
1791,1837,1862
1774,1810,1856
1754,1817,1856
1744,1837,1853
1783,1871,1855
1774,1850,1811
1744,1776,1829
1735,1813,1870
1772,1839,1867
1778,1845,1851
1745,1851,1844
1765,1883,1849
1786,1821,1856
1771,1787,1847
1735,1803,1843
1761,1830,1858
1785,1846,1858
1790,1866,1861
1777,1887,1845
1814,1906,1822
1744,1734,1851
1711,1733,1866
1713,1781,1827
1751,1808,1824
1777,1838,1872
1776,1806,1850
1764,1796,1840
1744,1829,1869
1775,1854,1859
1776,1850,1841
1758,1851,1840
1773,1853,1841
1787,1805,1820
1755,1802,1835
1744,1867,1845
1783,1824,1854
1804,1854,1853
1778,1818,1842
1729,1763,1841
1735,1794,1850
1787,1846,1843
1806,1853,1841
1755,1843,1823
1743,1762,1846
1779,1793,1861
1791,1815,1854
1776,1823,1855
1781,1835,1852
1808,1853,1841
1824,1828,1779
1773,1780,1836
1754,1838,1886
1789,1857,1886
1787,1849,1857
1787,1891,1849
1801,1862,1820
1778,1794,1851
1763,1795,1859
1761,1818,1847
1808,1899,1855
1809,1879,1852
1779,1792,1843
1773,1794,1841
1792,1809,1861
1811,1850,1856
1801,1823,1850
1781,1819,1842
1794,1835,1852
1821,1854,1857
1821,1899,1839
1777,1820,1840
1793,1804,1853
1835,1819,1842
1798,1807,1835
1770,1840,1854
1777,1847,1827
1833,1834,1821
1809,1822,1867
1786,1843,1868
1787,1898,1857
1814,1895,1846
1792,1791,1849
1783,1767,1839
1820,1798,1830
1819,1873,1851
1818,1908,1859
1789,1807,1837
1759,1739,1847
1803,1783,1856
1827,1840,1852
1787,1805,1836
1790,1822,1840
1823,1843,1853
1835,1851,1845
1809,1847,1845
1840,1844,1842
1847,1822,1826
1817,1856,1856
1796,1857,1858
1823,1921,1838
1831,1827,1847
1815,1795,1849
1787,1812,1845
1813,1865,1846
1862,1904,1847
1843,1826,1842
1787,1799,1843
1782,1789,1843
1808,1791,1847
1820,1803,1849
1808,1855,1808
1822,1840,1816
1822,1797,1873
1833,1830,1872
1807,1808,1838
1814,1799,1825
1833,1843,1863
1853,1856,1868
1807,1840,1844
1813,1842,1839
1851,1861,1845
1862,1839,1821
1815,1826,1840
1808,1862,1862
1848,1879,1857
1833,1931,1830
1785,1781,1845
1795,1734,1849
1823,1794,1854
1854,1840,1840
1804,1797,1845
1803,1808,1852
1846,1842,1853
1846,1843,1840
1826,1840,1839
1840,1852,1791
1856,1838,1841
1841,1823,1875
1793,1821,1866
1812,1833,1853
1861,1841,1830
1863,1845,1825
1841,1849,1840
1819,1856,1865
1825,1850,1856
1867,1845,1840
1834,1874,1835
1796,1899,1844
1818,1819,1849
1822,1776,1841
1813,1799,1839
1817,1810,1840
1843,1808,1853
1845,1818,1847
1808,1838,1849
1819,1875,1843
1834,1856,1844
1810,1829,1851
1798,1893,1836
1823,1872,1835
1856,1808,1799
1811,1764,1864
1804,1783,1874
1872,1815,1836
1904,1815,1824
1875,1831,1858
1808,1840,1856
1819,1847,1846
1861,1845,1846
1879,1838,1840
1834,1857,1843
1833,1875,1849
1862,1871,1847
1870,1852,1845
1851,1840,1846
1875,1893,1842
1875,1829,1850
1839,1814,1846
1804,1759,1842
1809,1766,1842
1854,1808,1854
1873,1861,1840
1843,1839,1839
1865,1834,1852
1879,1842,1847
1872,1842,1839
1838,1853,1840
1856,1842,1831
1891,1842,1806
1904,1905,1806
1856,1859,1890
1872,1845,1880
1894,1803,1850
1840,1841,1837
1815,1822,1830
1864,1829,1823
1926,1917,1837
1859,1874,1851
1808,1751,1846
1836,1732,1840
1887,1792,1842
1890,1833,1840
1862,1835,1840
1872,1839,1847
1891,1856,1841
1886,1856,1838
1864,1858,1839
1875,1859,1827
1887,1853,1846
1890,1840,1847
1859,1835,1840
1870,1835,1833
1905,1853,1825
1889,1895,1810
1853,1857,1830
1860,1839,1883
1902,1813,1859
1865,1841,1840
1860,1856,1827
1874,1827,1813
1884,1812,1856
1872,1834,1861
1869,1851,1853
1912,1881,1846
1917,1860,1845
1891,1937,1842
1856,1794,1838
1870,1761,1840
1904,1808,1846
1899,1839,1846
1872,1841,1840
1892,1827,1841
1913,1836,1844
1886,1840,1842
1858,1841,1840
1878,1873,1839
1923,1872,1823
1891,1808,1854
1867,1843,1849
1874,1820,1822
1901,1822,1807
1889,1877,1855
1895,1858,1861
1901,1858,1823
1866,1776,1847
1853,1805,1861
1857,1826,1851
1904,1869,1851
1909,1809,1847
1906,1813,1841
1872,1845,1845
1902,1869,1842
1921,1838,1843
1919,1854,1843
1859,1822,1814
1850,1787,1831
1889,1811,1855
1893,1829,1851
1908,1854,1836
1899,1857,1841
1902,1835,1840
1895,1865,1839
1872,1840,1841
1887,1838,1854
1917,1856,1855
1905,1856,1855
1904,1851,1850
1898,1858,1842
1921,1883,1849
1907,1866,1854
1885,1877,1827
1883,1842,1827
1904,1835,1828
1939,1843,1786
1837,1775,1875
1841,1734,1863
1883,1776,1847
1902,1821,1856
1874,1825,1851
1872,1813,1841
1903,1830,1855
1909,1832,1858
1886,1834,1840
1901,1863,1846
1934,1890,1839
1918,1812,1840
1871,1805,1842
1883,1833,1847
1911,1843,1851
1922,1895,1845
1872,1819,1840
1865,1795,1837
1904,1827,1840
1915,1869,1839
1908,1858,1783
1919,1878,1802
1879,1754,1865
1865,1767,1888
1852,1799,1875
1886,1827,1858
1939,1840,1844
1898,1847,1839
1871,1804,1829
1890,1812,1849
1925,1883,1843
1917,1837,1837
1875,1796,1838
1878,1809,1851
1915,1826,1846
1914,1835,1840
1904,1845,1839
1904,1872,1835
1921,1830,1838
1893,1789,1839
1866,1802,1838
1890,1827,1820
1922,1867,1793
1899,1859,1833
1871,1765,1821
1882,1779,1879
1927,1806,1872
1918,1839,1855
1871,1840,1847
1877,1842,1837
1906,1872,1840
1911,1895,1841
1904,1858,1831
1903,1792,1834
1914,1803,1841
1902,1822,1845
1872,1805,1840
1891,1826,1841
1931,1859,1841
1916,1813,1840
1898,1814,1843
1910,1828,1843
1917,1851,1842
1931,1853,1838
1917,1840,1808
1904,1879,1835
1936,1887,1856
1882,1850,1834
1856,1790,1791
1874,1777,1836
1915,1823,1872
1906,1850,1863
1904,1879,1840
1904,1824,1840
1918,1849,1842
1881,1799,1831
1859,1799,1834
1897,1839,1840
1911,1817,1836
1904,1827,1825
1874,1837,1833
1903,1885,1836
1919,1839,1842
1894,1820,1840
1891,1842,1840
1903,1837,1840
1921,1840,1851
1894,1840,1840
1886,1882,1795
1868,1826,1826
1872,1818,1859
1872,1828,1856
1878,1853,1845
1915,1886,1843
1920,1840,1840
1870,1819,1825
1854,1793,1829
1883,1823,1841
1917,1853,1843
1920,1953,1791
1888,1808,1793
1891,1805,1871
1903,1830,1870
1870,1792,1847
1857,1808,1840
1887,1841,1845
1911,1855,1851
1915,1846,1839
1881,1843,1845
1887,1826,1809
1925,1874,1845
1910,1867,1840
1870,1913,1824
1887,1855,1810
1881,1766,1839
1872,1771,1833
1865,1807,1831
1903,1858,1825
1930,1840,1840
1917,1826,1840
1902,1835,1839
1921,1841,1841
1920,1861,1842
1924,1904,1840
1876,1933,1819
1887,1788,1831
1905,1773,1845
1906,1777,1845
1872,1826,1840
1899,1851,1842
1949,1833,1791
1936,1837,1791
1839,1805,1871
1856,1827,1882
1904,1840,1859
1911,1850,1841
1902,1846,1839
1930,1855,1825
1920,1856,1845
1902,1894,1856
1885,1914,1850
1902,1835,1838
1919,1786,1837
1890,1781,1839
1874,1815,1844
1901,1872,1847
1917,1851,1847
1914,1798,1840
1879,1840,1835
1906,1842,1840
1894,1825,1841
1904,1806,1815
1878,1829,1849
1901,1857,1863
1923,1859,1856
1907,1872,1839
1890,1876,1823
1889,1815,1845
1917,1810,1855
1946,1835,1840
1910,1850,1808
1873,1821,1872
1882,1823,1879
1889,1872,1866
1878,1826,1840
1901,1795,1827
1945,1792,1855
1901,1820,1871
1866,1822,1861
1904,1840,1861
1936,1872,1859
1947,1911,1846
1886,1803,1840
1901,1786,1823
1915,1818,1854
1891,1836,1865
1890,1845,1858
1921,1872,1856
1919,1846,1855
1913,1835,1851
1899,1840,1791
1899,1839,1854
1907,1863,1894
1910,1856,1877
1887,1877,1855
1920,1872,1846
1941,1851,1845
1897,1841,1844
1875,1824,1835
1888,1778,1850
1925,1774,1850
1917,1802,1845
1872,1811,1850
1890,1838,1846
1945,1860,1856
1911,1874,1847
1859,1813,1850
1902,1834,1834
1921,1821,1847
1884,1811,1868
1856,1814,1861
1891,1846,1855
1919,1851,1856
1911,1841,1850
1902,1837,1840
1904,1853,1850
1937,1868,1807
1919,1856,1838
1883,1863,1872
1917,1887,1871
1927,1840,1856
1898,1804,1850
1865,1884,1843
1873,1787,1847
1909,1786,1857
1911,1808,1851
1905,1847,1847
1942,1924,1819
1911,1762,1817
1862,1765,1869
1856,1806,1870
1889,1821,1862
1937,1854,1856
1909,1824,1849
1883,1814,1855
1906,1851,1856
1933,1860,1859
1898,1834,1863
1874,1824,1856
1881,1838,1855
1911,1846,1857
1916,1852,1849
1871,1838,1843
1856,1871,1850
1869,1862,1793
1813,1788,1852
1779,1786,1871
1811,1808,1870
1845,1870,1853
1829,1872,1825
1805,1823,1854
1808,1776,1842
1839,1835,1839
1827,1811,1863
1780,1793,1870
1801,1823,1857
1850,1830,1855
1827,1845,1848
1783,1855,1853
1803,1842,1861
1845,1857,1858
1831,1840,1847
1824,1861,1850
1856,1854,1844
1840,1840,1857
1799,1842,1855
1794,1812,1845
1821,1819,1853
1873,1902,1824
1849,1822,1837
1792,1785,1863
1822,1795,1853
1872,1854,1863
1910,1881,1855
1893,1861,1854
1917,1823,1845
1956,1809,1843
1932,1762,1840
1898,1776,1837
1910,1825,1858
1955,1854,1868
1950,1839,1856
1936,1860,1846
1948,1904,1828
1929,1808,1849
1927,1813,1856
1914,1822,1851
1941,1846,1853
1969,1859,1852
1963,1856,1843
1935,1859,1843
1936,1803,1847
1969,1827,1858
1959,1841,1854
1953,1858,1842
1986,1846,1775
1994,1840,1846
1904,1814,1897
1906,1879,1886
1925,1826,1859
1957,1830,1855
1951,1847,1849
1911,1809,1838
1934,1783,1840
1946,1831,1868
1947,1840,1861
1936,1843,1856
1943,1833,1843
1958,1850,1855
1953,1843,1855
1934,1849,1855
1950,1889,1853
1979,1903,1847
1952,1787,1857
1897,1771,1853
1937,1841,1850
1965,1856,1845
1933,1801,1851
1922,1791,1843
1937,1850,1830
1954,1833,1852
1940,1843,1847
1918,1833,1846
1939,1860,1853
1974,1887,1854
1918,1778,1840
1909,1787,1792
1950,1808,1835
1961,1853,1872
1951,1831,1871
1946,1830,1847
1952,1830,1839
1920,1808,1853
1911,1822,1856
1916,1835,1854
1943,1822,1843
1959,1853,1840
1935,1815,1837
1919,1887,1829
1934,1872,1838
1950,1792,1862
1937,1782,1855
1915,1777,1813
1948,1867,1849
1958,1874,1865
1923,1826,1847
1901,1835,1843
1920,1818,1839
1968,1839,1838
1957,1837,1843
1903,1840,1843
1907,1831,1845
1947,1815,1845
1968,1885,1805
1931,1822,1856
1899,1774,1869
1936,1776,1841
1906,1833,1844
1881,1842,1857
1919,1846,1858
1959,1878,1859
1939,1831,1841
1918,1818,1843
1994,1936,1849
2000,1853,1851
2000,1842,1895
2127,2026,1902
2087,1891,1853
2039,1879,1888
2231,2058,1941
2109,1972,1869
2112,2112,1898
2064,1797,1899
1828,1617,1857
1845,1795,1857
1487,2090,1963
1722,1877,1899
1941,1775,1840
2202,1791,1917
2518,2192,1962
2345,2167,1932
2319,2223,1937
1826,1630,1886
1669,1616,1883
2169,2043,1934
2207,2047,1853
1870,1733,1735
1989,2032,1824
2027,1846,1835
1965,1813,1863
2241,2083,1935
1780,1728,1763
1988,1740,1724
1991,1799,1808
1939,1833,1872
2112,2104,1884
1967,1821,1744
2266,2080,1899
2352,2107,1900
2260,2234,1982
2112,1859,1662
1697,1403,1616
1955,1762,2030
2294,1887,1872
1903,1619,1781
1803,1844,1968
1700,1792,1887
1857,1892,1841
2447,2110,1935
2309,1785,1699
1569,1673,1747
2000,1927,1930
1893,1735,1866
1668,1621,1811
1715,1759,1809
1929,2011,1810
2450,2011,1810
2023,1830,1821
1811,1617,1873
2239,1799,1919
2221,1939,1927
1799,1671,1909
1591,1507,1755
1903,1600,1773
2260,1718,1859
1655,1726,1850
1681,1746,1848
2142,2100,1968
2559,1938,1987
2062,1717,1875
1297,1590,1727
1459,1762,1744
1866,1782,1834
1939,1791,1888
2187,1808,1941
1821,1744,1849
1694,1454,1728
1573,1522,1776
1901,1686,1895
1986,1799,1891
1835,1742,1883
2030,1661,1852
1940,1765,1966
1840,1713,1856
1735,1707,1857
1899,1821,1838
2134,1786,1776
2196,1936,1903
1989,1819,1885
1696,1812,1966
1762,1489,1814
1841,1385,1879
1903,1673,1797
1509,1739,1849
1856,1703,1891
2293,1666,1840
1691,1590,1844
1786,1664,1867
1903,1698,1904
1681,1616,1899
1535,1648,1840
1739,1670,1811
2124,1831,1840
2523,2017,1904
1901,1732,1827
1301,1487,1868
1511,1575,1829
1857,1511,1891
2009,1717,1877
1796,1470,1779
1629,1619,1891
1791,1700,1906
2007,1680,1890
1899,1615,1905
1757,1751,1874
2042,1713,1791
2064,1712,1865
1961,1733,1952
1805,1958,1962
2119,1819,1808
1490,1507,1792
1462,1631,1792
1760,1840,1830
2153,1730,1871
1936,1527,1722
1667,1607,1877
1600,1672,1903
1777,1723,1933
2315,1520,1942
1783,1561,1861
2019,1648,1817
1682,1714,1835
1713,1826,1871
2235,1937,1823
1744,1786,1951
1863,1694,1883
1935,1743,1696
1493,1629,1743
1664,1613,1781
1690,1633,1776
1697,1667,1959
1736,1678,1948
1698,1561,1875
1748,1629,1894
2087,1712,1799
2292,1802,1962
2014,1806,1847
1503,1710,1747
1553,1853,1796
2364,2046,1871
2195,1667,1822
1985,1754,1899
1584,1766,1765
1479,1532,1674
1378,1625,1810
2134,1772,1958
1787,1668,1834
1891,1891,1831
1888,1722,1723
2053,1772,1847
2042,1808,1903
1759,1645,1821
1582,1647,1738
1479,1582,1665
1686,1926,1776
1743,1814,1840
2075,1882,1820
1821,1696,1760
1687,1585,1742
1802,1591,1765
1904,1776,1782
2175,1697,1790
1744,1754,1708
1567,1789,1686
1877,1933,1775
2022,1893,1712
2146,1846,1699
2512,1852,1673
1989,1851,1577
1457,1728,1570
1655,1799,1773
2660,2046,1933
1760,1670,1687
928,1429,1591
1455,1705,1712
2131,1855,1735
2047,1776,1579
1691,1671,1590
1699,1718,1677
2077,1952,1705
1858,1866,1659
1846,1822,1744
1904,1920,1709
2193,1878,1527
1764,1881,1584
1597,1708,1689
2032,1712,1733
2129,1771,1762
1783,1806,1616
1663,1776,1634
1803,1669,1671
1939,1810,1733
1795,1947,1707
2222,2011,1753
1771,1835,1721
1764,1904,1683
1641,1629,1609
1825,1737,1693
1922,1946,1648
2028,1899,1698
1742,1678,1603
1616,1771,1747
1870,1791,1668
1963,1839,1674
1966,2034,1789
1855,1775,1701
2464,1905,1835
1866,1738,1683
1702,1906,1693
1755,1792,1575
1810,1873,1683
1669,1818,1677
1810,1828,1694
1872,1808,1667
1909,1982,1807
1970,1953,1727
1893,1743,1768
1980,1808,1718
1954,1840,1732
1793,1929,1744
1629,1603,1654
2000,1827,1735
1885,1805,1803
1695,1796,1709
1790,1905,1711
2181,1969,1779
2349,1934,1818
1838,1964,1685
1325,1759,1699
1517,1847,1715
2193,2093,1867
1934,1958,1696
1642,1675,1730
2007,1633,1808
2421,1774,1840
1891,1840,1634
1232,1673,1674
1557,1729,1802
1939,1873,1920
1899,1939,1757
2125,2069,1795
2347,2089,1764
2084,2017,1750
1616,1757,1777
1561,1666,1820
1721,1990,1838
1714,1941,1693
2142,1943,1771
2209,1798,1752
1942,1733,1773
1712,1655,1833
1990,1894,1997
2011,1867,1810
1599,1849,1678
1602,1718,1675
2161,2068,1858
2242,2025,1851
1833,1857,1787
2015,1867,1840
1651,1886,1802
1535,1847,1766
1927,1984,1853
1936,1776,1818
1826,1748,1725
1810,1783,1808
1941,1838,1898
1859,1821,1820
1959,1921,1797
2093,1947,1783
1867,1803,1787
1799,1914,1881
2115,1995,1915
2285,1987,1840
2217,2113,1811
1719,1877,1793
1419,1712,1831
1705,1843,1918
1999,1850,1930
2031,1871,1800
1689,1791,1781
1867,1888,1840
1748,1889,1811
1744,1776,1894
1943,1906,1891
1921,1882,1872
2006,1914,1791
1923,1937,1809
1968,1884,1778
2064,1936,1863
1901,1874,1939
1793,1889,1914
1856,1984,1773
1849,1904,1862
1743,1814,1867
1936,1866,1868
2155,1861,1876
1957,1708,1778
1822,1967,1918
1843,1871,1905
1883,2011,1942
1920,1955,1947
1807,1821,1789
1943,1871,1781
1902,1808,1847
1847,1882,1901
1866,1968,1850
1745,1858,1861
2000,1787,1831
1959,2000,1904
1921,1936,1933
2000,1905,1879
1824,1775,1853
1766,1810,1821
1872,1757,1904
1993,1983,1867
2034,1882,1840
1899,1762,1809
1686,1812,1858
1920,1970,1979
2047,1982,1897
1850,1808,1710
1636,1803,1787
1773,1935,1937
2000,1924,1845
2217,1999,1877
2047,1941,1904
1934,1946,1914
1783,1667,1836
1781,1815,1949
2006,1857,1952
1837,1771,1811
1757,1775,1798
1990,1986,1897
2097,1875,1842
1949,1850,1751
1597,1840,1827
1647,1921,1909
1959,2000,2019
2288,2058,1935
1950,1791,1794
1610,1781,1852
1840,1840,1813
2165,2006,1876
1839,1691,1826
1982,1803,1937
2107,1898,1886
1634,1886,1847
1647,1754,1985
2026,1946,1987
2000,1936,1871
2001,1759,1870
1821,1773,1869
2026,1854,1767
1835,1881,1804
1740,1968,1839
1987,2000,2032
2187,1863,1957
1850,1808,1770
1722,1746,1871
2055,1891,1905
2046,1877,1864
1847,1805,1931
2004,1790,2015
1625,1728,1811
1654,1840,1783
1989,1904,1829
2119,1957,1943
1968,2021,1919
2128,1797,1808
1968,1857,1823
1774,1809,1856
1751,1771,1883
1872,1841,1951
1985,1914,1980
2135,1937,1905
2019,1871,1930
1835,1639,1811
1807,1838,1904
1873,2029,1856
1878,1786,1849
1887,1861,1936
1865,1773,1922
1904,1744,1754
1691,1811,1782
1968,1831,1978
2227,1977,1975
2047,1955,1939
1805,1999,1862
1796,1817,1857
1914,1770,1842
2000,1899,1922
1904,1793,1904
1787,1858,1890
2003,2011,1968
2369,2113,1929
1863,1741,1681
1513,1684,1788
1771,1714,2000
2039,1785,1993
2155,1954,1909
1662,1775,1771
1739,1823,1798
2321,2046,1995
1933,1968,1951
1713,1875,1889
1917,1853,1851
2026,1962,1862
1899,1895,1879
1931,1898,1930
1865,1950,1925
1718,1762,1744
1821,1555,1872
2290,1821,2053
2105,1901,1965
1600,1824,1751
1535,1693,1744
1840,1844,1806
2225,2086,1962
2023,1971,1878
1873,1862,1921
1898,1881,1887
1895,1937,1972
2221,2026,2055
2032,1962,1799
1648,1717,1717
1702,1585,1776
2107,1755,1897
1841,1808,1902
1681,1727,1874
1783,1881,1910
2121,2063,2005
2098,1886,1841
1853,1870,1818
1904,1821,1936
1986,1898,1897
1976,1931,1879
1907,1985,1815
1671,1791,1825
1695,1771,1855
1989,1968,1909
2191,1909,1968
1882,1634,1776
1846,1699,1834
1781,1760,1937
1810,1889,1968
1943,1918,1899
1914,1911,1756
1751,1835,1771
1853,1821,1890
2045,1925,1995
2192,2014,2001
2169,2062,1830
1674,1827,1823
1853,1835,1903
2070,1935,1949
2003,1904,1895
1776,1770,1782
1757,1675,1865
1935,1721,1904
1908,1844,1870
1712,1822,1806
1723,1750,1853
2283,1951,1943
2162,1994,1863
1758,1807,1808
1771,1769,1865
1970,1863,1918
2235,1993,1967
2013,2003,1936
1841,1970,1857
1657,1776,1791
1853,1879,1857
1830,1744,1899
1887,1668,1889
2030,1730,1856
1859,1762,1840
1873,1829,1823
1954,2045,1920
1904,1933,1853
1781,1790,1842
1847,1756,1920
1985,1895,1914
2128,1993,1917
2083,1918,1886
1775,1859,1904
1914,1983,1943
2285,2254,1847
2096,1870,1808
1443,1532,1823
1481,1575,1886
1776,1653,1886
2033,1758,1897
2035,1766,1802
1888,1885,1869
1979,1986,1925
2075,1968,1991
2030,1930,1890
1745,1840,1749
1824,1872,1879
2107,1893,1923
1974,1855,1895
1936,2106,1916
2112,2070,1959
1996,1719,1968
1568,1520,1802
1779,1693,1877
1948,1875,1968
1749,1746,1779
1801,1756,1773
2067,1840,1878
2162,1872,1829
1755,1827,1826
1720,1871,1946
2010,2023,1999
2248,2096,1909
2178,1919,1766
2006,1975,1885
1683,1871,1904
1774,1723,1946
1847,1835,1872
1956,1770,1869
1936,1650,1930
2033,1861,1996
1815,1854,1872
1637,1729,1725
1645,1744,1703
1866,1856,1869
2000,1919,1919
2106,1918,1929
2192,2031,2015
2091,2064,1808
2032,1781,1711
1637,1651,1737
1757,1895,1968
2290,1946,2013
1888,1822,1867
1707,1683,1825
1925,1652,1963
1873,1836,1887
1686,1676,1778
1941,1859,1875
1956,1925,1930
1857,1855,1817
1922,1872,1745
2047,1915,1872
2343,2141,2144
2500,2032,1871
1386,1634,1712
1279,1642,1776
1751,1869,1881
2167,1936,1979
2176,1805,1872
2228,1999,2017
1970,1701,1878
1358,1517,1713
1446,1713,1823
1950,1856,1881
2235,1973,1882
1851,1803,1808
1625,1805,1792
1969,1891,1806
2288,2076,1969
2258,2000,1915
1728,1885,1885
1565,1719,1845
1817,1859,1915
2214,1966,1846
2089,1793,1852
1728,1731,1835
2099,1856,1895
1936,1653,1891
1568,1850,1866
1710,1872,1871
1947,1783,1867
2359,2041,1903
2028,1915,1823
1567,1726,1733
1587,1688,1780
2327,2020,1937
2375,2039,1971
1780,1938,1791
1457,1772,1802
1877,1904,1763
2061,1867,1837
1859,1696,1962
1913,1734,1951
2096,1840,1850
1680,1706,1891
1968,1990,1858
1968,1954,1780
1535,1694,1799
1785,1796,1776
1893,1811,1749
2101,1850,1867
2001,1872,1950
2102,2017,1959
2635,2215,1969
1801,1907,1848
1371,1715,1785
1390,1623,1835
1616,1730,1765
1840,1680,1793
1908,1814,1843
1840,1651,1904
1819,1705,1783
1872,1781,1749
2007,1907,1856
1899,1884,1881
1783,1906,1804
1900,1909,1947
1903,1927,1918
2366,2074,1934
2014,1889,1819
1670,1818,1808
1776,1913,1904
1783,1859,1827
1898,1710,1790
2118,2046,1910
2143,1914,1744
1602,1664,1854
1625,1680,1913
1920,1763,1908
1790,1675,1821
1963,1808,1945
2089,1872,1761
1766,1810,1753
2059,1921,1889
2145,1997,1838
1843,1898,1857
1699,1889,1925
1742,1875,1911
2000,1883,1846
2123,1991,1882
1977,1893,1810
1646,1742,1800
1671,1650,1857
1990,1807,1936
2129,1846,1911
1678,1680,1783
1646,1713,1805
1847,1873,1904
2046,1968,1872
2177,1998,1833
1985,1937,1820
1967,1875,1907
2350,2063,1998
2004,1939,1882
1425,1700,1779
1818,1771,1840
2001,1904,1776
1825,1952,1821
1792,1633,1927
2074,1881,1932
1773,1683,1818
1535,1671,1821
1648,1779,1807
1873,1810,1829
2097,1969,1926
2145,1975,1910
1931,1839,1808
1699,1774,1792
1777,1845,1849
2128,2033,1905
2090,1936,1936
1840,1868,1917
1891,1869,1870
1976,1872,1821
1879,1840,1826
2208,2113,1933
2213,1855,1877
1618,1644,1885
1455,1675,1855
1725,1743,1915
1867,1858,1904
1887,1879,1887
1895,1839,1799
1928,1867,1837
1938,1902,1875
1872,1859,1827
1901,1903,1871
1969,1937,1920
2000,1937,1922
1977,1899,1904
1872,1895,1883
1893,1914,1872
1905,1900,1877
1968,1894,1890
2176,1907,1883
2146,1818,1844
1740,1743,1891
1671,1719,1920
1809,1808,1925
1801,1796,1866
1872,1838,1863
2021,1979,1969
2083,2018,1951
1875,1843,1809
1808,1811,1826
1885,1859,1872
1936,1900,1920
1962,1918,1929
1991,1927,1935
2015,1978,1945
