1838,1867,1855
1889,1867,1853
1925,1866,1840
1870,1895,1846
1838,1852,1838
1867,1897,1859
1871,1872,1836
1815,1776,1762
1818,1734,1808
1765,1782,1903
1787,1842,1845
1873,1773,1810
1884,1790,1867
1867,1794,1878
1801,1872,1826
1820,1835,1829
1822,1817,1842
1854,1839,1845
1855,1847,1856
1824,1840,1853
1887,1867,1859
1852,1867,1852
1856,1829,1834
1878,1867,1852
1858,1881,1861
1847,1882,1840
1807,1840,1825
1807,1826,1826
1813,1776,1807
1834,1764,1831
1838,1833,1867
1872,1787,1840
1919,1899,1848
1950,1935,1843
1778,1793,1857
1741,1797,1872
1812,1804,1815
1841,1839,1831
1837,1815,1863
1829,1823,1870
1835,1834,1845
1895,1851,1852
1872,1862,1841
1847,1835,1845
1859,1872,1856
1889,1851,1827
1819,1817,1824
1791,1831,1860
1872,1978,1859
1875,1806,1776
1792,1712,1817
1777,1713,1851
1844,1808,1854
1878,1982,1893
1810,1875,1855
1787,1789,1842
1837,1810,1866
1879,1843,1847
1819,1907,1841
1859,1850,1831
1910,1804,1854
1862,1846,1833
1804,1857,1827
1760,1855,1840
1806,1821,1853
1837,1841,1872
1825,1870,1843
1829,1882,1840
1855,1833,1846
1847,1710,1754
1851,1668,1813
1855,1888,1883
1871,1904,1872
1831,1835,1849
1791,1776,1845
1751,1776,1835
1839,1843,1834
1881,1859,1834
1826,1827,1837
1799,1833,1861
1841,1866,1859
1872,1882,1846
1866,1863,1849
1886,1837,1830
1854,1859,1823
1847,1888,1849
1857,1937,1847
1870,1936,1840
1833,1798,1776
1843,1642,1792
1840,1750,1915
1840,1847,1888
1793,1857,1879
1809,1817,1857
1807,1811,1826
1847,1808,1831
1858,1827,1839
1847,1840,1841
1856,1851,1845
1843,1851,1839
1814,1872,1852
1862,1850,1847
1875,1847,1850
1857,1841,1843
1838,1877,1839
1856,1887,1846
1826,1861,1842
1848,1874,1746
1827,1660,1776
1831,1742,1876
1819,1830,1904
1802,1858,1873
1789,1792,1859
1782,1781,1824
1801,1811,1839
1855,1811,1853
1841,1823,1841
1830,1853,1837
1867,1867,1845
1892,1855,1857
1862,1827,1853
1803,1833,1841
1801,1869,1842
1839,1844,1858
1863,1865,1858
1847,1859,1840
1873,1929,1830
1833,1792,1762
1861,1773,1843
1870,1758,1877
1822,1789,1853
1754,1787,1862
1781,1810,1869
1850,1862,1846
1862,1767,1813
1794,1771,1840
1781,1821,1853
1815,1883,1855
1913,1845,1857
1899,1794,1846
1794,1806,1835
1809,1826,1835
1837,1851,1837
1831,1841,1858
1845,1847,1858
1867,1860,1839
1903,1835,1808
1886,1744,1796
1843,1872,1904
1871,1776,1881
1805,1787,1851
1764,1851,1840
1860,1879,1847
1909,1843,1843
1843,1851,1830
1818,1824,1872
1792,1865,1870
1771,1763,1851
1777,1733,1824
1840,1777,1835
1902,1842,1835
1863,1845,1844
1854,1840,1854
1849,1833,1847
1955,1865,1856
1874,1854,1853
1808,1855,1854
1793,1872,1851
1856,1893,1808
1835,1808,1857
1815,1779,1882
1857,1815,1866
1846,1830,1851
1872,1878,1849
1810,1859,1837
1749,1776,1835
1808,1808,1872
1958,1872,1869
1906,1811,1825
1802,1776,1808
1748,1759,1835
1815,1839,1879
1870,1840,1875
1840,1850,1866
1840,1857,1860
1877,1842,1839
1853,1840,1838
1846,1838,1854
1862,1867,1856
1889,1923,1795
1872,1819,1872
1813,1745,1858
1813,1850,1871
1872,1872,1869
1815,1821,1847
1806,1775,1829
1877,1815,1842
1865,1882,1840
1824,1829,1855
1781,1776,1854
1819,1808,1846
1821,1873,1851
1854,1859,1867
1830,1837,1859
1885,1855,1851
1878,1887,1867
1887,1869,1872
1851,1853,1850
1893,1867,1855
1941,1863,1855
1885,1881,1847
1789,1858,1810
1837,1919,1793
1860,1765,1823
1783,1693,1879
1779,1795,1908
1791,1820,1857
1838,1803,1840
1925,1755,1840
1821,1790,1831
1773,1839,1850
1833,1870,1845
1843,1851,1840
1877,1843,1850
1897,1872,1861
1871,1872,1855
1819,1851,1840
1810,1837,1837
1845,1861,1855
1904,1908,1857
1886,1933,1834
1824,1738,1791
1834,1705,1799
1840,1776,1878
1838,1904,1904
1808,1876,1856
1819,1803,1826
1840,1802,1857
1849,1799,1866
1834,1823,1811
1863,1798,1787
1868,1844,1854
1901,1832,1872
1801,1816,1870
1790,1829,1860
1959,1887,1878
1863,1839,1835
1775,1835,1813
1823,1846,1841
1962,1922,1866
1916,1899,1754
1756,1745,1840
1728,1761,1906
1811,1813,1886
1897,1819,1838
1894,1840,1850
1925,1884,1865
1809,1851,1841
1795,1782,1819
1808,1776,1831
1853,1826,1843
1903,1900,1834
1906,1833,1842
1782,1782,1858
1790,1806,1856
1849,1838,1853
1846,1846,1837
1857,1862,1821
1821,1872,1871
1851,1854,1872
1895,1830,1790
1838,1769,1809
1843,1790,1854
1873,1851,1900
1851,1831,1872
1843,1781,1815
1861,1808,1843
1835,1886,1861
1792,1841,1829
1793,1852,1872
1812,1831,1861
1855,1840,1814
1887,1803,1833
1849,1808,1835
1808,1821,1854
1895,1893,1873
1883,1851,1813
1878,1792,1838
1863,1855,1872
1822,1871,1863
1834,1836,1825
1809,1789,1818
1831,1757,1782
1857,1804,1857
1840,1846,1889
1853,1859,1904
1902,1842,1853
1827,1870,1841
1814,1906,1840
1825,1843,1840
1854,1843,1839
1793,1846,1855
1792,1774,1844
1877,1773,1847
1847,1810,1854
1872,1853,1863
1911,1893,1849
1902,1861,1840
1846,1827,1847
1830,1838,1850
1845,1852,1831
1871,1898,1793
1804,1809,1840
1819,1792,1868
1805,1807,1877
1843,1819,1885
1884,1855,1861
1856,1843,1829
1811,1840,1831
1807,1840,1839
1859,1872,1863
1875,1819,1853
1863,1859,1861
1797,1871,1844
1744,1840,1834
1824,1862,1842
1891,1799,1842
1866,1806,1854
1808,1871,1849
1813,1866,1828
1821,1766,1843
1862,1782,1854
1902,1833,1850
1876,1856,1844
1840,1871,1854
1845,1871,1854
1861,1837,1818
1896,1845,1840
1872,1770,1862
1820,1776,1818
1750,1827,1840
1790,1905,1871
1806,1869,1857
1813,1793,1840
1906,1847,1885
1879,1837,1843
1802,1815,1840
1782,1843,1837
1867,1856,1835
1885,1840,1869
1839,1875,1872
1808,1839,1842
1856,1856,1849
1867,1840,1835
1847,1795,1805
1813,1807,1875
1875,1834,1878
1840,1844,1861
1820,1863,1840
1837,1808,1831
1904,1861,1793
1874,1878,1827
1744,1834,1874
1729,1776,1866
1789,1802,1839
1857,1898,1840
1879,1847,1863
1893,1796,1859
1853,1838,1847
1809,1809,1786
1826,1854,1833
1865,1840,1861
1856,1855,1828
1849,1878,1861
1904,1891,1885
1883,1841,1865
1821,1773,1840
1871,1833,1845
1825,1858,1855
1792,1828,1843
1834,1825,1838
1841,1852,1841
1825,1849,1840
1779,1849,1840
1866,1890,1845
1873,1853,1877
1814,1767,1843
1773,1776,1836
1835,1814,1827
1889,1828,1814
1883,1840,1830
1901,1876,1901
1895,1857,1872
1853,1894,1834
1845,1847,1866
1794,1856,1901
1785,1827,1883
1879,1808,1856
1881,1794,1809
1840,1803,1840
1866,1856,1841
1838,1827,1842
1804,1809,1828
1777,1721,1823
1807,1886,1898
1834,1895,1855
1813,1798,1839
1872,1792,1836
1872,1778,1831
1855,1850,1872
1819,1846,1868
1858,1863,1869
1862,1840,1862
1838,1904,1841
1856,1892,1856
1863,1781,1851
1814,1737,1824
1813,1744,1808
1816,1842,1863
1863,1831,1892
1869,1846,1829
1881,1860,1799
1866,1850,1873
1813,1831,1904
1794,1801,1877
1798,1818,1840
1819,1805,1808
1843,1819,1849
1859,1872,1867
1872,1853,1862
1862,1855,1859
1903,1845,1843
1858,1827,1841
1821,1841,1853
1866,1943,1865
1912,1965,1850
1871,1740,1838
1790,1774,1865
1793,1776,1825
1886,1814,1872
1873,1830,1854
1784,1818,1853
1755,1819,1856
1808,1823,1850
1910,1836,1858
1881,1841,1859
1796,1815,1830
1767,1805,1850
1804,1837,1866
1872,1856,1856
1953,1854,1844
1877,1855,1854
1834,1890,1863
1805,1886,1875
1795,1792,1826
1841,1699,1775
1829,1845,1847
1808,1903,1893
1840,1761,1866
1878,1830,1855
1818,1845,1867
1838,1868,1847
1799,1791,1815
1871,1731,1813
1838,1827,1893
1805,1861,1885
1904,1872,1847
1861,1821,1834
1770,1808,1856
1776,1840,1843
1842,1794,1821
1902,1840,1851
1838,1870,1862
1831,1872,1856
1888,1889,1863
1841,1791,1840
1808,1784,1840
1861,1840,1840
1902,1886,1858
1829,1852,1866
1758,1774,1856
1760,1803,1839
1835,1875,1831
1857,1811,1842
1840,1803,1872
1831,1799,1829
1855,1770,1778
1840,1840,1856
1857,1891,1871
1879,1863,1860
1818,1841,1851
1851,1845,1872
1965,1876,1883
1807,1839,1840
1799,1898,1828
1899,1725,1789
1791,1810,1840
1826,1860,1873
1815,1840,1855
1868,1931,1854
1853,1866,1861
1906,1817,1835
1824,1737,1799
1794,1824,1852
1795,1831,1872
1806,1836,1863
1793,1810,1819
1895,1751,1791
1895,1808,1829
1831,1856,1842
1795,1847,1862
1780,1829,1871
1913,1856,1891
1910,1874,1869
1795,1847,1822
1778,1811,1826
1811,1845,1840
1893,1833,1832
1885,1837,1834
1861,1842,1858
1852,1873,1854
1851,1856,1824
1855,1867,1834
1782,1802,1877
1778,1815,1899
1821,1809,1857
1884,1854,1846
1938,1905,1819
1858,1767,1787
1776,1793,1831
1821,1823,1871
1808,1890,1827
1778,1801,1853
1805,1775,1874
1826,1797,1847
1840,1811,1841
1856,1841,1849
1923,1878,1873
1925,1881,1871
1889,1808,1836
1901,1814,1834
1806,1910,1856
1744,1851,1880
1790,1803,1851
1894,1834,1852
1874,1851,1837
1810,1834,1846
1794,1843,1872
1831,1862,1849
1838,1881,1818
1850,1807,1826
1873,1792,1869
1862,1803,1868
1845,1827,1841
1829,1877,1840
1867,1853,1847
1899,1807,1853
1849,1769,1792
1840,1868,1816
1796,1857,1878
1840,1858,1857
1940,1877,1859
1827,1841,1872
1814,1788,1846
1839,1866,1858
1818,1826,1843
1782,1838,1838
1794,1776,1856
1904,1825,1877
1906,1871,1860
1807,1856,1831
1793,1847,1827
1834,1823,1850
1873,1866,1867
1872,1856,1840
1925,1861,1834
1935,1938,1856
1862,1830,1825
1737,1719,1814
1747,1779,1852
1833,1851,1859
1891,1840,1825
1909,1851,1841
1855,1863,1854
1833,1806,1824
1799,1845,1840
1841,1821,1879
1899,1789,1898
1805,1806,1856
1762,1840,1835
1840,1859,1841
1858,1852,1856
1822,1824,1835
1855,1856,1835
1935,1901,1883
1877,1831,1865
1773,1827,1815
1821,1807,1783
1890,1808,1811
1925,1925,1877
1847,1854,1874
1777,1843,1872
1847,1772,1817
1935,1821,1837
1851,1833,1838
1791,1823,1808
1776,1792,1845
1802,1778,1866
1807,1815,1883
1798,1834,1898
1873,1832,1856
1877,1818,1802
1903,1840,1830
1840,1842,1857
1807,1859,1858
1840,1834,1850
1874,1860,1860
1877,1886,1839
1808,1863,1838
1813,1859,1841
1902,1901,1842
1906,1777,1827
1872,1823,1839
1790,1797,1830
1771,1749,1862
1843,1787,1854
1854,1808,1853
1795,1797,1837
1858,1881,1879
1927,1886,1885
1874,1808,1767
1829,1795,1814
1843,1821,1842
1845,1856,1856
1877,1847,1849
1815,1871,1878
1865,1889,1872
1874,1851,1826
1881,1883,1829
1872,1858,1826
1810,1753,1809
1837,1819,1850
1872,1936,1873
1859,1809,1842
1808,1813,1823
1825,1838,1825
1808,1847,1836
1839,1808,1872
1830,1807,1868
1824,1826,1842
1819,1847,1845
1873,1855,1851
1954,1840,1823
1927,1825,1799
1808,1857,1874
1783,1854,1869
1791,1839,1833
1917,1873,1837
1861,1826,1840
1794,1829,1857
1791,1812,1840
1841,1867,1834
1884,1979,1857
1890,1774,1853
1792,1793,1834
1839,1942,1827
1885,1798,1863
1872,1712,1858
1775,1743,1818
1782,1792,1823
1874,1810,1794
1937,1871,1845
1856,1835,1854
1823,1853,1849
1840,1861,1842
1805,1851,1851
1802,1829,1838
1840,1845,1841
1872,1855,1831
1920,1856,1831
1919,1903,1859
1839,1850,1814
1843,1814,1840
1837,1744,1814
1776,1828,1846
1821,1901,1882
1827,1920,1839
1776,1786,1764
1765,1750,1857
1808,1774,1871
1866,1806,1843
1840,1821,1853
1841,1847,1856
1919,1886,1870
1989,1893,1856
1871,1839,1844
1744,1799,1819
1747,1835,1835
1791,1873,1840
1810,1873,1840
1851,1833,1840
1872,1801,1841
1854,1843,1850
1808,1839,1856
1835,1856,1862
1851,1807,1807
1959,1804,1792
1844,1853,1890
1698,1788,1894
1777,1814,1841
1881,1840,1840
1859,1837,1873
1808,1823,1839
1821,1837,1823
1829,1837,1840
1840,1826,1855
1904,1853,1856
1863,1870,1839
1922,1936,1831
1978,1873,1847
1760,1755,1835
1744,1808,1840
1861,1887,1826
1805,1802,1789
1802,1748,1840
1829,1808,1872
1865,1857,1875
1822,1817,1840
1792,1817,1835
1905,1885,1853
1902,1843,1851
1795,1814,1839
1787,1851,1855
1825,1855,1849
1936,1847,1823
1860,1881,1837
1813,1845,1850
1842,1855,1857
1833,1823,1836
1828,1845,1855
1895,1827,1808
1841,1805,1810
1803,1845,1872
1855,1803,1838
1889,1792,1858
1765,1803,1852
1813,1904,1866
1792,1822,1866
1887,1787,1855
1913,1819,1856
1781,1795,1833
1776,1770,1817
1806,1840,1840
1872,1879,1845
1873,1833,1854
1807,1808,1853
1813,1845,1856
1867,1873,1846
1854,1835,1845
1831,1826,1856
1867,1850,1847
1906,1954,1794
1857,1830,1852
1835,1779,1881
1775,1776,1818
1813,1830,1840
1772,1776,1861
1785,1805,1871
1827,1805,1851
1872,1782,1822
1877,1856,1856
1857,1856,1877
1844,1863,1834
1824,1840,1823
1840,1809,1843
1887,1839,1825
1827,1811,1825
1828,1871,1856
1867,1852,1856
1799,1839,1831
1821,1797,1804
1857,1753,1791
1868,1842,1856
1791,1774,1857
1773,1808,1904
1825,1874,1868
1856,1792,1836
1869,1762,1840
1811,1828,1872
1854,1855,1841
1809,1802,1807
1837,1805,1840
1882,1886,1879
1943,1904,1877
1824,1853,1856
1808,1799,1840
1825,1803,1839
1840,1855,1842
1873,1865,1840
1861,1856,1839
1823,1822,1823
1899,1814,1790
1901,1872,1840
1794,1808,1871
1775,1725,1845
1791,1835,1844
1822,1894,1835
1813,1828,1862
1818,1788,1869
1868,1818,1861
1887,1838,1835
1841,1849,1831
1851,1845,1840
1843,1847,1830
1831,1861,1831
1838,1827,1838
1871,1853,1855
1905,1868,1862
1851,1888,1813
1856,1759,1695
1847,1747,1809
1794,1847,1919
1787,1853,1915
1814,1791,1840
1857,1792,1810
1885,1882,1795
1847,1823,1830
1793,1815,1851
1830,1856,1883
1808,1866,1849
1838,1851,1819
1833,1866,1842
1887,1819,1844
1887,1822,1835
1856,1844,1843
1803,1844,1854
1840,1845,1856
1871,1902,1858
1840,1868,1822
1871,1793,1774
1863,1799,1810
1856,1853,1883
1850,1828,1884
1824,1859,1846
1803,1712,1794
1822,1781,1870
1854,1887,1882
1870,1866,1849
1862,1871,1833
1879,1874,1840
1876,1889,1822
1872,1857,1831
1795,1823,1862
1818,1839,1843
1841,1840,1845
1889,1872,1844
1873,1833,1853
1822,1869,1839
1849,1871,1831
1859,1820,1856
1944,1870,1850
1886,1795,1826
1776,1782,1835
1823,1826,1873
1800,1856,1856
1836,1857,1837
1878,1823,1856
1861,1780,1840
1856,1783,1809
1899,1841,1840
1840,1853,1856
1835,1802,1823
1834,1781,1833
1847,1882,1850
1879,1895,1855
1900,1854,1839
1815,1835,1850
1792,1831,1855
1822,1899,1835
1827,1843,1845
1829,1820,1864
1873,1842,1877
1889,1833,1811
1904,1865,1845
1829,1805,1837
1781,1781,1840
1802,1819,1843
1858,1943,1850
1891,1808,1875
1863,1782,1872
1861,1776,1847
1802,1798,1831
1820,1815,1865
1839,1808,1849
1825,1833,1840
1871,1840,1836
1870,1829,1840
1827,1840,1842
1842,1853,1841
1879,1835,1856
1926,1856,1873
1929,1869,1875
1894,1879,1852
1842,1835,1776
1743,1764,1807
1782,1902,1858
1839,1881,1890
1840,1791,1866
1828,1767,1859
1936,1796,1845
1955,1766,1815
1845,1822,1887
1776,1811,1876
1776,1867,1839
1829,1776,1827
1831,1797,1838
1863,1858,1866
1877,1861,1851
1844,1879,1872
1840,1826,1841
1834,1840,1855
1840,1847,1851
1861,1842,1847
1854,1783,1802
1897,1855,1842
1899,1828,1861
1882,1853,1859
1779,1802,1849
1760,1811,1855
1853,1894,1850
1866,1829,1872
1797,1775,1856
1805,1771,1835
1841,1860,1853
1857,1843,1860
1872,1824,1840
1865,1855,1839
1870,1852,1840
1843,1808,1843
1890,1834,1845
1871,1838,1863
1883,1840,1856
1860,1837,1858
1806,1853,1846
1840,1875,1840
1927,1850,1808
1991,1857,1858
1866,1859,1856
1744,1759,1829
1764,1793,1825
1789,1851,1834
1787,1786,1856
1869,1820,1887
1859,1803,1859
1812,1837,1840
1858,1829,1837
1909,1871,1841
1857,1850,1864
1808,1829,1843
1820,1821,1830
1891,1855,1863
1929,1870,1863
1873,1850,1816
1846,1861,1815
1817,1823,1837
1766,1776,1833
1795,1840,1888
1821,1838,1858
1873,1776,1839
1821,1795,1839
1827,1839,1850
1817,1830,1843
1847,1830,1869
1865,1868,1868
1851,1830,1823
1824,1815,1819
1854,1806,1841
1852,1863,1851
1895,1910,1861
1904,1872,1855
1847,1832,1840
1816,1872,1819
1826,1808,1786
1824,1712,1837
1801,1770,1869
1802,1856,1870
1813,1845,1865
1891,1833,1856
1933,1854,1855
1814,1845,1839
1778,1817,1839
1832,1838,1837
1808,1789,1798
1795,1815,1843
1835,1851,1859
1872,1869,1872
1904,1846,1846
1879,1869,1853
1904,1898,1851
1869,1819,1840
1781,1795,1840
1779,1834,1824
1858,1795,1791
1851,1935,1892
1845,1820,1861
1827,1813,1829
1829,1848,1819
1841,1869,1855
1779,1802,1863
1839,1818,1867
1869,1895,1862
1825,1889,1882
1828,1815,1887
1819,1798,1827
1840,1833,1806
1840,1840,1811
1847,1854,1843
1893,1845,1856
1919,1847,1840
1866,1869,1845
1808,1872,1855
1821,1847,1866
1840,1821,1839
1866,1823,1840
1872,1865,1831
1915,1887,1776
1882,1773,1766
1758,1744,1847
1746,1846,1899
1808,1948,1877
1776,1811,1872
1808,1787,1867
1849,1791,1843
1859,1818,1849
1840,1825,1851
1790,1808,1847
1814,1834,1840
1891,1861,1850
1896,1862,1846
1814,1860,1854
1808,1886,1865
1846,1876,1845
1937,1850,1838
1899,1837,1823
1851,1811,1807
1818,1870,1830
1874,1814,1866
1825,1791,1847
1793,1803,1840
1813,1850,1847
1861,1810,1837
1814,1805,1799
1782,1833,1855
1820,1856,1877
1837,1898,1872
1825,1920,1850
1792,1787,1831
1879,1819,1848
1885,1819,1839
1846,1829,1840
1811,1845,1858
1835,1873,1854
1885,1991,1822
1867,1765,1837
1837,1762,1884
1872,1809,1865
1857,1799,1822
1847,1835,1849
1755,1814,1857
1758,1815,1857
1799,1794,1830
1846,1859,1861
1873,1872,1856
1931,1862,1847
1831,1817,1827
1829,1863,1840
1849,1875,1850
1911,1943,1847
1866,1795,1739
1739,1753,1855
1779,1778,1911
1820,1808,1897
1894,1823,1872
1921,1850,1855
1837,1841,1851
1776,1849,1840
1919,1846,1840
1867,1841,1872
1757,1772,1844
1746,1782,1835
1845,1783,1834
1837,1822,1847
1889,1872,1859
1856,1872,1866
1819,1828,1855
1827,1840,1859
1843,1840,1826
1840,1857,1823
1898,1858,1829
1845,1868,1856
1823,1854,1840
1787,1783,1833
1872,1788,1842
1887,1801,1845
1859,1837,1854
1871,1825,1843
1857,1788,1848
1792,1815,1850
1779,1856,1856
1834,1885,1833
1925,1807,1808
1859,1833,1877
1779,1831,1875
1824,1840,1853
1908,1875,1840
1893,1807,1822
1772,1800,1820
1742,1862,1849
1823,1835,1855
1899,1825,1838
1865,1811,1857
1787,1861,1865
1803,1851,1835
1831,1777,1831
1872,1805,1849
1842,1808,1843
1823,1825,1840
1869,1914,1869
1890,1851,1855
1850,1795,1856
1792,1818,1846
1822,1843,1855
1874,1888,1869
1883,1909,1849
1885,1845,1861
1854,1806,1806
1803,1758,1810
1791,1776,1821
1831,1931,1889
1809,1833,1884
1824,1780,1840
1843,1790,1844
1850,1810,1833
1853,1810,1851
1863,1829,1869
1842,1802,1821
1872,1938,1831
1887,1831,1826
1808,1815,1856
1837,1838,1859
1851,1845,1840
1856,1855,1833
1847,1885,1833
1856,1861,1847
1867,1887,1806
1806,1830,1840
1778,1754,1847
1825,1763,1853
1855,1793,1841
1828,1798,1822
1901,1840,1846
1879,1856,1859
1904,1858,1863
1842,1826,1863
1831,1794,1795
1831,1819,1835
1829,1866,1883
1873,1847,1855
1904,1847,1830
1872,1840,1839
1831,1833,1789
1791,1808,1840
1766,1823,1889
1862,1863,1872
1874,1882,1863
1842,1841,1847
1823,1873,1845
1872,1806,1856
1926,1811,1843
1886,1825,1841
1820,1866,1841
1860,1848,1843
1958,1856,1855
1844,1809,1840
1791,1785,1827
1773,1791,1814
1823,1844,1841
1826,1871,1857
1846,1840,1867
1872,1888,1840
1895,1755,1745
1867,1771,1838
1839,1870,1877
1802,1849,1851
1819,1813,1858
1817,1822,1859
1841,1927,1844
1862,1827,1831
1861,1774,1841
1888,1818,1860
1871,1842,1871
1874,1871,1860
1853,1869,1831
1783,1839,1820
1806,1823,1852
1871,1883,1869
1840,1855,1818
1862,1790,1815
1840,1817,1849
1875,1881,1845
1868,1856,1834
1821,1801,1843
1837,1808,1877
1908,1987,1897
1852,1814,1839
1856,1759,1855
1885,1813,1838
1843,1805,1854
1791,1815,1859
1894,1835,1870
1881,1826,1829
1824,1840,1840
1792,1826,1833
1818,1806,1821
1840,1855,1895
1861,1895,1899
1874,1871,1846
1882,1793,1813
1839,1776,1810
1882,1891,1837
2018,1865,1829
1856,1819,1861
1749,1883,1882
1758,1856,1858
1855,1790,1841
1830,1797,1872
1867,1842,1901
1840,1793,1840
1808,1798,1809
1815,1812,1833
1863,1818,1853
1870,1853,1854
1866,1869,1855
1819,1835,1857
1856,1831,1845
1953,1881,1840
1883,1840,1817
1831,1831,1860
1791,1805,1857
1855,1863,1843
1913,1871,1826
1924,1728,1743
1823,1843,1854
1767,1921,1889
1799,1808,1858
1879,1802,1856
1867,1839,1859
1811,1798,1859
1891,1872,1847
1933,1793,1839
1861,1829,1871
1808,1812,1840
1809,1821,1839
1855,1871,1855
1922,1895,1833
1825,1792,1813
1791,1779,1818
1790,1819,1845
1838,1862,1858
1875,1856,1857
1878,1845,1840
1875,1794,1786
1898,1856,1862
1905,1949,1882
1831,1823,1883
1775,1783,1840
1794,1719,1809
1835,1809,1841
1901,1884,1869
1847,1841,1841
1807,1820,1839
1793,1831,1853
1859,1877,1859
1856,1829,1863
1833,1839,1839
1886,1854,1856
1870,1847,1840
1803,1846,1840
1919,1808,1829
1887,1858,1796
1837,1839,1839
1787,1754,1871
1777,1769,1858
1836,1857,1854
1803,1798,1849
1798,1813,1856
1867,1856,1860
1904,1851,1840
1834,1835,1831
1770,1808,1825
1799,1821,1857
1836,1831,1862
1829,1855,1833
1837,1890,1826
1937,1841,1841
1940,1852,1861
1795,1844,1855
1789,1845,1850
1872,1894,1799
1886,1776,1769
1872,1800,1866
1890,1835,1907
1867,1808,1872
1744,1809,1829
1757,1817,1830
1802,1818,1838
1851,1823,1847
1889,1831,1840
1887,1971,1871
1791,1808,1845
1776,1776,1841
1871,1822,1842
1875,1866,1851
1824,1826,1855
1899,1845,1851
1838,1839,1838
1788,1812,1840
1793,1814,1827
1821,1856,1840
1808,1859,1840
1893,1851,1851
1876,1790,1839
1834,1803,1846
1826,1829,1822
1845,1872,1808
1859,1795,1818
1806,1853,1881
1803,1797,1846
1819,1837,1853
1904,1903,1866
1863,1861,1848
1770,1786,1856
1755,1795,1835
1813,1824,1834
1911,1850,1859
1878,1856,1861
1779,1819,1849
1812,1851,1834
1857,1845,1841
1857,1875,1854
1791,1857,1840
1788,1823,1854
1857,1785,1836
1961,1846,1846
1872,1841,1814
1762,1857,1838
1730,1794,1847
1776,1768,1871
1869,1828,1872
1854,1844,1863
1810,1856,1857
1818,1873,1871
1824,1831,1862
1776,1790,1808
1842,1840,1821
1841,1857,1872
1857,1860,1876
1859,1840,1845
1958,1862,1854
1904,1895,1839
1743,1846,1829
1737,1797,1872
1776,1800,1831
1878,1791,1739
1873,1767,1817
1856,1805,1897
1803,1813,1898
1751,1826,1856
1791,1814,1840
1808,1823,1842
1838,1813,1843
1891,1877,1870
1971,1872,1849
1838,1847,1858
1759,1826,1859
1776,1909,1817
1840,1871,1814
1888,1801,1859
1862,1856,1867
1819,1867,1852
1880,1810,1840
1904,1808,1840
1782,1792,1834
1777,1779,1792
1842,1798,1829
1766,1879,1890
1790,1867,1904
1834,1783,1855
1856,1820,1825
1788,1803,1824
1808,1828,1840
1862,1865,1854
1854,1855,1837
1858,1843,1837
1840,1879,1843
1895,1851,1862
1918,1910,1861
1802,1777,1824
1744,1815,1821
1801,1856,1840
1847,1840,1853
1875,1838,1844
1904,1811,1872
1876,1826,1861
1823,1920,1808
1759,1791,1775
1831,1781,1855
1874,1806,1905
1772,1819,1863
1727,1813,1831
1770,1899,1823
1815,1840,1856
1857,1811,1867
1829,1814,1862
1850,1835,1854
1847,1857,1847
1847,1858,1840
1906,1846,1840
2000,1919,1861
1955,1938,1886
1722,1801,1859
1743,1755,1819
1798,1789,1823
1843,1850,1850
1859,1872,1840
1824,1879,1842
1837,1733,1792
1827,1733,1811
1855,1823,1853
1810,1839,1883
1819,1829,1873
1803,1897,1859
1771,1839,1839
1791,1776,1847
1795,1797,1838
1858,1847,1843
1872,1859,1837
1899,1840,1855
1840,1840,1845
1867,1878,1847
1857,1904,1858
1843,1863,1857
1851,1846,1830
1878,1846,1846
1790,1894,1862
1815,1836,1831
1802,1718,1808
1808,1791,1871
1825,1843,1872
1866,1807,1818
1782,1870,1863
1796,1846,1857
1852,1901,1825
1857,1803,1806
1847,1809,1872
1840,1835,1869
1856,1868,1842
1781,1853,1856
1791,1838,1872
1822,1847,1859
1859,1847,1840
1838,1853,1838
1821,1856,1853
1840,1904,1853
1863,1855,1839
1893,1791,1840
1872,1827,1840
1854,1808,1778
1888,1841,1854
1776,1735,1881
1719,1767,1874
1776,1798,1851
1808,1856,1839
1813,1871,1857
1856,1854,1855
1846,1792,1856
1805,1802,1829
1840,1827,1839
1900,1843,1848
1867,1835,1847
1805,1847,1839
1783,1836,1828
1814,1845,1858
1921,1872,1862
1929,1895,1840
1846,1913,1835
1819,1808,1813
1814,1702,1787
1847,1855,1861
1870,1851,1872
1830,1819,1870
1783,1840,1841
1746,1796,1853
1803,1823,1849
1831,1808,1845
1843,1783,1834
1862,1829,1840
1866,1817,1821
1852,1742,1803
1867,1776,1838
1840,1907,1873
1840,1906,1889
1809,1840,1869
1871,1857,1861
1840,1847,1837
1792,1831,1843
1815,1821,1831
1833,1847,1882
1850,1808,1845
1894,1779,1828
1929,1859,1832
1798,1795,1770
1733,1712,1829
1788,1840,1905
1778,1888,1878
1779,1804,1840
1855,1805,1846
1841,1840,1841
1918,1872,1869
1891,1918,1866
1856,1868,1863
1814,1799,1834
1811,1772,1810
1823,1817,1832
1810,1867,1853
1861,1909,1841
1834,1838,1872
1837,1840,1871
1841,1843,1810
1872,1758,1808
1788,1793,1847
1847,1878,1895
1871,1904,1878
1814,1829,1827
1808,1788,1840
1879,1821,1847
1946,1843,1863
1826,1805,1839
1781,1811,1843
1817,1879,1858
1863,1866,1869
1889,1821,1854
1840,1805,1808
1819,1792,1791
1802,1840,1862
1918,1840,1838
1837,1821,1838
1798,1855,1855
1820,1828,1862
1833,1853,1871
1869,1932,1856
1847,1825,1838
1869,1808,1822
1852,1840,1846
1842,1808,1875
1846,1802,1841
1791,1825,1840
1819,1840,1854
1857,1841,1850
1874,1902,1871
1840,1843,1872
1891,1807,1790
1887,1808,1823
1786,1835,1873
1797,1872,1869
1819,1826,1827
1795,1823,1845
1966,1888,1882
1881,1859,1840
1802,1961,1856
1783,1871,1840
1863,1766,1849
1878,1760,1842
1817,1842,1856
1823,1822,1853
1837,1807,1842
1840,1839,1845
1819,1814,1839
1851,1799,1850
1856,1810,1841
1874,1879,1851
1813,1897,1851
1823,1783,1859
1910,1839,1856
1863,1840,1845
1849,1830,1841
1884,1878,1879
1810,1833,1851
1796,1872,1854
1799,1883,1849
1838,1802,1827
