1801,1778,1855
1808,1828,1878
1873,1840,1863
1876,1856,1840
1869,1878,1846
1851,1879,1844
1783,1807,1840
1798,1779,1854
1835,1807,1844
1905,1838,1840
1884,1855,1843
1859,1879,1841
1875,1890,1846
1858,1920,1862
1872,1758,1739
1821,1794,1865
1787,1831,1899
1810,1764,1863
1783,1815,1821
1776,1874,1840
1813,1831,1867
1825,1787,1855
1838,1813,1872
1877,1851,1861
1861,1847,1843
1838,1898,1842
1872,1821,1824
1881,1813,1840
1920,1851,1852
1817,1894,1843
1797,1867,1821
1871,1822,1811
1894,1841,1845
1829,1867,1889
1782,1785,1850
1762,1789,1828
1782,1789,1842
1868,1795,1871
1920,1806,1849
1824,1814,1799
1838,1840,1856
1877,1831,1873
1915,1885,1893
1786,1835,1890
1793,1826,1856
1866,1861,1825
1873,1872,1767
1831,1815,1840
1771,1823,1886
1818,1840,1884
1847,1791,1840
1872,1806,1823
1878,1807,1857
1857,1814,1852
1861,1851,1879
1795,1868,1872
1817,1850,1855
1851,1809,1827
1838,1839,1827
1897,1881,1863
1892,1899,1839
1821,1808,1857
1814,1822,1856
1820,1873,1866
1857,1853,1869
1866,1815,1856
1850,1803,1836
1873,1853,1787
1809,1872,1837
1817,1840,1780
1839,1776,1874
1877,1802,1929
1837,1799,1904
1837,1818,1851
1808,1851,1819
1856,1821,1840
1885,1831,1854
1872,1858,1873
1798,1807,1840
1819,1935,1825
1831,1825,1815
1812,1792,1841
1843,1802,1874
1899,1862,1877
1870,1849,1839
1885,1798,1766
1822,1833,1842
1907,1856,1840
1963,1943,1872
1779,1920,1846
1742,1778,1840
1777,1791,1861
1808,1791,1858
1806,1776,1856
1851,1826,1858
1849,1847,1859
1863,1829,1838
1875,1831,1817
1840,1829,1864
1850,1819,1874
1857,1833,1778
1879,1857,1811
1875,1866,1888
1845,1840,1899
1842,1873,1846
1808,1764,1798
1743,1794,1854
1808,1837,1881
1897,1936,1873
1904,1933,1856
1856,1837,1838
1856,1792,1850
1843,1805,1861
1822,1840,1850
1787,1812,1835
1840,1833,1840
1962,1838,1851
1904,1893,1855
1830,1831,1765
1803,1753,1797
1778,1798,1873
1840,1941,1904
1838,1831,1872
1826,1764,1838
1825,1847,1857
1799,1830,1845
1808,1840,1853
1899,1825,1858
1847,1798,1856
1832,1853,1827
1839,1805,1866
1850,1817,1862
1905,1850,1845
1924,1888,1869
1840,1853,1837
1808,1783,1833
1799,1786,1819
1808,1866,1872
1830,1909,1855
1811,1904,1869
1793,1884,1851
1862,1797,1862
1890,1725,1804
1851,1847,1830
1834,1871,1841
1815,1792,1840
1837,1777,1856
1811,1789,1884
1853,1833,1872
1932,1853,1854
1911,1836,1857
1815,1805,1833
1810,1837,1827
1847,1892,1835
1825,1831,1841
1861,1837,1874
1858,1865,1855
1947,1813,1790
1866,1793,1830
1776,1904,1907
1828,1883,1873
1870,1919,1835
1855,1774,1807
1880,1717,1844
1846,1830,1865
1850,1904,1840
1838,1809,1845
1773,1758,1847
1821,1805,1840
1841,1854,1845
1872,1872,1844
1808,1808,1847
1864,1836,1867
1869,1844,1840
1804,1840,1843
1808,1830,1827
1897,1851,1811
1891,1869,1856
1883,1859,1869
1833,1963,1851
1808,1745,1811
1854,1734,1859
1839,1817,1878
1876,1819,1837
1829,1792,1835
1773,1798,1847
1794,1813,1835
1824,1939,1847
1937,1872,1882
1893,1815,1865
1759,1814,1838
1776,1783,1835
1855,1771,1836
1918,1894,1840
1895,1835,1819
1821,1874,1827
1840,1841,1877
1831,1851,1859
1781,1801,1847
1826,1798,1836
1883,1788,1823
1847,1745,1790
1791,1834,1887
1847,1901,1895
1852,1831,1858
1815,1825,1837
1879,1820,1840
1901,1840,1863
1866,1872,1837
1830,1872,1840
1840,1862,1851
1834,1827,1870
1891,1841,1842
1902,1829,1840
1835,1839,1840
1803,1936,1850
1895,1819,1783
1904,1777,1863
1803,1869,1914
1807,1840,1879
1831,1793,1843
1885,1806,1799
1875,1871,1829
1891,1838,1835
1889,1810,1846
1746,1788,1845
1754,1797,1859
1858,1831,1851
1844,1850,1841
1837,1860,1851
1840,1840,1841
1862,1856,1841
1869,1861,1846
1906,1883,1842
1873,1925,1835
1969,1875,1818
1938,1818,1818
1793,1814,1851
1769,1722,1861
1797,1745,1879
1810,1807,1872
1828,1834,1849
1840,1799,1825
1855,1799,1851
1858,1871,1853
1826,1863,1841
1813,1840,1835
1841,1851,1849
1841,1873,1858
1872,1866,1863
1859,1843,1851
1936,1872,1840
1853,1905,1838
1849,1873,1840
1911,1776,1849
1833,1808,1852
1779,1803,1840
1805,1788,1850
1813,1825,1840
1885,1903,1843
1899,1839,1779
1930,1791,1836
1819,1811,1899
1791,1794,1877
1825,1839,1854
1834,1826,1851
1877,1851,1802
1818,1755,1822
1838,1734,1843
1808,1803,1892
1840,1823,1871
1838,1829,1849
1813,1809,1849
1879,1840,1859
1936,1866,1856
1886,1878,1850
1842,1886,1833
1791,1895,1817
1870,1765,1840
1899,1799,1861
1829,1840,1851
1818,1791,1849
1785,1760,1855
1823,1799,1867
1862,1834,1847
1825,1853,1838
1870,1890,1839
1861,1840,1873
1902,1774,1858
1903,1826,1806
1837,1777,1826
1761,1819,1862
1807,1830,1856
1867,1881,1855
1866,1866,1838
1867,1814,1841
1876,1810,1845
1856,1847,1847
1853,1852,1840
1840,1849,1849
1822,1881,1820
1856,1824,1824
1835,1873,1906
1814,1825,1899
1895,1847,1852
1951,1871,1803
1858,1811,1827
1810,1811,1850
1859,1845,1830
1810,1815,1823
1821,1870,1839
1823,1814,1863
1879,1797,1856
1851,1885,1855
1808,1847,1845
1787,1805,1840
1808,1855,1843
1859,1887,1868
1915,1839,1861
1917,1892,1831
1833,1825,1829
1829,1856,1841
1873,1808,1824
1907,1797,1825
1883,1869,1884
1858,1887,1872
1814,1823,1840
1810,1855,1841
1908,1858,1839
1877,1840,1758
1733,1750,1857
1778,1802,1904
1842,1883,1872
1897,1989,1840
1829,1775,1855
1807,1767,1863
1823,1787,1840
1861,1821,1840
1840,1838,1844
1843,1849,1854
1879,1870,1863
1850,1842,1830
1834,1843,1819
1845,1846,1840
1867,1856,1845
1919,1877,1856
1862,1945,1831
1824,1854,1806
1808,1786,1823
1839,1853,1875
1857,1914,1874
1893,1839,1829
1813,1786,1855
1840,1791,1862
1833,1835,1840
1853,1849,1845
1840,1833,1847
1840,1821,1852
1872,1812,1843
1871,1890,1836
1837,1814,1833
1818,1839,1851
1845,1861,1869
1855,1842,1861
1895,1858,1860
1828,1851,1847
1835,1903,1814
1828,1873,1781
1824,1840,1869
1858,1749,1867
1895,1757,1841
1837,1813,1807
1812,1833,1872
1808,1840,1871
1809,1799,1861
1890,1851,1863
1889,1833,1841
1886,1856,1841
1826,1853,1870
1811,1821,1839
1856,1914,1823
1877,1842,1826
1835,1800,1841
1830,1857,1838
1871,1824,1867
1834,1794,1826
1857,1753,1753
1922,1968,1839
1825,1917,1871
1746,1797,1878
1765,1815,1841
1873,1810,1851
1886,1805,1840
1834,1825,1863
1771,1807,1872
1837,1815,1846
1841,1808,1822
1831,1856,1840
1823,1868,1840
1848,1837,1841
1882,1843,1840
1851,1845,1833
1826,1869,1851
1830,1867,1855
1872,1842,1853
1936,1874,1833
1863,1840,1803
1789,1871,1827
1840,1841,1823
1837,1808,1861
1815,1790,1854
1838,1706,1821
1798,1839,1856
1823,1863,1872
1877,1833,1872
1870,1827,1853
1822,1840,1824
1795,1822,1835
1843,1843,1842
1862,1833,1846
1941,1914,1851
1871,1837,1846
1767,1789,1837
1840,1825,1843
1846,1849,1850
1846,1862,1847
1856,1866,1840
1837,1825,1829
1886,1811,1790
1911,1860,1851
1827,1890,1875
1760,1797,1876
1818,1866,1861
1863,1831,1815
1899,1790,1824
1909,1822,1864
1806,1815,1855
1789,1854,1833
1836,1851,1843
1803,1782,1849
1825,1843,1840
1815,1797,1839
1819,1803,1847
1889,1840,1851
1845,1841,1853
1802,1869,1841
1847,1874,1845
1901,1828,1853
1889,1879,1843
1857,1822,1819
1798,1765,1830
1828,1822,1871
1861,1829,1873
1873,1866,1830
1808,1751,1808
1779,1829,1856
1808,1829,1859
1872,1852,1851
1873,1851,1843
1898,1861,1868
1853,1840,1840
1808,1844,1840
1844,1845,1859
1918,1913,1840
1874,1913,1847
1803,1727,1826
1783,1751,1811
1836,1804,1811
1856,1794,1871
1823,1793,1873
1850,1791,1853
1858,1882,1840
1871,1888,1856
1792,1833,1840
1798,1867,1831
1819,1838,1831
1901,1818,1855
1865,1811,1840
1818,1794,1842
1875,1856,1851
1868,1836,1819
1808,1845,1851
1818,1814,1808
1866,1776,1823
1853,1874,1851
1822,1903,1840
1830,1799,1856
1882,1790,1866
1873,1825,1847
1829,1813,1768
1787,1811,1819
1794,1808,1870
1837,1838,1872
1897,1840,1841
1858,1825,1840
1872,1881,1858
1872,1882,1841
1858,1840,1829
1823,1792,1838
1799,1855,1846
1857,1914,1835
1879,1838,1849
1836,1809,1833
1813,1823,1847
1863,1828,1839
1872,1813,1850
1862,1838,1865
1822,1817,1866
1838,1830,1840
1903,1869,1827
1840,1737,1785
1807,1831,1854
1857,1850,1872
1865,1869,1850
1855,1825,1847
1857,1773,1851
1805,1759,1856
1798,1847,1875
1822,1855,1889
1856,1910,1842
1856,1863,1813
1909,1809,1805
1847,1765,1854
1850,1806,1869
1827,1886,1861
1876,1878,1839
1806,1821,1841
1792,1813,1861
1879,1799,1862
1873,1824,1857
1801,1842,1854
1824,1808,1808
1902,1870,1833
1805,1819,1867
1811,1847,1885
1794,1831,1873
1830,1865,1840
1862,1870,1854
1891,1968,1843
1886,1798,1858
1866,1776,1852
1813,1819,1837
1849,1840,1840
1808,1791,1869
1811,1840,1859
1874,1850,1862
1855,1871,1869
1808,1898,1842
1827,1795,1840
1836,1773,1855
1827,1792,1847
1901,1838,1863
1872,1844,1845
1831,1877,1869
1808,1805,1799
1833,1857,1875
1916,1968,1888
1914,1863,1873
1813,1731,1818
1772,1746,1861
1806,1808,1871
1855,1831,1842
1853,1791,1809
1864,1862,1847
1854,1953,1889
1813,1873,1859
1830,1809,1838
1811,1773,1840
1858,1849,1883
1872,1887,1843
1873,1787,1808
1807,1753,1782
1771,1806,1839
1801,1887,1863
1886,1869,1872
1933,1840,1874
1885,1813,1845
1754,1786,1823
1750,1774,1814
1842,1815,1840
1950,1851,1858
1833,1926,1859
1782,1817,1834
1813,1799,1871
1872,1835,1889
1887,1873,1879
1865,1821,1857
1871,1789,1835
1819,1821,1796
1826,1890,1791
1791,1851,1855
1839,1805,1901
1835,1791,1863
1801,1791,1830
1827,1825,1841
1818,1838,1867
1873,1861,1875
1933,1849,1821
1901,1838,1825
1830,1761,1827
1845,1811,1845
1791,1874,1855
1784,1817,1847
1805,1826,1875
1847,1872,1842
1883,1815,1840
1821,1808,1834
1823,1843,1822
1917,1843,1794
1871,1824,1904
1861,1746,1889
1819,1757,1828
1770,1841,1818
1871,1887,1824
1893,1861,1887
1745,1771,1864
1760,1775,1808
1810,1803,1808
1835,1853,1838
1882,1927,1843
1872,1821,1793
1825,1795,1856
1883,1897,1872
1878,1855,1863
1808,1776,1858
1837,1815,1875
1814,1790,1841
1827,1853,1813
1874,1814,1810
1941,1876,1851
1903,1922,1869
1820,1841,1856
1817,1826,1867
1791,1868,1841
1792,1772,1785
1799,1782,1815
1854,1829,1831
1877,1901,1874
1845,1863,1862
1815,1837,1859
1815,1788,1849
1839,1811,1814
1899,1799,1841
1859,1822,1873
1846,1808,1856
1846,1843,1845
1810,1858,1853
1824,1840,1839
1870,1840,1824
1868,1841,1836
1820,1887,1845
1834,1841,1868
1900,1857,1867
1874,1890,1807
1857,1853,1795
1847,1807,1833
1851,1825,1800
1817,1909,1836
1795,1859,1886
1818,1787,1888
1840,1823,1826
1883,1765,1824
1873,1771,1843
1792,1789,1840
1776,1822,1838
1868,1833,1837
1866,1858,1855
1872,1878,1864
1869,1872,1845
1904,1878,1838
1872,1846,1840
1845,1870,1851
1905,1890,1854
1918,1937,1847
1815,1793,1812
1731,1759,1840
1770,1834,1865
1835,1881,1836
1850,1808,1807
1846,1800,1870
1875,1807,1872
1841,1823,1858
1862,1882,1881
1867,1847,1837
1895,1824,1805
1901,1831,1797
1943,1871,1825
1846,1850,1871
1819,1898,1872
1881,1874,1813
1920,1781,1755
1808,1833,1827
1835,1921,1895
1867,2000,1872
1855,1866,1834
1793,1742,1854
1805,1755,1855
1859,1782,1803
1791,1763,1818
1790,1793,1847
1814,1819,1865
1856,1889,1838
1889,1882,1837
1840,1881,1861
1859,1907,1895
1872,1867,1869
1865,1842,1820
1841,1855,1808
1857,1874,1806
1865,1831,1793
1871,1842,1809
1860,1871,1837
1908,2027,1897
1764,1725,1837
1694,1659,1812
1776,1735,1851
1814,1831,1826
1841,1830,1840
1841,1818,1835
1841,1827,1843
1862,1859,1841
1837,1863,1841
1875,1871,1834
1891,1852,1834
1879,1866,1839
1824,1856,1840
1803,1872,1839
1854,1919,1857
1840,1853,1851
1855,1796,1833
1878,1804,1813
1879,1905,1823
1783,1808,1891
1786,1786,1845
1795,1805,1835
1840,1808,1836
1937,1779,1869
1863,1803,1851
1797,1803,1855
1785,1819,1856
1842,1873,1872
1826,1867,1876
1813,1838,1831
1897,1872,1818
1877,1892,1859
1859,1872,1865
1867,1812,1839
1858,1796,1803
1823,1824,1788
1845,1825,1791
1889,1867,1872
1821,1767,1873
1808,1836,1890
1847,1779,1845
1764,1749,1819
1795,1786,1853
1846,1847,1875
1870,1860,1877
1840,1815,1840
1853,1830,1867
1887,1871,1850
1897,1862,1847
1890,1849,1821
1840,1871,1865
1803,1849,1840
1825,1823,1829
1867,1899,1809
1890,1966,1872
1981,1718,1801
1783,1693,1840
1687,1801,1898
1773,1844,1903
1931,1892,1866
1915,1945,1830
1751,1786,1835
1803,1817,1844
1862,1821,1861
1906,1826,1853
1894,1837,1846
1863,1839,1841
1900,1870,1854
1904,1863,1857
1798,1808,1858
1761,1817,1851
1847,1873,1828
1877,1940,1807
1830,1798,1843
1815,1778,1858
1871,1790,1846
1838,1787,1840
1825,1829,1856
1809,1811,1830
1843,1853,1837
1914,1859,1778
1811,1788,1845
1819,1829,1875
1881,1865,1874
1852,1854,1855
1824,1827,1840
1904,1856,1822
2081,1907,1829
1874,1842,1826
1808,1840,1859
1877,2027,1882
1910,1917,1865
1783,1730,1822
1751,1696,1822
1903,1850,1794
1889,1817,1794
1804,1762,1854
1807,1776,1862
1854,1847,1845
1856,1851,1839
1842,1863,1790
1824,1840,1815
1873,1843,1861
1853,1840,1891
1819,1818,1847
1803,1818,1812
1872,1870,1830
1936,1955,1835
1856,1835,1829
1808,1810,1842
1849,1782,1837
1849,1819,1828
1872,1909,1857
1854,1902,1843
1840,1854,1851
1835,1785,1810
1863,1770,1822
1883,1818,1840
1852,1856,1805
1824,1841,1833
1796,1835,1855
1794,1842,1879
1852,1875,1886
1909,1904,1843
1902,1947,1810
1840,1779,1810
1833,1803,1835
1808,1840,1846
1834,1846,1856
1798,1790,1857
1803,1776,1829
1846,1842,1835
1882,1870,1869
1911,1908,1857
1869,1819,1852
1840,1808,1836
1813,1807,1798
1828,1805,1872
1840,1853,1867
1922,1901,1856
1904,1915,1830
1783,1891,1771
1765,1742,1813
1811,1799,1863
1857,1855,1874
1813,1835,1857
1807,1822,1863
1818,1873,1839
1856,1839,1825
1919,1847,1824
1882,1887,1843
1835,1879,1859
1819,1874,1859
1837,1857,1845
1895,1851,1860
1936,1828,1840
1845,1771,1808
1813,1819,1840
1795,1872,1850
1797,1882,1847
1857,1885,1831
1858,1763,1853
1826,1776,1863
1839,1855,1840
1869,1845,1829
1882,1839,1846
1872,1840,1850
1838,1856,1867
1829,1826,1777
1844,1849,1834
1862,1892,1879
1811,1839,1847
1819,1869,1827
1882,1873,1863
1799,1827,1826
1765,1725,1823
1843,1811,1834
1893,1850,1858
1871,1843,1875
1855,1841,1845
1881,1899,1843
1897,1834,1821
1840,1855,1825
1831,1826,1883
1834,1802,1847
1810,1814,1828
1902,1831,1826
1936,1880,1850
1898,1913,1851
1765,1810,1790
1754,1799,1853
1817,1825,1874
1831,1864,1840
1807,1843,1837
1822,1807,1835
1946,1822,1845
1920,1911,1840
1843,1883,1863
1825,1867,1872
1842,1857,1867
1831,1796,1824
1843,1840,1825
1826,1808,1828
1840,1823,1850
1897,1858,1859
1904,1851,1857
1815,1840,1861
1789,1843,1867
1791,1779,1833
1839,1781,1815
1870,1824,1838
1855,1853,1839
1831,1855,1847
1904,1866,1876
1885,1877,1837
1823,1830,1830
1840,1879,1793
1825,1853,1845
1840,1789,1842
1875,1808,1867
1892,1854,1898
1820,1801,1837
1711,1751,1819
1793,1829,1840
1872,1893,1822
1850,1803,1813
1813,1792,1846
1814,1821,1871
1854,1834,1858
1821,1835,1839
1827,1827,1832
1924,1831,1856
1904,1856,1842
1831,1840,1832
1805,1856,1856
1847,1837,1890
1872,1882,1840
1898,1897,1776
1922,1822,1840
1791,1744,1867
1793,1759,1859
1758,1817,1847
1818,1863,1842
1890,1840,1868
1857,1824,1888
1819,1838,1882
1808,1821,1835
1850,1873,1815
1840,1798,1837
1834,1807,1856
1861,1840,1869
1861,1838,1863
1838,1867,1839
1813,1841,1846
1809,1819,1826
1840,1854,1845
1878,1924,1858
1953,1926,1828
1852,1712,1781
1823,1712,1824
1822,1821,1845
1808,1872,1878
1859,1872,1903
1846,1840,1794
1791,1797,1822
1809,1808,1882
1850,1825,1880
1873,1869,1854
1811,1834,1833
1843,1815,1840
1836,1838,1849
1873,1905,1872
1840,1832,1840
1823,1822,1825
1889,1825,1855
1862,1825,1853
1841,1836,1825
1840,1868,1887
1758,1762,1842
1799,1785,1824
1815,1797,1831
1842,1821,1858
1837,1855,1855
1872,1856,1819
1926,1811,1794
1793,1787,1835
1762,1905,1872
1883,2015,1875
1967,1843,1872
1834,1707,1866
1782,1759,1860
1843,1866,1850
1850,1824,1841
1814,1805,1847
1826,1789,1845
1825,1785,1840
1819,1832,1839
1840,1904,1842
1835,1820,1872
1882,1821,1882
1815,1839,1845
1801,1842,1827
1878,1897,1875
1872,1878,1856
1838,1803,1801
1859,1767,1814
1850,1807,1853
1840,1904,1822
1917,1936,1856
1794,1785,1862
1770,1811,1893
1815,1845,1871
1840,1826,1831
1857,1845,1831
1837,1861,1840
1775,1807,1855
1808,1777,1867
1843,1804,1860
1840,1835,1847
1882,1837,1845
1855,1810,1819
1840,1854,1854
1837,1856,1872
1855,1808,1837
1842,1831,1813
1793,1827,1835
1812,1833,1847
1909,1871,1866
1879,1882,1836
1813,1811,1750
1787,1793,1847
1791,1829,1915
1801,1840,1897
1815,1872,1868
1843,1854,1839
1857,1833,1841
1891,1872,1865
1882,1845,1834
1903,1808,1868
1871,1819,1851
1795,1843,1852
1792,1775,1846
1829,1771,1842
1913,1811,1846
1853,1845,1859
1757,1813,1845
1840,1843,1856
1843,1823,1830
1827,1871,1846
1859,1857,1856
1858,1836,1863
1834,1877,1857
1831,1849,1845
1853,1882,1840
1851,1904,1819
1866,1872,1798
1841,1740,1888
1820,1741,1923
1869,1773,1867
1830,1797,1808
1791,1831,1828
1796,1844,1867
1843,1839,1862
1897,1854,1856
1898,1859,1831
1802,1813,1859
1792,1840,1899
1818,1863,1893
1867,1845,1831
1861,1856,1796
1840,1807,1839
1847,1840,1835
1870,1805,1829
1841,1827,1855
1860,1887,1885
1904,1984,1847
1879,1710,1825
1856,1728,1826
1793,1749,1821
1724,1839,1877
1779,1885,1872
1808,1823,1872
1872,1819,1867
1935,1805,1863
1798,1827,1840
1795,1833,1838
1827,1853,1843
1879,1904,1856
1851,1840,1874
1792,1843,1837
1799,1798,1834
1879,1821,1856
1847,1833,1832
1920,1813,1856
1920,1859,1857
1808,1845,1829
1830,1901,1805
1852,1775,1774
1754,1802,1923
1790,1789,1909
1808,1794,1856
1840,1805,1837
1914,1822,1856
1949,1889,1857
1827,1834,1847
1744,1803,1855
1776,1827,1846
1877,1925,1859
1889,1835,1870
1819,1760,1845
1828,1840,1853
1882,1757,1743
1815,1713,1822
1850,1886,1922
1802,1881,1892
1787,1831,1857
1806,1774,1841
1808,1776,1847
1904,1819,1845
1887,1828,1858
1871,1872,1856
1810,1745,1769
1776,1872,1872
1790,1857,1872
1843,1909,1862
1902,1841,1850
1851,1809,1871
1805,1811,1840
1776,1745,1863
1825,1830,1833
1869,1931,1880
1842,1818,1840
1810,1744,1837
1828,1776,1843
1834,1839,1840
1834,1822,1846
1818,1811,1802
1831,1829,1844
1840,1861,1902
1857,1831,1853
1854,1856,1844
1858,1871,1869
1977,1905,1882
1845,1829,1869
1808,1859,1857
1855,1867,1867
1841,1850,1839
1779,1811,1830
1791,1882,1851
1809,1799,1862
1820,1797,1872
1864,1851,1857
1834,1731,1803
1843,1735,1825
1810,1819,1896
1829,1895,1885
1853,1859,1856
1883,1855,1838
1857,1862,1847
1857,1874,1870
1872,1857,1841
1831,1813,1823
1856,1845,1814
1845,1871,1857
1830,1840,1883
1855,1920,1852
1869,1836,1857
1801,1840,1865
1806,1783,1840
1811,1862,1815
1820,1809,1848
1861,1803,1877
1851,1799,1861
1849,1823,1811
1850,1786,1776
1853,1834,1855
1872,1861,1881
1856,1853,1868
1881,1901,1864
2065,1958,1855
1931,1805,1813
1710,1713,1842
1679,1778,1872
1786,1842,1867
1847,1840,1869
1872,1839,1853
1839,1841,1857
1842,1906,1853
1872,1904,1825
1840,1797,1841
1840,1815,1858
1853,1782,1798
1860,1840,1852
1869,1857,1872
1866,1853,1875
1867,1842,1859
1920,1879,1879
1904,1891,1845
1835,1837,1792
1796,1807,1803
1775,1793,1856
1841,1792,1892
1847,1802,1891
1792,1831,1841
1796,1850,1830
1828,1904,1830
1823,1777,1860
1852,1821,1851
1888,1840,1821
1856,1827,1906
1803,1799,1856
1840,1846,1856
1863,1840,1833
1847,1814,1829
1883,1842,1871
1872,1822,1834
1871,1843,1834
1811,1904,1872
1791,1854,1845
1872,1846,1835
1919,1847,1858
1895,1840,1833
1761,1825,1852
1786,1830,1878
1823,1811,1893
1799,1791,1862
1829,1824,1815
1856,1790,1798
1841,1831,1861
1826,1831,1886
1824,1839,1881
1840,1888,1847
1851,1868,1839
1840,1808,1859
1865,1813,1856
1904,1845,1861
1858,1841,1869
1846,1840,1853
1797,1846,1840
1866,1968,1837
1874,1819,1852
1830,1747,1840
1853,1790,1854
1831,1907,1859
1811,1811,1863
1808,1738,1803
1796,1757,1828
1861,1839,1872
1822,1829,1871
1797,1826,1840
1795,1839,1842
1841,1831,1856
1825,1827,1856
1822,1839,1847
1856,1855,1853
1930,1884,1873
1906,1855,1853
1826,1839,1825
1819,1867,1869
1822,1890,1856
1872,1905,1814
1853,1855,1814
1776,1707,1816
1821,1817,1868
1930,1885,1863
1859,1797,1792
1776,1712,1865
1822,1769,1874
1856,1858,1889
1819,1840,1855
1855,1846,1840
1895,1872,1856
1900,1842,1846
1815,1827,1855
1771,1812,1857
1794,1842,1851
1840,1845,1853
1911,1849,1867
1917,1851,1853
1899,1902,1848
1770,1820,1824
1778,1902,1823
1835,1818,1835
1858,1795,1831
1805,1805,1833
1808,1761,1856
1827,1787,1877
1903,1808,1827
1845,1808,1835
1792,1826,1877
1792,1835,1872
1839,1846,1853
1871,1849,1840
1881,1850,1869
1847,1861,1867
1858,1851,1845
1854,1855,1852
1798,1835,1839
1860,1844,1842
1888,1859,1843
1899,1858,1856
1852,1817,1850
1861,1883,1875
1840,1889,1837
1798,1808,1813
1808,1738,1808
1862,1777,1823
1843,1727,1823
1778,1801,1872
1782,1859,1864
1843,1941,1810
1810,1792,1842
1835,1812,1887
1860,1811,1856
1868,1830,1834
1899,1888,1858
1920,1840,1837
1840,1819,1840
1786,1846,1855
1806,1842,1834
1840,1838,1827
1840,1842,1840
1870,1922,1835
1871,1845,1794
1867,1808,1856
1837,1840,1894
1839,1852,1891
1811,1835,1855
1788,1778,1833
1823,1777,1826
1908,1833,1839
1950,1872,1872
1872,1863,1856
1775,1872,1821
1786,1862,1840
1809,1837,1841
1863,1811,1837
1833,1809,1841
1808,1908,1861
1840,1831,1855
1852,1825,1850
1831,1823,1855
1872,1872,1850
1862,1872,1827
1850,1865,1843
1882,1854,1842
1861,1807,1839
1849,1817,1858
1823,1856,1842
1865,1798,1835
1936,1818,1792
1862,1871,1878
1828,1821,1907
1769,1816,1854
1794,1840,1845
1867,1898,1877
1861,1874,1843
1809,1795,1810
1776,1789,1830
1835,1799,1847
1945,1853,1878
1947,1875,1853
1808,1823,1839
1793,1827,1850
1834,1863,1840
1840,1806,1822
1839,1811,1856
1915,1872,1858
1906,1829,1823
1795,1803,1838
1745,1804,1837
1831,1821,1812
1874,1881,1887
1838,1904,1891
1852,1847,1840
1899,1891,1840
1916,1825,1827
1835,1794,1853
1781,1808,1840
1840,1877,1827
1866,1856,1842
1877,1797,1843
1837,1801,1855
1808,1870,1827
1854,1856,1872
1904,1822,1856
1840,1839,1839
1807,1781,1843
1826,1782,1840
1842,1812,1823
1818,1811,1839
1881,1872,1861
1854,1839,1822
1792,1803,1837
1794,1825,1875
1861,1863,1845
1964,1900,1792
1851,1808,1843
1778,1834,1877
1786,1861,1857
1834,1918,1826
1787,1765,1835
1797,1712,1856
1861,1799,1854
1907,1790,1855
1840,1840,1861
1808,1840,1851
1822,1831,1850
1837,1840,1824
1809,1808,1826
1843,1811,1840
1873,1852,1866
1885,1842,1840
1787,1828,1830
1815,1853,1841
1936,1855,1818
1850,1840,1862
1814,1827,1883
1808,1874,1873
1810,1803,1833
1856,1801,1818
1829,1837,1831
1803,1803,1859
1799,1797,1863
1869,1807,1834
1863,1806,1829
1810,1835,1868
1793,1818,1865
1798,1811,1837
1806,1806,1834
1851,1835,1856
1886,1872,1871
1903,1889,1867
1826,1840,1840
1827,1892,1847
1835,1853,1841
1847,1837,1854
1875,1840,1858
1839,1851,1843
1923,1936,1841
1870,1858,1807
1759,1717,1780
1799,1808,1858
1827,1853,1874
1835,1858,1870
1808,1762,1871
1791,1792,1840
1839,1823,1842
1838,1842,1853
1872,1866,1867
1856,1827,1830
1870,1841,1829
1856,1853,1853
1827,1853,1845
1842,1839,1850
1882,1860,1857
1904,1905,1846
1821,1847,1844
1805,1831,1847
1856,1873,1849
1868,1812,1841
1807,1782,1840
1808,1813,1837
1821,1794,1777
1831,1791,1805
1840,1827,1899
1856,1831,1885
1820,1860,1839
1811,1808,1840
1825,1798,1861
1834,1821,1857
1883,1837,1850
1926,1837,1849
1882,1875,1870
1830,1866,1863
1839,1853,1839
1902,1904,1817
1895,1902,1840
1813,1776,1840
1798,1787,1853
1779,1808,1855
1793,1833,1827
1813,1810,1820
1857,1825,1827
1883,1865,1833
1865,1823,1839
1844,1775,1872
1846,1773,1841
1827,1799,1827
1814,1840,1846
1813,1861,1861
1893,1855,1855
1867,1854,1841
1845,1827,1831
1887,1841,1857
1969,1879,1869
1863,1856,1835
1789,1834,1821
1776,1846,1825
1861,1833,1826
1899,1841,1853
1873,1849,1849
1827,1781,1856
1835,1828,1855
1790,1814,1808
1811,1790,1817
1873,1806,1840
1873,1826,1829
1836,1846,1843
1808,1833,1835
1842,1918,1840
1871,1867,1830
1840,1759,1808
1840,1750,1818
1852,1830,1876
1872,1859,1871
1873,1878,1856
1808,1789,1826
1776,1797,1837
1857,1861,1869
1975,1831,1829
1888,1850,1821
1783,1887,1837
1805,1818,1797
1821,1791,1862
1821,1793,1853
1785,1809,1824
1840,1843,1840
1906,1859,1855
1909,1872,1853
1895,1875,1840
1829,1853,1818
1808,1779,1827
1877,1792,1835
1855,1813,1837
1833,1872,1861
1855,1871,1856
1848,1808,1840
1842,1829,1836
1893,1872,1802
1794,1815,1851
1790,1794,1867
1850,1812,1866
1877,1859,1859
1838,1858,1838
1833,1829,1851
1869,1840,1857
1887,1785,1817
1854,1825,1853
1882,1823,1846
1812,1848,1829
1818,1894,1840
1817,1800,1842
1833,1792,1855
1826,1791,1853
1863,1836,1869
1887,1887,1878
1802,1840,1838
1821,1861,1841
1840,1804,1838
1845,1795,1844
1839,1807,1856
1881,1874,1845
1897,1899,1847
1872,1835,1843
1840,1774,1835
1846,1791,1745
1852,1782,1828
1852,1797,1881
1806,1881,1882
1783,1894,1851
1851,1823,1841
1892,1797,1847
1840,1778,1863
1780,1787,1858
1809,1813,1851
1843,1836,1846
1845,1825,1822
1847,1844,1847
1839,1859,1843
1856,1867,1845
1863,1839,1845
1872,1853,1848
1837,1810,1822
1814,1799,1818
1831,1846,1833
1799,1826,1840
