1822,1803,1842
1838,1837,1851
1847,1846,1836
1838,1833,1840
1835,1789,1808
1863,1845,1840
1861,1875,1856
1815,1904,1855
1811,1829,1834
1845,1792,1855
1849,1833,1870
1840,1887,1825
1861,1844,1814
1835,1769,1835
1830,1780,1846
1822,1850,1851
1826,1774,1818
1831,1789,1835
1813,1922,1858
1814,1851,1841
1815,1809,1856
1840,1856,1869
1851,1843,1857
1859,1840,1853
1872,1867,1855
1856,1872,1818
1842,1797,1806
1831,1746,1853
1817,1786,1870
1840,1834,1869
1859,1859,1841
1874,1827,1846
1824,1878,1862
1808,1840,1840
1818,1822,1835
1839,1840,1841
1856,1856,1837
1872,1808,1834
1861,1829,1827
1833,1840,1842
1872,1886,1845
1858,1865,1766
1794,1758,1831
1810,1789,1894
1808,1783,1886
1833,1826,1856
1857,1867,1846
1841,1829,1819
1833,1824,1853
1820,1830,1854
1839,1862,1854
1872,1856,1841
1846,1838,1840
1840,1887,1863
1854,1814,1859
1843,1796,1835
1822,1823,1839
1856,1846,1841
1865,1856,1840
1847,1843,1809
1802,1834,1844
1822,1840,1855
1867,1869,1824
1872,1830,1849
1840,1829,1856
1807,1818,1853
1840,1839,1851
1863,1871,1839
1847,1917,1818
1857,1803,1827
1861,1835,1842
1814,1851,1855
1789,1774,1847
1812,1779,1847
1843,1819,1856
1869,1871,1845
1872,1821,1830
1839,1793,1825
1825,1849,1828
1830,1847,1843
1808,1849,1860
1826,1843,1843
1862,1817,1810
1862,1890,1861
1849,1857,1881
1834,1865,1849
1855,1849,1856
1871,1823,1846
1817,1810,1840
1814,1840,1846
1840,1873,1851
1889,1895,1840
1886,1897,1815
1824,1860,1845
1796,1776,1865
1815,1808,1859
1855,1877,1842
1863,1794,1824
1826,1743,1819
1799,1725,1797
1818,1815,1852
1839,1850,1883
1836,1840,1870
1824,1838,1847
1823,1834,1844
1856,1844,1847
1851,1851,1847
1850,1840,1841
1858,1840,1841
1851,1854,1843
1863,1872,1839
1862,1857,1840
1856,1854,1844
1856,1871,1811
1861,1864,1840
1833,1908,1873
1862,1883,1843
1842,1772,1820
1808,1712,1843
1819,1802,1825
1847,1712,1789
1801,1787,1860
1829,1847,1873
1833,1856,1856
1821,1840,1844
1843,1842,1847
1861,1861,1846
1851,1845,1841
1863,1840,1847
1856,1843,1851
1845,1867,1855
1855,1867,1856
1849,1856,1853
1833,1861,1855
1853,1893,1849
1845,1851,1828
1869,1803,1840
1921,1908,1871
1840,1847,1849
1806,1859,1841
1808,1791,1824
1829,1783,1846
1861,1776,1813
1823,1794,1860
1840,1792,1837
1815,1901,1834
1802,1867,1859
1791,1808,1868
1821,1801,1857
1853,1833,1851
1862,1839,1847
1859,1839,1846
1864,1840,1844
1856,1869,1843
1857,1879,1840
1820,1823,1838
1819,1810,1840
1846,1862,1843
1863,1840,1826
1861,1845,1840
1851,1904,1849
1815,1793,1835
1823,1782,1817
1854,1792,1845
1814,1830,1890
1813,1834,1867
1855,1840,1822
1856,1815,1813
1815,1840,1838
1798,1799,1852
1830,1839,1846
1839,1819,1851
1831,1861,1855
1846,1878,1845
1872,1819,1849
1846,1851,1841
1818,1751,1816
1840,1841,1841
1825,1879,1854
1821,1808,1856
1840,1787,1854
1872,1819,1855
1872,1855,1850
1874,1835,1836
1840,1777,1791
1837,1872,1856
1882,1854,1859
1835,1843,1856
1835,1818,1854
1836,1839,1858
1824,1859,1857
1822,1860,1869
1809,1845,1847
1867,1956,1842
1858,1830,1819
1818,1722,1836
1808,1728,1835
1826,1814,1856
1867,1807,1815
1859,1879,1860
1823,1874,1868
1838,1873,1861
1860,1828,1856
1862,1807,1840
1859,1776,1808
1856,1840,1858
1853,1903,1874
1857,1815,1856
1859,1800,1833
1861,1827,1854
1837,1865,1858
1824,1854,1847
1807,1902,1833
1819,1835,1837
1840,1796,1853
1851,1810,1848
1855,1797,1840
1830,1812,1842
1840,1869,1866
1827,1819,1830
1814,1786,1832
1821,1812,1841
1841,1840,1841
1862,1872,1806
1861,1814,1833
1850,1840,1869
1869,1845,1861
1846,1871,1853
1833,1853,1846
1846,1778,1808
1835,1838,1863
1859,1823,1867
1847,1886,1841
1825,1871,1838
1808,1804,1849
1814,1830,1840
1811,1835,1843
1808,1786,1851
1857,1805,1851
1870,1820,1855
1853,1823,1861
1825,1846,1846
1833,1872,1841
1831,1823,1831
1849,1805,1808
1857,1887,1873
1841,1894,1870
1830,1840,1850
1840,1827,1840
1855,1841,1851
1843,1919,1858
1826,1838,1840
1815,1855,1821
1830,1846,1820
1854,1835,1859
1840,1797,1860
1810,1808,1855
1845,1828,1823
1878,1850,1812
1816,1776,1814
1791,1754,1842
1797,1815,1886
1831,1850,1872
1838,1839,1843
1819,1856,1840
1855,1843,1855
1855,1841,1848
1834,1888,1850
1821,1825,1851
1853,1823,1856
1842,1843,1855
1845,1857,1847
1846,1845,1846
1843,1855,1851
1853,1876,1853
1867,1847,1830
1869,1822,1840
1829,1854,1855
1829,1888,1846
1831,1866,1842
1831,1710,1809
1874,1777,1851
1845,1835,1871
1798,1840,1863
1826,1840,1850
1849,1866,1842
1819,1827,1858
1837,1835,1855
1853,1904,1847
1855,1803,1843
1841,1787,1847
1811,1780,1839
1808,1808,1843
1839,1840,1856
1855,1862,1851
1867,1919,1851
1873,1872,1842
1841,1818,1845
1840,1802,1845
1806,1771,1828
1805,1821,1827
1818,1813,1851
1836,1825,1855
1836,1856,1856
1839,1843,1857
1859,1878,1862
1899,1914,1845
1843,1856,1837
1806,1769,1841
1795,1791,1844
1846,1816,1834
1876,1814,1807
1840,1887,1856
1829,1870,1859
1847,1859,1870
1878,1791,1809
1818,1744,1823
1799,1827,1869
1827,1861,1866
1827,1895,1852
1824,1867,1844
1835,1825,1826
1831,1771,1837
1837,1799,1841
1829,1808,1841
1836,1854,1855
1845,1875,1856
1844,1920,1850
1827,1804,1840
1842,1823,1854
1905,1836,1800
1821,1776,1834
1771,1825,1865
1808,1862,1871
1826,1803,1837
1829,1781,1840
1823,1808,1856
1846,1825,1858
1863,1862,1855
1817,1858,1857
1799,1836,1842
1822,1842,1840
1847,1858,1840
1856,1859,1843
1871,1910,1840
1840,1833,1848
1815,1827,1859
1831,1759,1826
1857,1813,1834
1840,1938,1856
1829,1866,1841
1826,1776,1847
1857,1778,1847
1856,1796,1822
1856,1833,1825
1851,1952,1856
1813,1819,1830
1777,1782,1875
1806,1853,1869
1837,1829,1844
1822,1777,1840
1815,1811,1849
1846,1828,1839
1849,1793,1809
1838,1829,1852
1833,1907,1872
1859,1876,1872
1843,1817,1840
1826,1789,1838
1861,1808,1838
1883,1810,1827
1856,1819,1851
1835,1825,1847
1840,1791,1806
1813,1850,1846
1811,1857,1859
1823,1886,1859
1835,1860,1854
1845,1870,1829
1840,1823,1850
1834,1789,1857
1837,1834,1853
1840,1838,1850
1845,1837,1857
1854,1859,1840
1844,1840,1835
1874,1851,1857
1873,1831,1847
1821,1815,1843
1858,1877,1854
1896,1863,1841
1807,1821,1858
1788,1808,1855
1821,1709,1789
1841,1808,1822
1814,1901,1870
1817,1830,1867
1868,1825,1841
1865,1802,1808
1809,1818,1853
1818,1811,1866
1825,1821,1861
1835,1840,1846
1841,1841,1845
1847,1835,1847
1887,1867,1856
1863,1856,1843
1813,1813,1843
1807,1806,1850
1825,1856,1858
1870,1827,1847
1879,1816,1843
1823,1831,1854
1799,1870,1855
1818,1842,1840
1833,1807,1831
1840,1878,1823
1840,1806,1823
1879,1840,1799
1826,1829,1881
1815,1835,1891
1841,1772,1889
1843,1799,1863
1831,1819,1840
1826,1810,1846
1857,1833,1850
1887,1882,1849
1840,1825,1840
1810,1827,1840
1829,1805,1840
1837,1835,1840
1822,1813,1838
1826,1808,1845
1838,1838,1849
1845,1840,1851
1857,1861,1849
1846,1840,1849
1855,1771,1818
1853,1844,1840
1861,1816,1803
1831,1833,1840
1817,1851,1883
1818,1830,1878
1835,1813,1854
1840,1827,1843
1829,1818,1853
1854,1854,1856
1860,1842,1840
1831,1791,1835
1820,1831,1842
1839,1819,1840
1823,1814,1840
1831,1821,1840
1854,1830,1841
1872,1850,1823
1853,1841,1789
1810,1775,1838
1827,1814,1871
1840,1871,1873
1856,1845,1821
1856,1712,1819
1839,1765,1871
1840,1853,1888
1813,1842,1858
1814,1818,1845
1871,1835,1855
1871,1817,1852
1810,1837,1850
1794,1838,1840
1821,1850,1849
1846,1857,1856
1833,1843,1850
1835,1866,1847
1837,1825,1854
1840,1824,1842
1854,1792,1823
1829,1872,1843
1819,1841,1849
1840,1750,1808
1819,1754,1859
1845,1807,1873
1871,1815,1856
1813,1783,1847
1838,1750,1823
1836,1847,1854
1821,1891,1858
1808,1845,1823
1825,1744,1805
1810,1798,1859
1824,1835,1871
1840,1843,1865
1841,1841,1850
1834,1840,1854
1827,1839,1849
1840,1831,1853
1867,1859,1831
1856,1839,1841
1840,1834,1858
1818,1840,1866
1836,1807,1846
1857,1834,1805
1856,1759,1781
1808,1803,1855
1823,1833,1862
1828,1895,1849
1846,1816,1841
1881,1802,1851
1820,1835,1829
1797,1835,1841
1799,1856,1856
1830,1830,1849
1834,1835,1841
1823,1823,1840
1820,1830,1838
1836,1847,1840
1830,1867,1854
1828,1855,1855
1851,1885,1850
1863,1872,1849
1866,1840,1845
1853,1857,1852
1826,1840,1843
1843,1837,1840
1826,1824,1823
1863,1835,1744
1839,1803,1859
1824,1798,1907
1810,1789,1859
1811,1826,1840
1830,1825,1852
1857,1857,1856
1841,1840,1847
1799,1788,1828
1823,1808,1813
1824,1847,1856
1819,1866,1865
1840,1837,1850
1831,1827,1845
1839,1886,1844
1861,1885,1850
1849,1824,1856
1849,1808,1845
1856,1853,1840
1840,1863,1826
1839,1760,1798
1812,1796,1851
1843,1823,1867
1870,1863,1854
1841,1825,1831
1840,1850,1850
1830,1811,1815
1813,1803,1818
1836,1878,1884
1811,1842,1882
1831,1862,1856
1837,1834,1842
1840,1871,1837
1821,1838,1841
1843,1840,1855
1875,1878,1851
1840,1823,1846
1835,1808,1852
1853,1853,1850
1852,1870,1843
1845,1872,1847
1858,1820,1828
1857,1783,1810
1846,1851,1847
1802,1811,1851
1813,1821,1868
1844,1878,1859
1845,1840,1841
1855,1748,1822
1862,1822,1841
1840,1808,1848
1840,1870,1863
1831,1907,1869
1824,1871,1853
1840,1834,1830
1825,1786,1849
1825,1801,1853
1828,1823,1842
1843,1872,1840
1859,1888,1831
1863,1794,1839
1881,1789,1842
1856,1825,1847
1821,1863,1839
1826,1824,1767
1821,1808,1858
1824,1813,1845
1859,1806,1829
1827,1830,1886
1802,1847,1873
1827,1858,1862
1874,1862,1826
1829,1814,1837
1837,1863,1862
1814,1846,1855
1808,1808,1838
1827,1793,1846
1847,1872,1845
1852,1823,1836
1856,1797,1851
1808,1834,1846
1833,1774,1793
1845,1829,1841
1841,1855,1865
1843,1856,1858
1872,1880,1842
1884,1840,1822
1815,1841,1839
1782,1822,1849
1817,1803,1814
1841,1857,1853
1840,1872,1862
1857,1898,1855
1887,1889,1842
1865,1846,1835
1845,1795,1866
1855,1855,1872
1851,1895,1858
1830,1831,1841
1831,1785,1847
1828,1820,1846
1861,1791,1797
1853,1796,1833
1835,1802,1883
1803,1775,1845
1843,1808,1844
1863,1872,1861
1841,1871,1861
1847,1871,1850
1854,1866,1851
1855,1831,1854
1860,1847,1865
1851,1840,1846
1868,1859,1840
1872,1857,1840
1833,1843,1833
1851,1827,1834
1845,1814,1829
1827,1883,1854
1828,1885,1853
1819,1775,1836
1823,1810,1850
1855,1808,1831
1887,1826,1782
1853,1777,1841
1835,1806,1868
1841,1856,1867
1829,1889,1861
1833,1861,1853
1856,1855,1851
1873,1860,1825
1861,1856,1840
1846,1856,1858
1843,1811,1844
1859,1842,1837
1853,1853,1835
1843,1840,1834
1822,1813,1842
1831,1827,1851
1854,1870,1840
1872,1776,1827
1871,1791,1851
1845,1856,1858
1833,1863,1843
1837,1891,1855
1841,1803,1808
1856,1774,1798
1845,1862,1867
1830,1872,1886
1852,1861,1867
1870,1887,1840
1834,1854,1843
1831,1840,1841
1862,1862,1840
1899,1920,1831
1872,1738,1808
1839,1770,1867
1819,1819,1872
1842,1862,1855
1840,1797,1845
1823,1776,1841
1847,1761,1838
1854,1776,1808
1814,1796,1826
1797,1867,1881
1815,1881,1886
1852,1877,1865
1856,1871,1851
1841,1839,1841
1847,1857,1850
1866,1842,1847
1857,1839,1845
1861,1824,1845
1853,1840,1854
1848,1851,1841
1849,1829,1838
1846,1821,1842
1856,1826,1847
1902,1901,1851
1861,1899,1837
1817,1837,1843
1825,1735,1841
1843,1831,1827
1822,1791,1837
1820,1813,1834
1838,1754,1813
1874,1765,1829
1831,1743,1839
1815,1840,1888
1813,1867,1872
1835,1856,1850
1857,1847,1840
1872,1838,1841
1856,1865,1849
1845,1859,1841
1827,1824,1840
1845,1837,1840
1872,1835,1849
1869,1853,1835
1833,1814,1786
1808,1808,1833
1853,1881,1865
1861,1859,1857
1830,1813,1843
1834,1858,1836
1843,1835,1850
1856,1835,1850
1840,1817,1846
1837,1789,1805
1878,1813,1811
1861,1861,1872
1839,1862,1870
1821,1815,1825
1837,1867,1824
1849,1866,1858
1842,1863,1858
1826,1849,1854
1808,1823,1840
1851,1863,1842
1876,1873,1821
1827,1845,1842
1832,1831,1870
1843,1786,1849
1839,1810,1835
1813,1861,1835
1830,1830,1855
1842,1817,1850
1839,1840,1831
1835,1823,1844
1858,1808,1811
1867,1840,1827
1835,1872,1858
1826,1859,1861
1843,1863,1854
1861,1818,1822
1871,1803,1793
1835,1824,1854
1834,1883,1881
1879,1927,1841
1822,1806,1825
1799,1808,1839
1788,1878,1863
1819,1858,1863
1825,1843,1850
1809,1767,1843
1823,1781,1841
1857,1878,1844
1854,1839,1840
1856,1839,1838
1849,1843,1827
1837,1808,1847
1829,1802,1849
1840,1782,1815
1850,1853,1866
1857,1845,1856
1877,1825,1827
1835,1872,1849
1825,1875,1861
1856,1846,1854
1883,1854,1842
1809,1822,1813
1791,1772,1819
1813,1808,1840
1810,1825,1866
1819,1840,1857
1837,1833,1851
1845,1857,1845
1840,1863,1840
1840,1808,1840
1871,1808,1851
1866,1837,1809
1861,1779,1794
1822,1825,1874
1809,1858,1889
1840,1867,1869
1872,1905,1830
1863,1872,1846
1798,1787,1867
1823,1808,1855
1840,1829,1840
1853,1840,1840
1826,1863,1847
1854,1787,1841
1850,1792,1834
1792,1846,1847
1826,1877,1858
1840,1936,1837
1827,1846,1835
1831,1790,1851
1824,1789,1850
1836,1829,1851
1858,1872,1849
1834,1811,1815
1853,1834,1809
1810,1808,1867
1822,1805,1872
1819,1790,1851
1839,1815,1838
1888,1873,1853
1857,1872,1843
1814,1825,1847
1813,1817,1843
1831,1847,1851
1862,1887,1843
1840,1857,1841
1830,1811,1855
1837,1837,1869
1863,1842,1840
1831,1844,1831
1840,1887,1829
1843,1793,1826
1851,1790,1838
1829,1817,1852
1839,1801,1804
1828,1814,1822
1808,1818,1871
1810,1810,1863
1843,1832,1855
1856,1849,1842
1835,1818,1831
1831,1807,1830
1838,1853,1838
1863,1821,1820
1843,1835,1841
1836,1837,1854
1818,1840,1855
1840,1855,1853
1872,1918,1845
1844,1836,1824
1834,1779,1851
1845,1823,1859
1807,1808,1859
1805,1808,1842
1821,1826,1845
1826,1840,1843
1857,1873,1859
1864,1891,1823
1850,1795,1798
1809,1761,1847
1790,1820,1877
1797,1826,1862
1833,1846,1846
1835,1861,1835
1841,1839,1856
1838,1809,1835
1845,1873,1840
1836,1809,1857
1819,1826,1871
1809,1827,1849
1818,1791,1831
1849,1785,1840
1846,1825,1866
1866,1855,1872
1865,1842,1824
1844,1849,1822
1834,1851,1835
1822,1834,1794
1818,1783,1799
1818,1854,1872
1840,1856,1905
1872,1857,1873
1901,1911,1872
1851,1874,1866
1802,1804,1823
1869,1808,1824
1919,1874,1833
1882,1907,1858
1845,1794,1834
1841,1758,1827
1853,1742,1830
1829,1848,1892
1854,1889,1905
1853,1856,1828
1867,1859,1808
1849,1838,1810
1855,1815,1852
1844,1906,1859
1958,1840,1749
1932,1849,1781
1840,1863,1840
1805,1859,1854
1835,1855,1843
1859,1921,1826
1927,1880,1801
1857,1873,1849
1892,1869,1812
1903,1795,1831
1905,1827,1843
1749,1819,1778
1771,1893,1771
1857,1840,1812
1941,1858,1833
1893,1841,1776
1841,1840,1733
1798,1904,1785
1831,1850,1808
1861,1820,1822
1841,1851,1822
1872,1947,1810
1925,1840,1746
1842,1780,1776
1808,1851,1780
1887,1883,1823
1845,1879,1821
1787,1895,1791
1850,1872,1764
1886,1847,1831
1885,1909,1847
1848,1821,1801
1850,1829,1785
1802,1856,1789
1776,1856,1819
1815,1840,1831
1861,1834,1791
1904,1827,1733
1963,1840,1781
1856,1866,1831
1808,1889,1834
1772,1835,1808
1837,1812,1806
1883,1904,1813
1871,1965,1827
1854,1798,1779
1801,1819,1787
1810,1810,1843
1817,1842,1834
1822,1997,1817
1845,1839,1793
1904,1776,1813
1861,1823,1833
1835,1855,1869
1870,1790,1826
1882,1792,1773
1808,1886,1789
1777,1841,1824
1813,1796,1837
1808,1792,1820
1817,1873,1841
1851,1870,1819
1886,1845,1771
1839,1860,1829
1869,1890,1850
1865,1909,1834
1813,1801,1829
1821,1890,1857
1834,1821,1851
1853,1823,1857
1830,1763,1830
1790,1773,1803
1867,1843,1821
1872,1856,1810
1855,1883,1815
1844,1755,1790
1806,1814,1887
1815,1910,1903
1834,1844,1856
1839,1823,1841
1817,1861,1840
1859,1862,1831
1867,1831,1804
1849,1775,1782
1854,1790,1865
1871,1883,1884
1840,1819,1876
1785,1798,1856
1825,1847,1840
1919,1840,1808
1895,1776,1830
1767,1840,1872
1778,1866,1879
1878,1826,1863
1903,1811,1853
1797,1820,1847
1811,1863,1847
1869,1887,1866
1831,1863,1856
1817,1811,1842
1847,1826,1840
1861,1885,1840
1878,1840,1854
1792,1783,1854
1795,1795,1837
1863,1855,1853
1914,1893,1850
1918,1847,1830
1833,1833,1805
1771,1775,1834
1805,1756,1880
1803,1775,1901
1782,1795,1871
1835,1846,1847
1926,1884,1842
1872,1853,1869
1811,1847,1856
1845,1836,1872
1843,1838,1872
1799,1825,1853
1825,1840,1842
1891,1895,1861
1936,1843,1873
1801,1840,1866
1806,1871,1870
1839,1818,1810
1872,1874,1811
1870,1841,1813
1763,1749,1869
1776,1691,1878
1842,1735,1853
1872,1762,1793
1806,1867,1865
1790,1878,1885
1853,1888,1885
1907,1823,1894
1840,1808,1855
1781,1852,1851
1847,1864,1870
1885,1858,1840
1827,1815,1829
1859,1844,1845
1889,1883,1891
1891,1871,1862
1841,1850,1820
1756,1774,1861
1812,1825,1878
1814,1873,1853
1859,1807,1823
1875,1767,1837
1876,1815,1861
1776,1801,1876
1837,1810,1886
1870,1855,1887
1867,1873,1853
1851,1803,1837
1808,1818,1852
1827,1826,1877
1908,1860,1879
1911,1905,1840
1859,1803,1821
1843,1785,1858
1837,1791,1839
1842,1867,1847
1822,1814,1903
1807,1843,1886
1842,1839,1853
1813,1744,1850
1808,1744,1833
1875,1891,1849
1810,1854,1858
1830,1857,1886
1839,1775,1897
1830,1799,1861
1863,1840,1843
1906,1873,1871
1907,1865,1870
1792,1838,1847
1782,1856,1852
1847,1853,1856
1887,1841,1843
1878,1831,1890
1808,1934,1862
1793,1814,1837
1816,1766,1858
1843,1783,1869
1900,1819,1861
1917,1836,1872
1917,1854,1850
1799,1781,1823
1801,1802,1856
1824,1851,1869
1915,1825,1826
1827,1809,1827
1776,1793,1874
1808,1815,1877
1905,1847,1899
1919,1872,1886
1818,1822,1851
1823,1763,1805
1811,1803,1856
1808,1869,1891
1873,1901,1884
1857,1856,1867
1858,1862,1869
1827,1843,1863
1840,1877,1834
1847,1822,1847
1895,1831,1902
1942,1779,1863
1786,1725,1840
1771,1806,1851
1843,1854,1872
1849,1903,1886
1812,1875,1871
1839,1808,1817
1874,1790,1767
1826,1789,1879
1834,1833,1910
1849,1850,1890
1824,1821,1906
1857,1857,1887
1933,1858,1854
1909,1809,1837
1855,1809,1841
1837,1792,1819
1877,1883,1851
1833,1872,1895
1856,1769,1857
1890,1821,1893
1810,1862,1890
1709,1808,1873
1781,1833,1872
1872,1835,1867
1895,1792,1808
1823,1840,1826
1824,1883,1895
1853,1821,1879
1841,1819,1862
1904,1862,1885
1891,1865,1863
1841,1810,1865
1814,1799,1845
1818,1838,1854
1859,1902,1873
1947,1949,1870
1867,1762,1806
1840,1745,1830
1776,1838,1885
1814,1898,1872
1840,1840,1831
1802,1729,1826
1906,1772,1881
1875,1840,1891
1840,1857,1874
1811,1843,1851
1827,1830,1872
1915,1873,1904
1861,1850,1846
1827,1821,1833
1857,1826,1858
1901,1862,1867
1840,1828,1846
1842,1913,1858
1932,1946,1861
1847,1793,1839
1766,1761,1857
1784,1783,1857
1839,1808,1807
1830,1762,1795
1811,1811,1904
1836,1799,1903
1855,1823,1882
1858,1867,1881
1871,1869,1852
1861,1850,1861
1813,1883,1851
1858,1890,1827
1803,1774,1839
1808,1771,1858
1808,1811,1877
1870,1866,1865
1868,1833,1821
1885,1828,1845
1852,1792,1817
1861,1781,1814
1872,1987,1882
1823,1825,1856
1819,1794,1888
1820,1791,1871
1869,1823,1857
1936,1874,1858
1836,1835,1863
1802,1805,1871
1779,1885,1825
1794,1851,1809
1856,1819,1843
1957,1808,1838
1909,1837,1856
1787,1830,1842
1783,1855,1843
1844,1855,1872
1877,1870,1871
1873,1852,1867
1806,1808,1852
1863,1859,1859
1893,1872,1823
1828,1847,1830
1810,1755,1818
1824,1807,1870
1856,1871,1857
1851,1834,1839
1842,1860,1842
1839,1872,1856
1856,1863,1825
1840,1794,1855
1935,1866,1862
1918,1859,1825
1792,1783,1819
1744,1793,1871
1818,1845,1876
1886,1866,1872
1883,1858,1853
1858,1847,1831
1825,1857,1835
1829,1882,1856
1872,1871,1830
1831,1835,1835
1883,1863,1853
1935,1907,1834
1857,1777,1822
1840,1791,1813
1835,1861,1909
1797,1847,1866
1862,1818,1851
1857,1760,1831
1840,1777,1823
1846,1873,1854
1851,1869,1857
1841,1851,1841
1840,1838,1841
1888,1829,1872
1873,1858,1867
1862,1844,1845
1819,1847,1859
1825,1849,1847
1887,1886,1828
1867,1854,1829
1858,1856,1871
1858,1901,1875
1854,1791,1805
1845,1771,1833
1827,1855,1872
1862,1872,1831
1884,1811,1833
1925,1787,1845
1891,1795,1858
1787,1840,1872
1761,1872,1873
1851,1830,1856
1834,1787,1846
1824,1840,1855
1827,1846,1849
1877,1859,1874
1902,1881,1851
1873,1840,1831
1867,1872,1827
1862,1811,1842
1891,1821,1815
1884,1870,1867
1824,1827,1887
1795,1840,1855
1827,1840,1839
1859,1828,1790
1848,1826,1853
1885,1840,1881
1846,1837,1867
1824,1794,1845
1903,1833,1841
1842,1848,1858
1821,1866,1871
1885,1856,1850
1863,1841,1862
1829,1904,1856
1879,1838,1845
1830,1779,1804
1823,1854,1849
1835,1858,1859
1840,1835,1874
1846,1789,1849
1851,1808,1867
1895,1854,1882
1887,1831,1862
1847,1831,1837
1846,1777,1801
1808,1797,1836
1873,1887,1904
1851,1925,1875
1863,1888,1856
1877,1799,1840
1831,1730,1805
1842,1840,1871
1866,1888,1892
1854,1831,1879
1871,1983,1836
1844,1810,1855
1845,1840,1844
1790,1786,1846
1809,1783,1857
1856,1818,1862
1926,1858,1855
1966,1892,1840
1874,1871,1879
1840,1805,1834
1796,1869,1838
1814,1778,1796
1855,1787,1812
1843,1879,1873
1872,1890,1883
1853,1917,1839
1807,1869,1840
1826,1783,1841
1842,1758,1862
1866,1801,1855
1837,1797,1851
1846,1840,1872
1840,1845,1857
1877,1852,1850
1853,1859,1852
1894,1866,1851
1866,1851,1849
1845,1754,1808
1884,1821,1840
1882,1884,1878
1809,1899,1872
1837,1904,1837
1815,1814,1840
1843,1808,1823
1843,1840,1843
1860,1886,1874
1860,1829,1829
1840,1770,1827
1830,1742,1855
1855,1807,1871
1902,1841,1882
1821,1745,1805
1878,1819,1829
1838,1883,1886
1838,1869,1872
1796,1860,1873
1868,1857,1844
1919,1856,1840
1821,1846,1846
1853,1878,1843
1936,1933,1847
1921,1847,1865
1808,1776,1840
1826,1847,1839
1869,1882,1872
1831,1815,1819
1859,1807,1789
1856,1835,1840
1814,1782,1875
1788,1771,1882
1811,1690,1801
1865,1829,1863
1856,1901,1891
1879,1875,1889
1922,1879,1874
1890,1857,1840
1824,1818,1808
1791,1799,1831
1858,1825,1863
1843,1883,1865
1823,1843,1835
1866,1840,1829
1873,1873,1857
1906,1824,1859
1902,1841,1862
1887,1883,1856
1822,1819,1802
1865,1808,1834
1909,1849,1823
1840,1803,1885
1841,1818,1865
1837,1791,1807
1805,1856,1873
1807,1827,1896
1805,1840,1859
1826,1808,1829
1881,1830,1849
1871,1790,1839
1913,1834,1846
1886,1893,1903
1898,1882,1856
1794,1827,1835
1793,1871,1837
1843,1865,1851
1855,1829,1833
1849,1841,1840
1842,1858,1840
1871,1877,1852
1887,1799,1806
1861,1865,1853
1925,1869,1898
1887,1807,1872
1786,1787,1855
1805,1802,1810
1823,1799,1827
1809,1831,1843
1821,1821,1876
1792,1764,1845
1814,1787,1840
1891,1863,1869
1906,1893,1872
1873,1923,1847
1840,1823,1846
1859,1829,1824
1870,1850,1845
1909,1883,1856
1867,1843,1840
1892,1840,1807
1913,1879,1821
1808,1792,1869
1749,1811,1904
1825,1847,1887
1831,1855,1854
1902,1844,1842
1888,1826,1859
1843,1792,1837
1777,1806,1859
1779,1796,1859
1847,1808,1843
1964,1866,1863
1866,1845,1852
1842,1831,1853
1834,1837,1866
1842,1847,1851
1909,1863,1840
1870,1852,1854
1818,1878,1853
1899,1937,1840
1923,1857,1871
1790,1831,1840
1789,1799,1843
1870,1791,1840
1931,1776,1834
1778,1792,1817
1730,1778,1872
1810,1808,1873
1868,1813,1855
1821,1819,1818
1853,1851,1818
1867,1862,1863
1867,1856,1873
1915,1869,1842
1872,1841,1819
1855,1845,1845
1817,1838,1840
1905,1903,1821
1947,1870,1776
1808,1801,1872
1758,1789,1925
1886,1828,1886
1857,1821,1843
1786,1886,1849
1793,1808,1851
1862,1761,1851
1843,1783,1843
1808,1830,1855
1838,1840,1852
1829,1854,1845
1894,1889,1850
1865,1886,1858
1853,1861,1868
1877,1866,1840
1833,1844,1826
1904,1867,1853
1872,1874,1842
1853,1842,1798
1862,1840,1839
1799,1770,1871
1790,1803,1862
1838,1801,1824
1857,1863,1834
1810,1776,1823
1778,1845,1883
1809,1803,1855
1865,1799,1834
1906,1840,1857
1856,1854,1875
1799,1859,1871
1803,1840,1840
1960,1875,1843
1922,1840,1815
1798,1809,1824
1758,1823,1856
1893,1889,1872
1894,1889,1847
1813,1853,1835
1813,1733,1778
1815,1802,1819
1859,1803,1882
1846,1771,1875
1807,1823,1872
1835,1879,1869
1853,1871,1854
1861,1831,1837
1836,1804,1826
1834,1859,1849
1909,1866,1854
1904,1879,1840
1853,1846,1862
1840,1840,1867
1825,1805,1826
1875,1825,1814
1909,1850,1840
1904,1862,1831
1829,1824,1799
1779,1835,1845
1823,1787,1872
1809,1799,1857
1774,1802,1845
1789,1798,1846
1831,1811,1849
1844,1840,1840
1886,1865,1855
1936,1861,1856
1902,1885,1867
1801,1834,1815
1795,1830,1814
1825,1820,1826
1870,1864,1858
1887,1891,1887
1875,1905,1871
1840,1856,1833
1851,1830,1835
1808,1867,1753
1830,1716,1775
1858,1744,1843
1850,1791,1886
1856,1830,1877
1855,1840,1846
1858,1853,1840
1829,1837,1845
1827,1869,1859
1933,1858,1858
1890,1858,1845
1797,1821,1830
1776,1790,1817
1824,1838,1826
1951,1872,1867
1917,1829,1856
1804,1840,1838
1803,1799,1805
1794,1797,1842
1783,1817,1840
1849,1843,1841
1950,1939,1849
1936,1913,1854
1799,1708,1779
1781,1762,1838
1849,1818,1871
1875,1827,1857
1888,1847,1859
1861,1856,1850
1857,1893,1833
1831,1855,1821
1837,1808,1855
1883,1829,1850
1860,1855,1829
1782,1822,1837
1812,1808,1872
1885,1822,1853
1915,1902,1781
1874,1837,1819
1760,1745,1861
1815,1776,1854
1822,1824,1846
1840,1878,1840
1917,1770,1831
1851,1793,1861
1814,1843,1854
1846,1841,1841
1872,1833,1859
1872,1886,1871
1898,1927,1869
1877,1814,1834
1824,1786,1840
1811,1803,1846
1832,1846,1850
1835,1846,1837
1910,1861,1840
1874,1847,1826
1884,1926,1798
1875,1911,1823
1813,1723,1840
1753,1770,1856
1808,1776,1849
