1950,1851,1850
1721,1813,1769
1754,1814,1837
1975,1851,1913
1938,1840,1850
1709,1808,1774
1740,1812,1838
1955,1854,1904
1931,1839,1845
1722,1805,1771
1744,1822,1840
1966,1850,1908
1934,1843,1842
1710,1803,1768
1749,1808,1833
1969,1845,1904
1937,1837,1829
1714,1800,1769
1744,1809,1836
1969,1846,1904
1938,1844,1835
1709,1802,1763
1760,1810,1840
1977,1852,1897
1930,1840,1833
1709,1791,1773
1750,1805,1850
1986,1847,1917
1941,1834,1845
1706,1802,1771
1734,1819,1835
1979,1855,1901
1941,1841,1840
1705,1807,1765
1757,1819,1834
1984,1866,1903
1942,1857,1830
1717,1809,1761
1766,1820,1838
1979,1862,1913
1954,1854,1845
1726,1808,1771
1767,1821,1840
1981,1870,1911
1933,1854,1840
1712,1808,1775
1745,1822,1839
1970,1856,1901
1932,1845,1843
1714,1805,1774
1750,1814,1831
1968,1856,1903
1930,1856,1836
1714,1808,1775
1758,1820,1845
1984,1855,1905
1942,1840,1826
1710,1799,1758
1746,1815,1849
1974,1862,1917
1927,1850,1840
1709,1808,1776
1762,1809,1854
1971,1852,1908
1939,1838,1823
1712,1807,1765
1759,1826,1856
1984,1872,1924
1937,1861,1838
1712,1815,1771
1745,1819,1840
1970,1859,1904
1934,1856,1833
1708,1818,1776
1746,1823,1843
1985,1861,1915
1937,1846,1843
1695,1807,1769
1745,1823,1840
1964,1863,1907
1934,1844,1838
1711,1809,1766
1751,1824,1838
1971,1867,1909
1930,1850,1840
1715,1811,1772
1741,1824,1853
1964,1867,1917
1922,1856,1840
1701,1815,1767
1745,1821,1850
1968,1855,1911
1931,1846,1839
1707,1805,1777
1744,1811,1843
1968,1857,1915
1919,1851,1841
1694,1810,1767
1744,1814,1841
1975,1855,1901
1943,1847,1830
1713,1817,1767
1744,1824,1843
1959,1863,1920
1920,1846,1841
1701,1808,1775
1750,1828,1847
1974,1873,1919
1930,1857,1850
1709,1827,1783
1751,1827,1856
1967,1858,1916
1918,1839,1841
1689,1799,1771
1747,1819,1840
1980,1855,1910
1923,1840,1840
1705,1803,1776
1750,1819,1842
1968,1847,1915
1930,1840,1840
1719,1809,1776
1754,1818,1854
1972,1863,1917
1931,1850,1843
1702,1811,1776
1750,1820,1842
1969,1858,1910
1932,1847,1849
1715,1808,1787
1761,1824,1853
1973,1856,1915
1922,1843,1840
1707,1806,1776
1762,1815,1855
1972,1858,1918
1932,1852,1843
1712,1813,1778
1764,1825,1849
1991,1868,1907
1938,1855,1835
1709,1815,1776
1750,1825,1856
1990,1850,1917
1934,1845,1841
1712,1808,1779
1754,1823,1856
1968,1863,1918
1933,1856,1843
1713,1813,1776
1771,1826,1853
1991,1869,1904
1923,1845,1829
1701,1815,1775
1749,1833,1850
1975,1869,1910
1921,1847,1843
1710,1808,1778
1762,1827,1848
1982,1877,1909
1923,1865,1835
1693,1811,1778
1761,1813,1853
1971,1854,1917
1923,1840,1834
1701,1792,1773
1755,1814,1853
1969,1853,1920
1919,1844,1853
1701,1805,1782
1765,1815,1856
1987,1867,1911
1921,1866,1840
1711,1817,1776
1770,1827,1854
1978,1858,1919
1929,1850,1841
1713,1808,1776
1763,1821,1846
1973,1861,1907
1925,1851,1829
1691,1808,1763
1758,1823,1844
1982,1861,1909
1926,1845,1844
1705,1808,1781
1757,1815,1843
1983,1867,1907
1925,1851,1824
1707,1808,1770
1761,1824,1849
1969,1856,1914
1920,1843,1827
1710,1814,1775
1758,1818,1845
1968,1855,1911
1924,1846,1847
1699,1810,1776
1750,1811,1851
1970,1850,1919
1925,1840,1855
1695,1803,1783
1761,1808,1859
1981,1856,1926
1920,1841,1855
1705,1791,1791
1751,1807,1856
1974,1856,1912
1920,1834,1841
1702,1799,1780
1749,1808,1854
1968,1849,1917
1930,1839,1839
1721,1799,1770
1775,1818,1856
1974,1849,1925
1919,1831,1846
1700,1792,1780
1760,1808,1858
1971,1850,1925
1925,1845,1840
1703,1806,1782
1759,1817,1863
1981,1865,1926
1909,1855,1839
1689,1812,1786
1757,1819,1865
1981,1861,1915
1914,1830,1843
1685,1817,1793
1759,1829,1863
1980,1861,1926
1935,1839,1848
1711,1807,1792
1749,1819,1861
1966,1858,1915
1919,1837,1846
1706,1795,1785
1766,1821,1862
1973,1859,1932
1919,1846,1851
1683,1807,1795
1744,1811,1873
1971,1847,1937
1914,1823,1851
1686,1791,1789
1765,1798,1861
1978,1854,1929
1922,1840,1846
1703,1806,1785
1770,1815,1857
1984,1853,1936
1927,1845,1845
1701,1808,1776
1776,1818,1855
1975,1850,1918
1925,1840,1863
1706,1814,1802
1771,1822,1858
1983,1856,1932
1915,1831,1835
1703,1808,1778
1769,1827,1865
1995,1857,1933
1936,1847,1846
1701,1791,1790
1758,1808,1869
1980,1859,1924
1926,1844,1837
1692,1799,1767
1755,1818,1857
1970,1856,1936
1923,1840,1841
1702,1804,1793
1760,1813,1858
1967,1860,1927
1906,1840,1856
1708,1808,1788
1763,1815,1859
1989,1858,1925
1909,1842,1850
1711,1807,1776
1758,1822,1855
1973,1862,1904
1917,1845,1839
1706,1818,1776
1760,1824,1870
1969,1855,1930
1902,1842,1845
1699,1809,1790
1757,1835,1863
1978,1855,1927
1909,1840,1855
1710,1808,1790
1766,1815,1885
1984,1858,1941
1936,1845,1847
1683,1812,1792
1763,1829,1870
1984,1868,1935
1920,1843,1856
1701,1806,1805
1761,1819,1878
1969,1858,1927
1922,1853,1835
1711,1810,1776
1776,1808,1862
1996,1854,1935
1923,1849,1851
1699,1809,1808
1758,1820,1877
1978,1857,1934
1920,1830,1859
1693,1798,1805
1759,1812,1871
1989,1857,1941
1915,1843,1847
1681,1809,1796
1759,1823,1869
1966,1855,1929
1907,1835,1857
1699,1807,1791
1766,1823,1885
1978,1862,1956
1910,1842,1858
1705,1810,1799
1771,1828,1887
1975,1870,1936
1925,1846,1846
1693,1796,1795
1767,1823,1886
1990,1847,1935
1919,1845,1855
1701,1807,1791
1759,1812,1877
1969,1846,1945
1911,1837,1866
1687,1803,1803
1765,1817,1886
1973,1857,1946
1911,1845,1856
1686,1810,1801
1763,1814,1878
1984,1846,1943
1911,1830,1862
1693,1801,1781
1765,1826,1878
1981,1863,1947
1915,1841,1869
1703,1822,1795
1772,1825,1887
1985,1861,1943
1918,1843,1859
1697,1795,1811
1771,1825,1881
1984,1859,1937
1913,1845,1870
1696,1803,1794
1771,1819,1886
1982,1862,1950
1914,1852,1872
1691,1814,1807
1775,1819,1894
1978,1860,1936
1904,1846,1872
1695,1799,1803
1782,1817,1872
1993,1859,1937
1909,1847,1843
1695,1811,1790
1772,1825,1879
1979,1863,1935
1904,1835,1851
1707,1808,1778
1773,1832,1883
1983,1873,1938
1911,1844,1857
1703,1806,1803
1783,1825,1884
1994,1855,1947
1920,1840,1856
1706,1807,1799
1774,1840,1882
2003,1869,1936
1930,1851,1853
1711,1816,1788
1786,1833,1863
1984,1863,1930
1905,1840,1861
1711,1792,1797
1767,1819,1865
1997,1862,1935
1919,1828,1850
1706,1799,1792
1773,1810,1866
1986,1861,1922
1907,1845,1843
1697,1790,1783
1798,1821,1871
1999,1855,1926
1920,1840,1845
1705,1798,1777
1783,1819,1863
1995,1856,1925
1922,1831,1838
1695,1781,1777
1763,1807,1861
1985,1853,1914
1914,1846,1840
1701,1802,1788
1773,1819,1872
1982,1851,1921
1910,1831,1840
1703,1791,1781
1783,1815,1863
1987,1863,1919
1906,1845,1839
1687,1806,1776
1777,1820,1859
1992,1840,1920
1917,1840,1843
1697,1778,1791
1776,1809,1858
1993,1850,1909
1920,1843,1830
1706,1808,1776
1776,1812,1855
1996,1859,1919
1920,1837,1834
1687,1793,1760
1774,1839,1853
1987,1858,1914
1904,1837,1821
1685,1796,1767
1785,1818,1853
1990,1859,1911
1919,1839,1823
1699,1790,1761
1767,1808,1851
1983,1857,1910
1904,1840,1829
1680,1801,1775
1763,1811,1856
1979,1842,1920
1907,1827,1840
1680,1780,1776
1778,1808,1846
1987,1850,1906
1908,1821,1826
1680,1787,1777
1775,1812,1841
1990,1853,1909
1916,1847,1822
1694,1808,1776
1792,1815,1862
1990,1855,1911
1907,1830,1834
1699,1790,1775
1776,1826,1850
1987,1847,1910
1904,1826,1827
1691,1794,1762
1779,1819,1840
1993,1855,1905
1913,1840,1825
1689,1822,1763
1776,1831,1841
1984,1856,1893
1907,1837,1807
1701,1793,1767
1777,1825,1840
1984,1863,1892
1904,1860,1801
1683,1825,1760
1776,1809,1855
1983,1861,1904
1904,1845,1814
1681,1808,1754
1776,1831,1842
1986,1872,1903
1885,1853,1824
1697,1795,1783
1782,1819,1848
2009,1867,1897
1918,1839,1808
1682,1800,1759
1776,1826,1840
1987,1867,1904
1909,1846,1813
1680,1808,1760
1777,1822,1851
1990,1860,1904
1903,1840,1827
1705,1803,1764
1773,1809,1856
1969,1866,1909
1888,1833,1819
1685,1802,1762
1776,1834,1857
1985,1869,1904
1909,1841,1817
1682,1808,1767
1778,1819,1846
1983,1867,1908
1898,1835,1830
1695,1783,1775
1781,1817,1861
1984,1853,1920
1906,1840,1829
1694,1803,1769
1792,1829,1851
2000,1871,1901
1904,1843,1808
1691,1797,1760
1786,1805,1856
1999,1843,1908
1904,1827,1838
1692,1803,1775
1794,1827,1844
1995,1854,1897
1887,1831,1809
1685,1793,1776
1779,1827,1856
1987,1858,1907
1901,1841,1820
1682,1807,1760
1777,1823,1847
1971,1855,1906
1899,1845,1821
1680,1805,1777
1793,1822,1863
1981,1842,1904
1904,1842,1810
1685,1811,1762
1776,1830,1857
1984,1870,1910
1899,1847,1831
1695,1815,1761
1793,1823,1845
1990,1847,1894
1893,1827,1821
1681,1802,1765
1761,1831,1854
1985,1850,1904
1903,1835,1822
1701,1796,1767
1780,1818,1853
1998,1859,1911
1905,1837,1829
1692,1792,1777
1781,1830,1853
1991,1857,1903
1909,1842,1823
1694,1806,1777
1779,1837,1857
1989,1854,1907
1899,1827,1823
1693,1794,1776
1799,1825,1862
1991,1861,1913
1893,1839,1818
1680,1795,1763
1766,1819,1840
1978,1853,1905
1893,1828,1824
1708,1793,1776
1779,1819,1869
1974,1861,1912
1898,1840,1821
1686,1802,1779
1781,1821,1863
2000,1871,1920
1903,1833,1819
1683,1807,1762
1776,1815,1851
1981,1863,1909
1895,1830,1837
1680,1797,1777
1776,1822,1859
1985,1863,1911
1907,1842,1817
1710,1803,1760
1779,1825,1852
1997,1856,1906
1895,1840,1825
1701,1790,1776
1775,1830,1856
1973,1851,1905
1891,1833,1828
1694,1808,1767
1783,1831,1856
2000,1867,1920
1897,1851,1826
1694,1808,1774
1782,1840,1856
1984,1877,1910
1894,1840,1810
1685,1806,1766
1779,1834,1867
1984,1872,1915
1899,1853,1825
1690,1813,1764
1778,1839,1855
1999,1871,1903
1895,1845,1814
1684,1804,1769
1783,1822,1862
1978,1865,1907
1897,1831,1811
1683,1792,1772
1783,1818,1861
1982,1856,1910
1883,1839,1831
1691,1799,1778
1791,1829,1862
1997,1883,1919
1900,1851,1825
1700,1798,1775
1794,1835,1857
1995,1863,1909
1905,1837,1833
1694,1801,1792
1785,1835,1869
1986,1865,1915
1894,1833,1834
1685,1799,1778
1794,1810,1857
1998,1855,1905
1894,1839,1825
1682,1808,1782
1783,1834,1872
1984,1859,1917
1887,1841,1833
1685,1799,1784
1781,1814,1878
1983,1855,1934
1885,1840,1821
1683,1807,1773
1786,1827,1855
1983,1862,1923
1876,1834,1829
1680,1804,1771
1781,1825,1852
1994,1857,1906
1895,1840,1825
1681,1814,1776
1785,1812,1871
1971,1836,1908
1883,1827,1824
1687,1785,1769
1781,1833,1865
1991,1870,1920
1900,1835,1824
1679,1805,1770
1782,1823,1862
1990,1857,1908
1904,1834,1822
1691,1794,1776
1770,1822,1863
1984,1867,1904
1885,1840,1811
1686,1799,1773
1787,1829,1856
1986,1853,1905
1887,1834,1818
1682,1796,1760
1777,1814,1847
1984,1861,1919
1885,1844,1822
1686,1808,1767
1779,1815,1863
1989,1867,1919
1888,1835,1825
1691,1792,1776
1789,1819,1870
1996,1865,1911
1888,1833,1818
1685,1802,1775
1789,1829,1870
1995,1869,1906
1899,1850,1817
1686,1810,1763
1792,1818,1872
1993,1841,1921
1889,1827,1823
1691,1791,1771
1810,1822,1855
2000,1855,1904
1895,1843,1827
1684,1808,1776
1791,1830,1857
1991,1863,1909
1894,1841,1813
1697,1805,1783
1799,1828,1856
2000,1872,1895
1891,1840,1807
1687,1808,1774
1787,1831,1856
1993,1870,1903
1897,1845,1807
1698,1790,1759
1799,1811,1855
2008,1843,1911
1904,1835,1833
1698,1808,1776
1789,1823,1872
1987,1840,1917
1890,1829,1822
1698,1803,1780
1793,1811,1868
2000,1840,1906
1887,1826,1815
1682,1808,1776
1784,1823,1872
2001,1860,1905
1901,1840,1819
1701,1802,1777
1808,1840,1858
2000,1872,1905
1891,1843,1808
1685,1803,1747
1796,1833,1857
2003,1869,1904
1891,1835,1810
1696,1799,1795
1795,1818,1878
1987,1857,1917
1882,1839,1810
1694,1801,1776
1806,1831,1862
1990,1855,1918
1895,1842,1822
1695,1803,1776
1789,1835,1872
1979,1855,1906
1883,1838,1809
1694,1811,1771
1801,1831,1860
1987,1859,1904
1882,1843,1824
1688,1808,1774
1795,1839,1872
2000,1869,1911
1898,1834,1811
1695,1810,1778
1815,1834,1856
2011,1862,1907
1872,1835,1808
1680,1808,1775
1789,1817,1866
2001,1852,1901
1883,1839,1819
1680,1814,1776
1790,1840,1867
1997,1872,1907
1886,1856,1815
1685,1814,1763
1791,1833,1873
1998,1869,1915
1870,1850,1819
1680,1805,1766
1799,1821,1857
1994,1863,1905
1877,1839,1819
1670,1795,1777
1795,1817,1860
1984,1846,1903
1878,1829,1808
1678,1805,1765
1785,1826,1843
1986,1865,1895
1895,1818,1808
1691,1786,1776
1805,1831,1870
2000,1853,1911
1891,1829,1811
1703,1793,1769
1790,1820,1863
1987,1853,1905
1874,1826,1809
1693,1797,1769
1806,1826,1874
2000,1859,1901
1885,1840,1814
1680,1798,1776
1799,1830,1870
1996,1872,1904
1889,1824,1807
1695,1797,1772
1811,1820,1868
2001,1850,1923
1887,1826,1825
1685,1803,1788
1780,1821,1870
1986,1847,1905
1877,1818,1808
1692,1796,1776
1808,1821,1857
2000,1841,1900
1873,1836,1829
1682,1798,1794
1791,1826,1887
1995,1862,1933
1893,1835,1834
1686,1793,1786
1808,1813,1867
1990,1847,1905
1891,1825,1819
1707,1797,1788
1814,1823,1885
1998,1840,1926
1883,1818,1838
1661,1786,1783
1791,1813,1872
2001,1851,1914
1873,1830,1821
1680,1807,1783
1798,1825,1872
1989,1862,1906
1878,1841,1817
1681,1798,1776
1821,1812,1872
2019,1856,1920
1885,1850,1832
1678,1796,1787
1798,1823,1883
2000,1847,1915
1885,1831,1825
1681,1798,1785
1804,1831,1872
1997,1857,1911
1875,1837,1823
1670,1793,1793
1786,1823,1898
1997,1853,1927
1866,1840,1827
1681,1798,1781
1808,1819,1872
2000,1855,1918
1889,1829,1827
1693,1792,1778
1794,1823,1870
2000,1863,1913
1875,1835,1827
1681,1791,1790
1808,1823,1878
2003,1872,1922
1872,1845,1826
1680,1808,1778
1802,1826,1876
1999,1868,1920
1872,1837,1834
1680,1808,1789
1808,1840,1888
2000,1855,1925
1879,1831,1840
1679,1808,1795
1803,1830,1889
2009,1858,1920
1882,1830,1811
1696,1808,1771
1803,1821,1865
1997,1866,1907
1872,1823,1825
1678,1799,1783
1803,1829,1872
1996,1863,1925
1872,1839,1825
1676,1797,1794
1807,1824,1873
1995,1861,1900
1879,1842,1825
1701,1787,1791
1826,1823,1891
2005,1857,1922
1872,1829,1822
1682,1792,1786
1815,1821,1872
1991,1856,1906
1877,1845,1810
1680,1799,1785
1810,1830,1872
2002,1857,1917
1874,1834,1808
1685,1787,1774
1810,1808,1873
2000,1858,1919
1872,1837,1825
1681,1808,1787
1807,1840,1866
1997,1866,1905
1859,1833,1801
1679,1802,1783
1807,1835,1878
2000,1856,1909
1872,1834,1819
1678,1804,1769
1810,1819,1863
1995,1847,1919
1887,1829,1809
1701,1798,1760
1814,1824,1868
1998,1856,1908
1867,1821,1821
1684,1793,1783
1817,1830,1880
2010,1857,1914
1872,1822,1825
1708,1790,1776
1830,1817,1879
2006,1861,1905
1879,1834,1815
1695,1791,1774
1817,1835,1870
1994,1865,1915
1872,1818,1811
1686,1792,1782
1815,1826,1883
2001,1865,1920
1871,1843,1827
1675,1808,1785
1806,1818,1871
1995,1862,1905
1863,1840,1814
1685,1808,1783
1819,1824,1873
1999,1858,1909
1878,1831,1815
1690,1803,1791
1813,1835,1879
1988,1867,1906
1871,1836,1828
1687,1795,1778
1804,1837,1867
1983,1862,1898
1866,1837,1806
1687,1792,1766
1808,1824,1851
1995,1866,1904
1874,1840,1820
1689,1808,1806
1819,1835,1898
2005,1849,1914
1883,1829,1808
1696,1805,1777
1808,1823,1874
1989,1859,1904
1856,1828,1808
1680,1802,1791
1809,1817,1878
2000,1863,1904
1863,1841,1803
1686,1814,1770
1802,1840,1872
2006,1869,1902
1886,1840,1809
1697,1808,1776
1818,1826,1874
2000,1867,1915
1871,1837,1822
1682,1811,1781
1814,1845,1878
2001,1863,1904
1885,1829,1823
1692,1803,1795
1835,1826,1882
2012,1868,1904
1875,1839,1803
1690,1810,1776
1822,1835,1873
2014,1856,1904
1873,1829,1822
1691,1795,1787
1826,1822,1865
2002,1850,1898
1865,1818,1817
1681,1798,1794
1815,1822,1879
2000,1872,1921
1872,1835,1809
1683,1793,1794
1840,1821,1869
2015,1846,1911
1878,1825,1808
1693,1803,1785
1824,1830,1881
2014,1855,1917
1871,1826,1819
1675,1802,1779
1813,1823,1875
1994,1867,1905
1863,1819,1808
1669,1798,1776
1802,1830,1870
1986,1855,1904
1873,1825,1806
1685,1805,1779
1824,1831,1885
1993,1874,1920
1862,1844,1819
1686,1809,1776
1817,1834,1878
1995,1855,1909
1867,1819,1813
1689,1807,1789
1826,1826,1889
2005,1862,1922
1868,1826,1817
1682,1802,1782
1796,1814,1885
1985,1854,1906
1855,1818,1821
1681,1797,1785
1815,1831,1881
2002,1858,1909
1841,1841,1808
1679,1808,1777
1814,1839,1878
1981,1856,1918
1858,1835,1823
1683,1805,1799
1825,1822,1872
2002,1862,1909
1859,1837,1824
1680,1791,1787
1809,1831,1872
1984,1857,1908
1873,1836,1807
1690,1798,1783
1823,1827,1895
2000,1846,1903
1869,1826,1814
1680,1790,1782
1833,1823,1872
2015,1857,1903
1872,1833,1808
1671,1804,1790
1838,1830,1885
2007,1867,1903
1872,1841,1818
1693,1808,1785
1827,1828,1871
2002,1846,1903
1873,1829,1801
1699,1808,1797
1855,1835,1885
2020,1856,1920
1853,1818,1823
1669,1806,1776
1814,1830,1872
1997,1855,1904
1854,1835,1808
1668,1803,1781
1820,1833,1855
2003,1864,1894
1862,1840,1794
1689,1804,1789
1811,1826,1879
1989,1862,1910
1846,1833,1831
1679,1808,1783
1842,1840,1889
1998,1873,1907
1850,1852,1809
1680,1815,1787
1826,1835,1877
2005,1854,1886
1863,1821,1799
1680,1804,1782
1827,1835,1877
2006,1862,1904
1853,1830,1821
1694,1808,1799
1842,1840,1886
2019,1859,1917
1872,1831,1808
1682,1809,1783
1830,1839,1873
1995,1855,1901
1870,1828,1810
1698,1791,1789
1821,1823,1888
2000,1851,1919
1855,1824,1807
1680,1797,1776
1824,1819,1875
2006,1855,1911
1852,1830,1822
1680,1808,1787
1824,1835,1879
2000,1859,1910
1863,1821,1817
1680,1786,1776
1825,1820,1881
1999,1862,1904
1844,1823,1805
1664,1808,1783
1814,1830,1881
1998,1867,1905
1840,1815,1805
1682,1791,1780
1825,1837,1883
1991,1856,1903
1840,1815,1798
1679,1798,1781
1815,1831,1878
1986,1863,1903
1840,1824,1814
1666,1795,1778
1806,1837,1874
1983,1859,1906
1857,1822,1808
1687,1808,1789
1834,1835,1877
2005,1872,1904
1851,1842,1808
1678,1812,1785
1840,1839,1867
2003,1852,1887
1851,1823,1803
1680,1793,1783
1835,1829,1870
2000,1848,1904
1858,1824,1824
1689,1798,1791
1827,1834,1886
1989,1870,1905
1851,1838,1806
1678,1796,1795
1833,1836,1897
1990,1862,1914
1858,1835,1807
1682,1794,1787
1829,1820,1876
1985,1861,1906
1838,1833,1806
1679,1808,1778
1838,1821,1868
2003,1839,1898
1847,1815,1808
1669,1791,1776
1821,1814,1878
1995,1842,1893
1846,1823,1797
1681,1804,1781
1840,1820,1872
1999,1855,1901
1843,1830,1797
1680,1806,1771
1839,1841,1869
1989,1846,1893
1856,1838,1807
1690,1801,1789
1851,1834,1876
2011,1869,1899
1841,1835,1803
1664,1804,1778
1828,1838,1876
2007,1872,1895
1842,1825,1795
1679,1803,1777
1826,1839,1875
1999,1856,1903
1844,1810,1794
1669,1779,1782
1838,1811,1873
1994,1851,1887
1831,1822,1786
1670,1794,1777
1819,1829,1872
1997,1863,1888
1842,1835,1798
1682,1808,1771
1832,1832,1872
2001,1860,1893
1847,1821,1791
1681,1795,1775
1835,1826,1875
2000,1866,1895
1847,1825,1783
1681,1807,1763
1838,1840,1872
1989,1866,1894
1824,1831,1797
1664,1801,1775
1837,1828,1873
1999,1862,1900
1843,1835,1808
1695,1807,1778
1850,1835,1875
1991,1855,1876
1834,1819,1795
1677,1802,1771
1839,1823,1875
1985,1860,1918
1830,1829,1810
1675,1799,1776
1839,1833,1869
2002,1863,1891
1840,1835,1791
1677,1819,1783
1841,1834,1875
2002,1863,1885
1843,1839,1805
1677,1802,1789
1833,1826,1890
1997,1856,1919
1850,1821,1808
1676,1802,1793
1825,1840,1882
1995,1870,1904
1843,1827,1803
1702,1793,1777
1842,1835,1870
2000,1868,1898
1839,1831,1813
1687,1806,1795
1847,1840,1878
2013,1856,1899
1849,1826,1803
1682,1809,1784
1840,1833,1872
1998,1857,1900
1847,1824,1803
1686,1798,1774
1843,1837,1873
2013,1856,1895
1847,1826,1801
1686,1806,1787
1853,1840,1872
2003,1872,1893
1854,1823,1805
1682,1807,1776
1853,1833,1874
2000,1850,1897
1840,1817,1794
1682,1795,1773
1849,1831,1871
2009,1863,1898
1843,1837,1794
1680,1803,1767
1840,1846,1870
2009,1867,1883
1847,1828,1790
1689,1805,1761
1843,1840,1882
2005,1856,1906
1841,1818,1802
1690,1803,1777
1854,1825,1877
2015,1856,1904
1830,1822,1809
1678,1801,1794
1831,1835,1898
2000,1861,1910
1842,1819,1807
1686,1787,1786
1842,1823,1868
2016,1855,1904
1831,1809,1793
1680,1792,1776
1841,1831,1882
1994,1859,1902
1827,1829,1797
1669,1798,1777
1839,1823,1877
1995,1856,1899
1831,1822,1797
1671,1798,1787
1831,1840,1877
1998,1867,1901
1831,1819,1806
1673,1802,1794
1849,1831,1879
1999,1857,1892
1849,1829,1786
1683,1795,1782
1840,1824,1878
2012,1854,1892
1841,1822,1801
1686,1796,1789
1842,1837,1886
2015,1864,1889
1849,1825,1797
1709,1805,1789
1843,1840,1874
2011,1861,1888
1834,1810,1782
1679,1794,1778
1840,1838,1893
2003,1859,1901
1815,1831,1807
1658,1806,1789
1831,1831,1880
2009,1843,1898
1833,1822,1799
1667,1796,1792
1840,1832,1889
1993,1855,1902
1831,1808,1801
1691,1792,1791
1856,1835,1893
2003,1859,1902
1850,1814,1792
1685,1795,1783
1843,1844,1881
2002,1858,1906
1829,1822,1808
1679,1805,1792
1844,1847,1875
1990,1868,1897
1825,1837,1802
1664,1808,1791
1840,1822,1891
1995,1858,1891
1827,1824,1798
1681,1806,1783
1861,1830,1894
2000,1851,1904
1829,1827,1808
1669,1804,1793
1841,1839,1876
1997,1857,1898
1838,1833,1787
1670,1808,1797
1851,1835,1904
2001,1849,1900
1831,1813,1793
1673,1794,1770
1815,1826,1879
2001,1856,1905
1823,1824,1808
1675,1807,1791
1840,1836,1872
1985,1845,1897
1837,1819,1797
1680,1805,1793
1852,1836,1887
2007,1862,1888
1840,1826,1786
1680,1808,1793
1856,1850,1884
2010,1866,1904
1823,1831,1810
1678,1814,1779
1847,1840,1894
2001,1857,1899
1835,1828,1794
1693,1795,1787
1838,1819,1878
1997,1861,1891
1823,1821,1793
1680,1791,1797
1855,1827,1890
2003,1844,1907
1819,1817,1787
1673,1807,1776
1849,1845,1888
2003,1870,1897
1825,1829,1808
1674,1802,1794
1839,1835,1889
1998,1855,1904
1828,1826,1798
1680,1808,1781
1849,1838,1884
1993,1857,1899
1840,1815,1807
1681,1794,1799
1857,1829,1895
2000,1847,1906
1818,1824,1808
1670,1799,1788
1852,1830,1885
2007,1859,1889
1839,1825,1793
1685,1802,1779
1854,1846,1891
1994,1856,1903
1819,1813,1802
1682,1795,1778
1851,1837,1884
2003,1863,1900
1827,1829,1807
1680,1795,1803
1851,1826,1904
2007,1847,1903
1822,1825,1795
1679,1787,1789
1855,1834,1885
2013,1871,1898
1829,1818,1803
1685,1798,1791
1856,1829,1889
2005,1860,1904
1825,1837,1797
1685,1808,1776
1858,1847,1875
2005,1861,1890
1835,1822,1795
1695,1805,1780
1865,1840,1883
2005,1863,1877
1822,1833,1805
1680,1818,1787
1861,1845,1886
2003,1856,1883
1824,1831,1776
1686,1791,1788
1859,1830,1887
2006,1863,1901
1823,1829,1795
1669,1803,1802
1853,1840,1881
1990,1872,1895
1834,1831,1799
1686,1803,1790
1869,1845,1885
2006,1859,1893
1817,1831,1806
1681,1807,1793
1857,1840,1891
1989,1862,1905
1817,1840,1789
1664,1800,1781
1855,1837,1879
2007,1873,1887
1826,1833,1787
1692,1808,1778
1858,1840,1883
1993,1856,1894
1814,1835,1794
1677,1808,1781
1863,1841,1890
2004,1860,1905
1823,1821,1787
1681,1802,1790
1865,1840,1887
2001,1865,1894
1827,1821,1797
1674,1801,1792
1860,1825,1893
2011,1847,1891
1831,1822,1783
1696,1815,1778
1869,1827,1872
2001,1854,1904
1821,1827,1795
1689,1808,1797
1866,1837,1894
2006,1862,1894
1831,1821,1792
1683,1793,1788
1858,1830,1888
2009,1858,1903
1836,1824,1795
1682,1794,1793
1859,1834,1882
2001,1865,1903
1822,1829,1798
1685,1803,1793
1861,1840,1891
2002,1861,1902
1821,1824,1797
1689,1802,1786
1872,1840,1882
2003,1859,1885
1821,1828,1797
1680,1814,1805
1856,1855,1888
2011,1867,1889
1838,1815,1785
1687,1808,1792
1857,1836,1899
2000,1849,1903
1810,1814,1795
1677,1796,1779
1854,1835,1873
1987,1858,1888
1814,1821,1793
1682,1798,1783
1872,1839,1873
2012,1855,1878
1833,1821,1778
1695,1805,1775
1870,1839,1877
1994,1860,1888
1817,1828,1792
1696,1807,1795
1877,1828,1877
2000,1855,1877
1822,1830,1776
1682,1807,1777
1862,1834,1891
2011,1856,1904
1819,1824,1807
1683,1804,1808
1859,1833,1891
1999,1862,1895
1822,1826,1789
1712,1806,1792
1890,1838,1890
2017,1856,1881
1831,1814,1789
1690,1799,1792
1867,1835,1891
2002,1868,1889
1822,1824,1782
1683,1808,1786
1865,1835,1888
1994,1861,1887
1811,1829,1794
1680,1811,1788
1863,1839,1886
1989,1866,1897
1807,1819,1789
1686,1797,1789
1867,1845,1895
1999,1873,1890
1807,1835,1782
1680,1808,1791
1866,1830,1900
2000,1839,1897
1811,1806,1789
1688,1798,1781
1857,1838,1881
1991,1858,1879
1813,1811,1793
1696,1792,1803
1887,1839,1904
2013,1871,1903
1813,1833,1797
1687,1808,1799
1875,1840,1902
2000,1859,1893
1798,1827,1784
1669,1809,1789
1870,1844,1888
2009,1869,1891
1823,1830,1786
1691,1802,1797
1870,1838,1897
1991,1856,1892
1811,1827,1793
1685,1801,1776
1866,1826,1877
1994,1850,1883
1798,1813,1792
1674,1800,1798
1859,1838,1894
2000,1862,1892
1808,1825,1786
1683,1798,1791
1869,1839,1883
2000,1856,1889
1821,1829,1795
1692,1808,1791
1866,1849,1891
1987,1868,1903
1799,1825,1787
1680,1798,1778
1872,1839,1883
2001,1857,1893
1811,1812,1792
1690,1794,1796
1875,1840,1897
2001,1865,1882
1813,1822,1785
1691,1795,1792
1862,1840,1889
2000,1867,1894
1804,1829,1790
1676,1806,1799
1861,1837,1903
2005,1853,1897
1811,1823,1798
1682,1795,1801
1868,1825,1898
1998,1854,1903
1805,1821,1793
1678,1808,1801
1872,1849,1895
2000,1872,1886
1814,1833,1785
1681,1802,1789
1862,1840,1893
1999,1859,1891
1808,1821,1794
1680,1795,1799
1865,1841,1895
2000,1872,1891
1801,1828,1785
1687,1808,1791
1869,1852,1903
1985,1867,1900
1799,1828,1798
1681,1803,1809
1872,1840,1904
2001,1864,1899
1808,1835,1793
1681,1808,1807
1872,1839,1911
