1828,1883,1851
1834,1830,1852
1856,1859,1839
1863,1900,1824
1873,1776,1808
1843,1801,1801
1798,1887,1875
1789,1873,1888
1826,1874,1857
1835,1857,1850
1846,1857,1891
1841,1919,1863
1825,1942,1841
1813,1778,1819
1823,1751,1824
1836,1799,1837
1845,1808,1830
1845,1792,1840
1854,1798,1833
1840,1927,1872
1841,1845,1858
1843,1778,1840
1823,1886,1866
1831,1899,1870
1821,1859,1856
1835,1859,1855
1851,1883,1864
1853,1822,1808
1825,1818,1851
1829,1886,1863
1852,1905,1853
1830,1878,1849
1797,1827,1872
1821,1833,1863
1831,1757,1807
1846,1805,1824
1827,1845,1872
1840,1855,1872
1871,1833,1845
1851,1893,1866
1849,1851,1823
1799,1803,1847
1810,1828,1855
1808,1836,1842
1813,1833,1843
1823,1867,1851
1847,1873,1840
1843,1901,1838
1827,1879,1851
1823,1822,1849
1849,1854,1839
1873,1845,1791
1817,1730,1803
1798,1823,1883
1824,1863,1904
1843,1855,1869
1846,1884,1840
1829,1850,1841
1822,1803,1852
1827,1841,1853
1845,1789,1845
1843,1807,1858
1834,1867,1837
1834,1890,1833
1806,1822,1847
1837,1843,1856
1840,1853,1856
1839,1828,1851
1833,1837,1845
1842,1791,1799
1829,1841,1840
1871,1859,1795
1819,1780,1847
1794,1840,1902
1823,1888,1872
1843,1854,1853
1837,1779,1830
1839,1790,1838
1865,1835,1840
1863,1813,1826
1838,1814,1858
1854,1845,1872
1866,1839,1858
1829,1863,1831
1833,1847,1850
1843,1844,1858
1844,1871,1850
1909,1819,1786
1842,1829,1846
1801,1875,1888
1840,1859,1870
1858,1863,1808
1814,1765,1841
1791,1661,1874
1823,1743,1865
1837,1829,1858
1842,1867,1872
1859,1835,1855
1837,1849,1823
1833,1855,1827
1858,1837,1839
1870,1850,1853
1862,1856,1848
1855,1862,1840
1863,1858,1825
1862,1803,1808
1839,1877,1888
1855,1909,1887
1873,1841,1872
1850,1831,1863
1824,1792,1839
1852,1792,1802
1842,1737,1812
1805,1849,1887
1804,1808,1890
1831,1847,1875
1843,1837,1855
1823,1812,1837
1838,1763,1776
1853,1840,1839
1845,1917,1900
1840,1872,1887
1869,1857,1849
1857,1836,1840
1856,1842,1841
1866,1897,1840
1907,1914,1840
1853,1755,1827
1821,1744,1833
1819,1843,1858
1883,1981,1829
1902,1749,1763
1784,1759,1885
1777,1826,1918
1798,1862,1877
1840,1845,1843
1851,1846,1839
1856,1850,1841
1856,1843,1840
1863,1841,1843
1859,1840,1853
1860,1833,1847
1859,1872,1840
1867,1874,1837
1875,1834,1841
1877,1826,1831
1888,1798,1794
1853,1777,1841
1797,1879,1889
1793,1911,1889
1809,1734,1819
1871,1776,1834
1854,1852,1883
1809,1873,1911
1814,1853,1840
1845,1856,1827
1834,1808,1841
1837,1815,1845
1853,1840,1853
1879,1858,1853
1871,1873,1861
1856,1838,1859
1853,1831,1854
1857,1861,1851
1871,1843,1811
1850,1786,1840
1868,1893,1860
1838,1823,1872
1854,1728,1813
1831,1779,1842
1810,1845,1888
1847,1904,1875
1854,1827,1867
1872,1882,1847
1874,1840,1840
1814,1791,1857
1819,1823,1857
1840,1840,1854
1851,1823,1840
1861,1833,1847
1862,1850,1855
1886,1861,1859
1871,1853,1843
1862,1843,1845
1840,1863,1853
1850,1819,1845
1871,1802,1827
1887,1769,1762
1830,1902,1872
1808,1902,1904
1854,1835,1903
1870,1850,1882
1878,1886,1840
1822,1745,1838
1791,1751,1849
1825,1789,1851
1853,1817,1859
1853,1841,1871
1860,1841,1850
1904,1791,1801
1840,1862,1851
1813,1871,1887
1835,1872,1873
1862,1855,1855
1865,1797,1843
1860,1861,1870
1872,1901,1875
1872,1888,1846
1847,1887,1868
1862,1838,1859
1872,1872,1827
1866,1890,1850
1825,1778,1862
1839,1763,1871
1863,1813,1859
1855,1760,1809
1815,1809,1859
1824,1831,1878
1854,1848,1869
1872,1849,1863
1877,1824,1851
1866,1805,1843
1849,1851,1858
1842,1883,1863
1860,1895,1881
1851,1869,1872
1853,1840,1840
1869,1888,1840
1851,1814,1861
1840,1813,1874
1857,1851,1856
1865,1857,1847
1860,1775,1783
1839,1862,1839
1838,1934,1886
1856,1938,1869
1869,1744,1840
1798,1690,1862
1811,1767,1867
1836,1828,1855
1847,1847,1856
1854,1867,1855
1847,1850,1847
1871,1857,1858
1847,1856,1843
1851,1849,1853
1877,1851,1850
1895,1856,1842
1854,1904,1855
1835,1822,1856
1856,1805,1823
1856,1871,1860
1840,1905,1870
1831,1810,1841
1840,1821,1846
1857,1851,1856
1893,1796,1822
1858,1843,1867
1843,1951,1859
1870,1819,1839
1859,1823,1870
1822,1815,1875
1813,1869,1857
1851,1855,1849
1834,1837,1856
1840,1841,1862
1857,1815,1847
1887,1791,1809
1855,1868,1838
1846,2035,1881
1849,1840,1851
1852,1808,1843
1811,1877,1875
1809,1771,1856
1850,1798,1844
1869,1842,1851
1864,1857,1857
1872,1883,1859
1883,1849,1843
1860,1840,1847
1843,1846,1855
1840,1860,1889
1857,1840,1825
1872,1874,1839
1871,1921,1872
1893,1893,1808
1858,1738,1822
1831,1761,1862
1822,1867,1887
1840,1876,1872
1870,1974,1878
1869,1835,1863
1840,1773,1840
1824,1853,1855
1829,1849,1840
1837,1900,1850
1847,1810,1857
1843,1810,1851
1841,1826,1840
1856,1840,1843
1849,1858,1859
1886,1783,1806
1858,1811,1817
1836,1901,1874
1840,1902,1889
1853,1906,1872
1863,1840,1838
1890,1829,1839
1869,1923,1867
1826,1805,1871
1847,1808,1859
1870,1823,1852
1856,1823,1846
1847,1852,1846
1851,1808,1870
1853,1861,1860
1813,1851,1847
1839,1889,1840
1862,1708,1775
1817,1764,1862
1797,1849,1893
1811,1866,1890
1857,1893,1853
1851,1829,1840
1847,1829,1856
1847,1846,1856
1867,1895,1849
1883,1871,1849
1904,1875,1867
1843,1815,1855
1838,1857,1840
1840,1894,1841
1859,1817,1817
1849,1802,1857
1841,1813,1868
1859,1806,1861
1851,1807,1824
1854,1845,1837
1840,1904,1878
1854,1872,1863
1853,1904,1830
1840,1862,1862
1841,1859,1864
1840,1837,1845
1845,1843,1855
1855,1858,1849
1852,1850,1846
1853,1856,1840
1840,1875,1854
1871,1904,1857
1865,1748,1827
1819,1790,1852
1806,1794,1851
1838,1713,1802
1856,1796,1818
1838,1861,1881
1817,1859,1877
1838,1821,1842
1857,1853,1843
1856,1881,1854
1845,1875,1857
1843,1898,1856
1862,1866,1854
1849,1871,1853
1849,1866,1860
1872,1885,1809
1867,1785,1850
1821,1783,1856
1822,1799,1847
1856,1813,1830
1854,1883,1840
1845,1877,1836
1808,1855,1874
1830,1827,1872
1837,1774,1847
1821,1823,1860
1834,1823,1856
1861,1815,1839
1843,1924,1855
1844,1862,1850
1839,1841,1842
1845,1818,1849
1855,1841,1840
1872,1862,1847
1873,1844,1855
1840,1840,1863
1856,1861,1813
1887,1747,1813
1827,1822,1858
1837,1845,1863
1837,1851,1856
1814,1840,1850
1791,1845,1863
1808,1844,1865
1843,1837,1849
1854,1874,1845
1845,1910,1851
1845,1852,1856
1850,1864,1845
1854,1904,1834
1859,1808,1842
1886,1847,1822
1840,1778,1827
1809,1829,1861
1818,1813,1854
1835,1843,1850
1850,1839,1849
1869,1867,1815
1827,1872,1840
1841,1919,1867
1845,1886,1845
1853,1838,1851
1843,1856,1850
1855,1798,1854
1851,1837,1850
1850,1874,1841
1808,1739,1840
1827,1793,1850
1862,1840,1842
1859,1876,1850
1840,1808,1824
1818,1802,1827
1817,1858,1863
1840,1884,1861
1860,1830,1789
1854,1797,1826
1847,1854,1902
1857,1925,1901
1821,1840,1855
1808,1819,1839
1825,1842,1839
1846,1893,1850
1856,1907,1846
1860,1819,1845
1878,1808,1839
1852,1840,1842
1793,1854,1855
1780,1808,1856
1827,1831,1843
1850,1898,1842
1828,1774,1842
1819,1778,1853
1847,1779,1804
1867,1844,1840
1846,1868,1877
1843,1856,1877
1855,1877,1850
1867,1839,1808
1833,1852,1853
1822,1873,1870
1840,1890,1856
1872,1901,1827
1849,1776,1842
1811,1830,1853
1830,1833,1837
1847,1803,1859
1829,1821,1867
1808,1814,1859
1825,1837,1845
1845,1842,1854
1866,1883,1852
1842,1850,1824
1837,1806,1827
1831,1853,1875
1844,1907,1873
1822,1829,1865
1836,1839,1854
1849,1855,1840
1852,1853,1847
1861,1830,1859
1904,1972,1865
1874,1808,1840
1834,1671,1802
1808,1783,1817
1791,1861,1858
1808,1860,1872
1843,1848,1861
1846,1891,1883
1841,1803,1808
1809,1810,1851
1808,1842,1859
1830,1862,1844
1850,1846,1839
1871,1835,1852
1887,1855,1873
1918,1883,1873
1856,1906,1832
1835,1942,1861
1856,1815,1839
1851,1797,1849
1791,1839,1840
1826,1778,1803
1813,1776,1802
1792,1846,1884
1811,1808,1860
1847,1835,1822
1845,1866,1853
1837,1897,1853
1859,1835,1839
1841,1840,1840
1839,1851,1840
1839,1854,1842
1872,1872,1844
1894,1931,1839
1855,1852,1836
1821,1859,1851
1818,1791,1840
1850,1790,1834
1829,1782,1839
1839,1776,1803
1807,1849,1851
1837,1881,1867
1856,1887,1866
1839,1846,1844
1860,1892,1841
1871,1793,1826
1854,1842,1849
1841,1881,1856
1840,1839,1829
1818,1824,1823
1826,1837,1841
1859,1865,1853
1871,1921,1839
1866,1873,1797
1837,1827,1831
1866,1661,1810
1819,1823,1888
1773,1825,1862
1801,1803,1847
1835,1809,1857
1867,1830,1861
1865,1862,1843
1854,1873,1839
1847,1876,1841
1847,1869,1840
1847,1861,1840
1861,1894,1879
1823,1867,1855
1850,1880,1808
1872,1803,1786
1830,1745,1830
1826,1831,1854
1806,1866,1874
1808,1831,1873
1801,1805,1872
1813,1819,1862
1834,1840,1850
1845,1852,1852
1844,1856,1853
1846,1868,1852
1875,1879,1863
1870,1891,1853
1844,1856,1841
1851,1846,1857
1872,1856,1858
1861,1881,1859
1867,1877,1841
1895,1869,1855
1829,1817,1843
1817,1805,1815
1873,1812,1776
1847,1826,1855
1791,1855,1891
1793,1815,1872
1785,1790,1846
1808,1808,1846
1840,1835,1840
1857,1872,1840
1861,1867,1844
1862,1855,1847
1858,1863,1847
1862,1859,1839
1864,1861,1840
1861,1873,1850
1872,1904,1859
1895,1870,1829
1872,1824,1845
1841,1759,1831
1808,1842,1850
1817,1871,1859
1834,1872,1847
1840,1828,1840
1870,1766,1803
1823,1823,1882
1806,1811,1872
1794,1819,1838
1830,1840,1830
1858,1853,1836
1866,1851,1846
1865,1862,1855
1869,1882,1845
1878,1904,1846
1883,1828,1835
1856,1874,1851
1867,1832,1843
1875,1721,1818
1818,1871,1887
1807,1883,1875
1839,1843,1850
1850,1875,1853
1855,1857,1851
1853,1867,1860
1863,1857,1856
1865,1823,1851
1867,1859,1843
1886,1872,1803
1840,1872,1850
1827,1787,1853
1823,1859,1883
1845,1836,1871
1840,1824,1842
1839,1854,1841
1853,1858,1841
1867,1834,1809
1869,1825,1842
1835,1904,1885
1808,1833,1882
1825,1855,1855
1853,1870,1840
1893,1899,1841
1872,1859,1847
1839,1835,1845
1840,1873,1844
1856,1853,1808
1825,1831,1859
1843,1843,1832
1863,1798,1834
1861,1920,1856
1840,1773,1831
1842,1798,1840
1852,1868,1885
1861,1879,1881
1856,1840,1855
1841,1847,1858
1872,1869,1859
1879,1861,1856
1872,1875,1859
1864,1948,1888
1849,1795,1840
1863,1796,1844
1867,1858,1845
1868,1797,1829
1856,1849,1840
1847,1945,1881
1840,1872,1808
1835,1749,1821
1856,1766,1863
1857,1834,1862
1865,1819,1811
1839,1843,1840
1840,1902,1869
1871,1872,1861
1866,1840,1853
1859,1863,1847
1863,1886,1833
1895,1869,1839
1854,1831,1846
1823,1822,1851
1840,1831,1858
1920,1853,1815
1862,1839,1847
1815,1808,1837
1824,1833,1842
1843,1878,1866
1858,1918,1867
1872,1923,1847
1870,1861,1815
1891,1757,1837
1840,1803,1841
1808,1840,1859
1838,1840,1845
1861,1840,1843
1879,1830,1812
1871,1845,1823
1856,1898,1853
1845,1779,1845
1843,1828,1855
1869,1872,1839
1847,1823,1834
1846,1830,1833
1842,1821,1849
1843,1899,1872
1850,1891,1858
1856,1826,1825
1813,1826,1845
1818,1827,1855
1858,1873,1850
1879,1907,1869
1872,1840,1853
1842,1815,1826
1839,1783,1808
1851,1817,1835
1841,1873,1840
1831,1903,1840
1854,1819,1840
1857,1820,1823
1846,1808,1845
1839,1856,1870
1855,1830,1837
1905,1789,1773
1843,1879,1842
1823,1840,1891
1823,1819,1873
1821,1833,1851
1827,1872,1859
1835,1888,1857
1845,1824,1843
1868,1906,1807
1867,1808,1813
1817,1790,1859
1829,1850,1879
1869,1845,1858
1856,1797,1815
1824,1807,1840
1841,1818,1838
1849,1854,1840
1866,1805,1807
1850,1818,1841
1860,1879,1871
1871,1873,1869
1885,1835,1851
1847,1823,1838
1853,1770,1797
1813,1808,1850
1826,1840,1871
1862,1843,1849
1853,1827,1841
1840,1853,1830
1854,1793,1841
1855,1829,1843
1857,1898,1853
1872,1848,1839
1841,1797,1842
1829,1763,1841
1856,1744,1805
1845,1862,1857
1866,1851,1879
1850,1840,1860
1840,1808,1856
1869,1810,1841
1853,1824,1841
1832,1833,1845
1835,1842,1839
1857,1872,1837
1866,1819,1834
1872,1792,1825
1889,1776,1797
1831,1906,1853
1827,1882,1871
1840,1830,1866
1872,1872,1856
1856,1810,1821
1844,1730,1807
1837,1778,1840
1849,1843,1872
1864,1857,1850
1831,1799,1854
1838,1794,1867
1853,1840,1851
1855,1879,1838
1844,1857,1824
1872,1809,1848
1876,1799,1831
1861,1836,1839
1855,1825,1852
1838,1861,1859
1833,1834,1853
1850,1854,1840
1873,1839,1798
1846,1777,1797
1834,1891,1878
1818,1807,1872
1837,1776,1856
1857,1821,1849
1867,1902,1840
1869,1829,1834
1847,1783,1844
1830,1808,1843
1837,1872,1847
1857,1842,1843
1899,1843,1849
1852,1838,1860
1824,1879,1829
1823,1802,1831
1835,1827,1840
1828,1839,1853
1859,1824,1803
1878,1843,1823
1860,1872,1855
1840,1839,1872
1856,1871,1844
1834,1763,1821
1818,1804,1888
1843,1806,1872
1883,1806,1825
1861,1833,1825
1830,1843,1835
1818,1823,1843
1839,1867,1851
1862,1875,1854
1858,1860,1861
1885,1857,1858
1850,1780,1856
1856,1850,1809
1851,1895,1834
1826,1937,1854
1828,1811,1857
1851,1700,1869
1840,1752,1858
1876,1815,1836
1817,1799,1839
1814,1779,1831
1875,1807,1815
1893,1888,1885
1856,1861,1872
1824,1859,1855
1851,1859,1874
1843,1879,1856
1907,1785,1791
1894,1840,1851
1823,2015,1874
1744,1829,1873
1804,1763,1872
1855,1791,1856
1843,1856,1861
1818,1834,1829
1846,1883,1795
1839,1787,1812
1825,1814,1885
1904,1849,1890
1867,1823,1813
1864,1763,1806
1797,1956,1858
1799,1933,1840
1840,1933,1819
1847,1811,1863
1813,1799,1854
1789,1789,1874
1757,1767,1806
1793,1849,1835
1823,1781,1828
1830,1816,1823
1825,1973,1835
1872,1923,1865
1827,1913,1847
1781,1854,1818
1799,1765,1780
1805,1899,1815
1783,1949,1902
1793,1853,1899
1805,1915,1847
1834,1885,1797
1817,1792,1792
1749,1840,1856
1793,1875,1874
1811,1932,1859
1831,1831,1789
1855,1859,1779
1809,1951,1807
1789,1890,1840
1825,1874,1880
1789,1910,1830
1744,1942,1823
1761,1937,1829
1776,1860,1808
1795,1821,1798
1868,1798,1826
1826,1943,1907
1753,2017,1903
1767,1811,1776
1786,1808,1776
1823,1904,1850
1840,1843,1828
1775,1831,1843
1770,1899,1834
1842,1936,1827
1863,1839,1799
1766,1840,1794
1745,1872,1835
1760,1919,1856
1843,1962,1854
1808,1873,1815
1780,1808,1774
1772,1850,1856
1746,1936,1875
1772,1917,1855
1793,1868,1839
1808,1917,1850
1817,1883,1873
1808,1829,1807
1808,1805,1776
1766,1861,1862
1758,1954,1915
1797,1920,1850
1803,1878,1807
1837,1847,1845
1813,1901,1840
1819,1971,1861
1830,1977,1857
1792,1907,1823
1779,1808,1807
1780,1805,1837
1766,1792,1779
1787,1856,1851
1762,1884,1840
1758,1927,1858
1779,1867,1902
1808,1854,1886
1805,1873,1790
1811,1919,1813
1829,1973,1872
1859,1932,1905
1846,1899,1887
1754,1774,1789
1759,1814,1762
1750,1849,1790
1851,1989,1854
1783,1894,1854
1807,1885,1872
1817,1904,1849
1792,1908,1872
1843,1907,1850
1807,1915,1841
1808,1946,1882
1841,1849,1841
1891,1829,1803
1733,1855,1776
1744,1868,1854
1773,1872,1907
1776,1860,1852
1793,1883,1819
1774,1912,1847
1757,1850,1809
1789,1821,1821
1837,1923,1883
1815,1863,1867
1822,1869,1830
1831,1852,1869
1825,1878,1874
1810,1874,1781
1820,1881,1795
1872,1930,1921
1773,1913,1846
1680,1831,1750
1788,1744,1722
1819,1850,1870
1780,1959,1938
1821,1989,1879
1807,1899,1808
1730,1843,1872
1831,1778,1921
1790,1885,1842
1750,1758,1723
1798,1808,1823
1809,1821,1839
1822,1843,1840
1808,1955,1867
1882,1966,1885
1862,1942,1949
1783,1899,1814
1732,1776,1705
1813,1793,1779
1820,1946,1823
1765,1850,1839
1808,1769,1887
1872,1904,1901
1775,1788,1805
1737,1765,1739
1789,1769,1829
1824,1911,1911
1833,1934,1904
1853,1843,1839
1863,1866,1815
1776,1854,1836
1761,1878,1762
1797,1851,1810
1879,1935,1835
1870,1850,1813
1805,1861,1877
1787,1817,1877
1869,1808,1840
1741,1835,1827
1709,1776,1813
1781,1837,1839
1779,1899,1885
1809,1875,1845
1833,1866,1808
1827,1878,1782
1808,1860,1861
1791,1838,1876
1807,1863,1828
1842,1981,1870
1829,1865,1875
1883,1853,1856
1803,1827,1879
1840,1670,1808
1872,1829,1840
1846,2017,1875
1833,1843,1876
1782,1854,1958
1831,1826,1958
1790,1808,1840
1778,1808,1754
1799,1822,1798
1817,1878,1846
1808,1890,1863
1840,1909,1886
1879,1895,1874
1875,1831,1920
1797,1824,1814
1750,1757,1811
1778,1834,1874
1825,1871,1855
1888,1907,1894
1817,1834,1843
1794,1808,1835
1750,1822,1876
1815,1831,1907
1936,1888,1892
1841,1777,1808
1863,1838,1835
1783,1846,1858
1839,1877,1936
1872,1912,1861
1796,1809,1783
1717,1833,1851
1809,1826,1893
1833,1855,1858
1831,1840,1803
1818,1837,1838
1815,1851,1850
1825,1899,1933
1843,1771,1949
1808,1632,1798
1856,1819,1841
1863,1899,1835
1808,1885,1922
1771,1857,1923
1777,1812,1904
1871,1812,1819
1867,1904,1803
1811,1856,1885
1803,1775,1887
1867,1881,1846
1874,1826,1792
1891,1830,1890
1890,1814,1957
1775,1763,1857
1727,1787,1837
1751,1877,1821
1840,1829,1853
1835,1802,1870
1813,1861,1874
1889,1862,1890
1844,1872,1936
1834,1895,1841
1829,1849,1821
1817,1845,1827
1840,1859,1872
1895,1869,1922
1984,1804,1851
1869,1821,1858
1823,1745,1853
1779,1857,1840
1761,1794,1856
1798,1807,1892
1806,1774,1875
1815,1811,1863
1840,1892,1936
1851,1854,1863
1871,1865,1763
1815,1872,1779
1835,1822,1906
1884,1818,1931
1917,1947,1872
1857,1690,1808
1793,1761,1877
1819,1783,1858
1779,1792,1858
1795,1949,1935
1822,1861,1897
1808,1863,1878
1856,1754,1856
1872,1748,1803
1886,1863,1879
1874,1874,1877
1813,1846,1839
1796,1834,1803
1872,1920,1850
1921,1794,1920
1869,1771,1872
1856,1865,1781
1867,1797,1831
1810,1805,1913
1794,1878,1847
1779,1837,1850
1792,1824,1888
1830,1802,1876
1879,1915,1929
1899,1872,1865
1943,1837,1870
1836,1760,1820
1719,1792,1789
1772,1825,1861
1869,1841,1851
1857,1794,1857
1926,1776,1924
1936,1839,1909
1815,1861,1781
1822,1896,1878
1881,1853,1976
1841,1835,1873
1869,1829,1840
1808,1808,1810
1838,1767,1776
1873,1824,1818
1890,1883,1926
1837,1877,1961
1777,1721,1742
1844,1826,1815
1885,1821,1899
1846,1825,1855
1831,1902,1914
1820,1819,1931
1839,1798,1826
1829,1833,1901
1887,1830,1892
1913,1835,1790
1807,1847,1791
1834,1825,1826
1841,1814,1897
1853,1840,1936
1872,1758,1792
1984,1795,1795
1855,1969,1936
1847,1903,2011
1779,1779,1809
1758,1807,1786
1819,1800,1839
1844,1807,1905
1856,1754,1903
1829,1771,1831
1852,1834,1835
1954,1887,1922
1895,1808,1871
1825,1813,1851
1802,1842,1828
1936,1885,1802
1865,1895,1902
1788,1872,1924
1821,1934,1814
1839,1768,1771
1818,1715,1905
1869,1820,1943
1872,1751,1861
1850,1794,1829
1860,1846,1813
1826,1836,1837
1815,1904,1903
1850,1857,1879
1921,1839,1809
1923,1834,1904
1884,1949,1923
1776,1850,1858
1788,1818,1809
1853,1841,1837
1907,2007,1851
1853,1767,1795
1819,1755,1847
1850,1743,1877
1865,1791,1885
1847,1826,1827
1841,1882,1842
1878,1885,1917
1867,1883,1889
1827,1839,1821
1867,1847,1857
1856,1878,1919
1859,1907,1899
1854,1845,1854
1808,1901,1825
1853,1867,1866
1842,1806,1841
1863,1773,1853
1850,1872,1872
1850,1767,1797
1826,1822,1805
1829,1889,1886
1895,1851,1885
1901,1859,1872
1872,1891,1866
1908,1935,1867
1876,1813,1881
1807,1886,1903
1871,1840,1863
1842,1782,1821
1845,1811,1907
1846,1884,1933
1890,1958,1792
1924,1773,1769
1840,1775,1872
1797,1792,1953
1778,1831,1861
1854,1906,1807
1841,1891,1821
1873,1866,1845
1999,1955,1903
1926,1873,1911
1834,1738,1879
1833,1803,1896
1894,1846,1853
1887,1813,1809
1807,1918,1829
1803,1857,1840
1818,1825,1919
1901,1907,1936
1923,1824,1856
1791,1689,1817
1791,1786,1801
1850,1874,1847
1871,1789,1840
1831,1901,1878
1856,1911,1939
1847,1874,1863
1901,1923,1893
1978,1992,1933
1920,1785,1861
1838,1713,1731
1817,1807,1865
1887,1950,1966
1914,1872,1939
1839,1740,1805
1828,1796,1802
1872,1791,1840
1904,1807,1858
1842,1915,1923
1801,1840,1886
1840,1838,1894
1859,1840,1827
1885,1817,1827
1866,1881,1916
1887,1887,1902
1871,1874,1847
1873,1818,1804
1900,1889,1883
1936,1963,1923
1896,1958,1944
1871,1759,1854
1803,1726,1813
1860,1681,1841
1898,1822,1904
1884,1940,1857
1818,1874,1839
1839,1808,1870
1885,1799,1863
1989,1908,1920
1919,1889,1926
1838,1814,1947
1797,1807,1846
1824,1815,1792
1890,1927,1867
1964,1959,1872
1979,1931,1903
1886,1933,1962
1781,1783,1834
1822,1738,1763
1859,1766,1892
1857,1845,2003
1837,1855,1895
1834,1872,1792
1877,1782,1775
1999,1870,1861
1873,1862,1906
1795,1849,1916
1917,1939,1904
1885,1904,1947
1826,1852,1881
1851,1843,1799
1907,1778,1792
1922,1888,1856
1904,1794,1847
1856,1861,1872
1840,1861,1838
1834,1789,1887
1850,1856,1926
1953,1845,1996
1901,1906,1824
1766,1840,1773
1749,1792,1823
1863,1845,1897
1886,1833,1903
1906,1884,1921
1888,1875,1846
1898,1892,1807
1904,1838,1744
1857,1855,1890
1840,1762,1920
1845,1769,1792
1871,1883,1806
1930,1909,1885
1835,1930,1963
1850,1887,1877
1895,1911,1820
1840,1782,1813
1794,1802,1842
1818,1859,1889
1863,1869,1839
1871,1870,1822
1872,1856,1861
1856,1871,1860
1889,1867,1885
1917,1909,1883
1903,1805,1812
1870,1735,1878
1856,1795,1890
1932,1872,1882
1914,1862,1829
1793,1890,1875
1819,1943,1873
1911,1873,1834
1851,1783,1847
1783,1828,1879
1839,1876,1985
1818,1870,1914
1827,1810,1718
1840,1794,1791
1872,1917,1882
1901,1902,1925
1855,1811,1866
1857,1841,1866
1884,1825,1896
1886,1882,1886
1925,1911,1824
1936,1902,1808
1874,1854,1853
1856,1893,1905
1799,1817,1786
1855,1727,1776
1831,1836,1892
1811,1841,1888
1818,1878,1891
1872,1926,1761
1890,1904,1826
1897,1808,1885
1815,1865,1845
1817,1799,1857
1863,1853,1907
1855,1893,1904
1843,1904,1842
1854,1831,1847
1929,1889,1936
1886,1843,1883
1821,1831,1791
1825,1917,1820
1859,1808,1808
1847,1811,1801
1911,1886,1867
1891,1842,1850
1898,1788,1790
1819,1786,1813
1840,1895,1879
1872,1860,1850
1909,1895,1955
1965,1953,1998
1837,1883,1829
1865,1872,1766
1810,1743,1808
1775,1767,1863
1830,1806,1887
1837,1840,1869
1901,1936,1904
1951,1870,1871
1847,1777,1779
1818,1814,1802
1861,1853,1861
1881,1840,1869
1886,1885,1854
1866,1890,1837
1856,1869,1810
1883,1839,1893
1842,1814,1905
1904,1877,1882
1906,1890,1814
1820,1847,1863
1789,1872,1869
1821,1847,1859
1856,1839,1889
1865,1773,1857
1859,1722,1813
1806,1751,1823
1760,1819,1807
1808,1856,1872
1859,1869,1954
1882,1871,1904
1970,1908,1824
1907,1837,1801
1841,1863,1847
1826,1871,1845
1856,1882,1866
1920,1898,1886
1861,1906,1857
1825,1810,1882
1862,1806,1809
1866,1875,1840
1875,1901,1872
1794,1670,1810
1747,1679,1870
1824,1845,1931
1854,1869,1871
1802,1776,1793
1843,1882,1807
1850,1901,1851
1920,1840,1887
1840,1837,1831
1821,1836,1808
1815,1849,1845
1798,1850,1871
1920,1886,1938
1908,1926,1891
1794,1812,1731
1823,1885,1797
1856,1823,1840
1869,1679,1763
1807,1776,1823
1808,1874,1840
1792,1825,1964
1808,1791,1872
1829,1850,1811
1863,1885,1895
1883,1894,1927
1852,1777,1795
1831,1813,1693
1791,1822,1781
1797,1860,1925
1829,1872,1874
1882,1906,1776
1858,1813,1788
1895,1902,1883
1908,1743,1889
1739,1755,1765
1732,1812,1805
1994,1915,1947
1961,1841,2064
1667,1775,1727
1689,1770,1630
1782,1840,1762
1895,1854,1972
1859,1845,1862
1829,1858,1760
1891,1869,1840
1997,1923,1993
1871,1820,1835
1740,1856,1755
1773,1811,1808
1876,1827,1925
1882,1779,1810
1788,1855,1782
1785,1871,1968
1868,1840,1890
1946,1806,1744
1770,1846,1763
1759,1895,1771
1875,1887,1823
1872,1837,1938
1817,1820,1914
1766,1814,1737
1840,1783,1737
1914,1827,1835
1872,1933,1981
1936,1994,2005
1925,1819,1845
1703,1687,1664
1715,1749,1695
1811,1931,1833
1906,1905,1935
1833,1899,1877
1825,1841,1859
1819,1861,1840
1968,1879,1916
1941,1794,1912
1773,1856,1791
1751,1873,1737
1744,1746,1729
1829,1745,1781
1872,1957,1894
1849,1846,1919
1835,1855,1914
1907,1870,2015
1907,1825,1835
1827,1796,1651
1810,1791,1728
1855,1921,1866
1903,2001,1925
1818,1879,1904
1766,1806,1876
1808,1806,1786
1840,1874,1776
1843,1901,1824
1914,1762,1875
1856,1807,1888
1791,1857,1930
1797,1861,1872
1805,1857,1787
1831,1871,1803
1856,1909,1854
1875,1923,1870
1883,1861,2005
1893,1819,1933
1890,1847,1777
1857,1879,1762
1810,1815,1817
1813,1849,1870
1856,1793,1887
1867,1839,1892
1889,1893,1872
1863,1915,1889
1841,1891,1910
1862,1723,1830
1847,1862,1871
1847,1987,1903
1821,1845,1887
1814,1778,1898
1843,1814,1904
1877,1847,1901
1881,1858,1893
1892,1862,1898
1889,1858,1892
1892,1877,1898
1919,1906,1911
1927,1927,1922
1853,1877,1895
1870,1793,1887
1890,1783,1909
1906,1799,1899
1875,1872,1883
1845,1861,1889
1857,1799,1890
1903,1843,1952
1926,1872,1872
1872,1744,1910
1857,1799,1920
1866,1808,1918
1888,1854,1927
1903,1872,1919
1905,1832,1915
1898,1823,1915
1907,1838,1916
1926,1850,1917
1936,1901,1936
1954,1826,1904
1915,1697,1872
1881,1826,1904
1855,1856,1937
1882,1794,1903
1939,1782,1887
1914,1851,1908
1902,1805,1878
1901,1868,1902
1907,1904,1911
1919,1827,1900
1913,1781,1915
1886,1755,1897
1877,1884,1872
1901,1817,1855
1894,1744,1870
1902,1781,1889
1919,1808,1878
1935,1872,1879
1918,1838,1867
1929,1818,1861
1899,1782,1866
1920,1780,1852
1899,1783,1826
1900,1813,1845
1918,1788,1841
1881,1835,1882
1894,1841,1873
1895,1825,1858
1927,1841,1842
1923,1857,1822
1964,1763,1845
1890,1813,1855
1871,1824,1855
1888,1778,1796
1888,1809,1817
1876,1758,1827
1881,1792,1834
1906,1823,1834
1904,1831,1835
1914,1840,1835
1933,1872,1826
1929,1827,1821
1919,1783,1815
1898,1776,1809
1896,1822,1854
1904,1875,1851
1894,1822,1845
1906,1765,1815
1936,1791,1825
1909,1888,1840
