1840,1773,1805
1789,1773,1859
1795,1775,1842
1835,1839,1856
1840,1844,1856
1825,1838,1859
1840,1840,1846
1867,1872,1829
1849,1832,1840
1853,1803,1845
1850,1805,1822
1846,1872,1841
1840,1861,1857
1840,1841,1857
1851,1894,1843
1855,1853,1834
1845,1787,1840
1833,1782,1847
1857,1820,1844
1851,1858,1840
1872,1898,1805
1812,1779,1818
1786,1840,1856
1806,1826,1841
1831,1846,1850
1822,1792,1840
1845,1803,1837
1861,1831,1840
1861,1833,1842
1843,1840,1846
1853,1847,1840
1863,1869,1840
1872,1854,1823
1847,1819,1812
1825,1838,1853
1835,1812,1856
1857,1795,1854
1871,1801,1853
1837,1857,1840
1830,1872,1842
1810,1813,1856
1834,1851,1872
1849,1841,1847
1840,1815,1825
1850,1863,1818
1835,1824,1840
1848,1876,1846
1856,1859,1851
1843,1814,1844
1838,1777,1818
1851,1775,1805
1849,1841,1860
1856,1855,1876
1842,1850,1865
1856,1854,1843
1858,1859,1841
1855,1850,1841
1878,1794,1832
1855,1825,1829
1841,1871,1856
1819,1876,1857
1808,1861,1853
1810,1830,1854
1840,1813,1837
1839,1793,1867
1850,1801,1853
1856,1790,1817
1853,1881,1840
1845,1867,1845
1822,1792,1853
1840,1803,1843
1870,1843,1825
1892,1776,1815
1831,1850,1872
1810,1872,1872
1837,1840,1847
1867,1851,1827
1815,1814,1855
1818,1840,1854
1842,1838,1840
1824,1826,1846
1829,1840,1856
1853,1842,1845
1863,1846,1843
1859,1845,1852
1859,1877,1871
1862,1874,1840
1865,1847,1828
1857,1765,1776
1812,1789,1839
1838,1904,1886
1855,1840,1872
1811,1805,1873
1811,1801,1851
1839,1841,1840
1872,1884,1840
1871,1824,1840
1827,1745,1827
1822,1817,1854
1840,1856,1853
1840,1856,1855
1840,1856,1863
1863,1872,1847
1855,1842,1838
1850,1839,1840
1840,1840,1846
1853,1869,1841
1866,1851,1838
1847,1918,1843
1857,1889,1822
1788,1738,1833
1812,1751,1841
1850,1790,1829
1834,1764,1808
1831,1827,1857
1856,1919,1872
1825,1888,1866
1814,1825,1857
1824,1838,1847
1856,1851,1845
1845,1858,1847
1840,1874,1856
1840,1832,1847
1856,1837,1847
1863,1856,1856
1869,1859,1848
1887,1885,1842
1840,1903,1839
1799,1803,1835
1808,1796,1861
1876,1840,1834
1877,1767,1805
1785,1778,1847
1777,1820,1888
1825,1882,1879
1842,1843,1855
1838,1781,1840
1842,1808,1853
1844,1872,1862
1850,1876,1858
1852,1863,1856
1840,1863,1857
1849,1891,1851
1862,1858,1843
1825,1847,1857
1826,1842,1855
1866,1847,1845
1872,1846,1827
1799,1840,1813
1815,1785,1840
1812,1840,1847
1836,1822,1855
1840,1839,1849
1850,1796,1781
1824,1841,1876
1815,1843,1892
1819,1830,1865
1840,1841,1845
1870,1846,1840
1869,1857,1840
1841,1853,1855
1845,1854,1856
1835,1837,1850
1852,1852,1841
1846,1876,1852
1840,1829,1863
1870,1808,1810
1835,1840,1841
1787,1808,1858
1808,1821,1849
1844,1811,1840
1878,1754,1789
1886,1781,1822
1795,1867,1889
1792,1903,1873
1833,1808,1828
1848,1830,1864
1840,1871,1881
1839,1851,1835
1822,1824,1826
1840,1875,1839
1853,1862,1853
1856,1840,1855
1842,1806,1842
1856,1743,1823
1841,1808,1839
1851,1859,1818
1851,1887,1869
1831,1859,1872
1824,1831,1866
1829,1840,1854
1847,1867,1841
1851,1849,1845
1851,1855,1856
1853,1850,1847
1865,1853,1840
1889,1865,1838
1866,1829,1847
1809,1873,1849
1815,1831,1847
1834,1823,1847
1838,1833,1851
1858,1870,1839
1889,1891,1840
1843,1859,1862
1822,1809,1840
1839,1871,1831
1843,1755,1808
1819,1831,1874
1818,1834,1895
1783,1794,1847
1825,1844,1821
1856,1800,1822
1824,1822,1858
1808,1853,1856
1835,1875,1839
1858,1920,1834
1813,1794,1854
1838,1823,1843
1861,1791,1827
1859,1793,1821
1859,1792,1835
1805,1813,1856
1813,1829,1854
1862,1808,1840
1836,1851,1853
1809,1877,1850
1843,1890,1840
1888,1936,1853
1855,1786,1779
1790,1794,1870
1798,1818,1873
1825,1824,1859
1847,1799,1849
1866,1844,1842
1872,1905,1843
1847,1840,1865
1811,1761,1840
1824,1785,1837
1846,1838,1840
1865,1854,1846
1856,1855,1853
1865,1866,1850
1901,1873,1841
1890,1887,1831
1813,1855,1839
1794,1806,1853
1827,1821,1855
1846,1860,1849
1883,1893,1805
1853,1793,1850
1826,1788,1890
1792,1801,1859
1805,1810,1852
1840,1840,1856
1854,1826,1831
1860,1859,1851
1835,1939,1861
1827,1853,1825
1827,1853,1843
1819,1840,1852
1819,1815,1867
1858,1814,1837
1872,1822,1840
1826,1807,1845
1829,1826,1849
1838,1851,1854
1843,1875,1849
1847,1872,1850
1853,1870,1846
1867,1867,1845
1872,1871,1840
1872,1871,1851
1863,1840,1846
1873,1872,1843
1881,1842,1846
1845,1859,1840
1847,1853,1840
1843,1886,1867
1885,1925,1831
1856,1795,1813
1806,1803,1861
1831,1819,1856
1871,1841,1843
1866,1812,1839
1853,1805,1851
1843,1843,1846
1857,1857,1840
1869,1863,1840
1866,1844,1845
1885,1882,1849
1904,1841,1823
1870,1791,1799
1849,1829,1871
1794,1865,1871
1826,1881,1861
1863,1867,1851
1865,1919,1856
1846,1886,1845
1853,1872,1835
1854,1776,1823
1840,1759,1853
1856,1807,1853
1873,1840,1844
1856,1844,1847
1857,1847,1853
1865,1851,1842
1877,1858,1840
1856,1857,1866
1881,1810,1803
1839,1833,1839
1804,1853,1872
1850,1854,1866
1842,1808,1853
1840,1838,1851
1838,1886,1865
1850,1863,1856
1837,1861,1851
1840,1837,1862
1856,1860,1858
1856,1835,1853
1841,1840,1858
1871,1899,1849
1853,1843,1865
1840,1808,1851
1839,1724,1786
1821,1808,1856
1805,1869,1881
1808,1856,1882
1827,1862,1859
1835,1817,1827
1851,1851,1866
1851,1871,1881
1831,1863,1856
1835,1845,1847
1845,1847,1843
1843,1864,1853
1839,1871,1860
1855,1847,1856
1904,1861,1860
1803,1824,1855
1771,1830,1863
1805,1827,1851
1834,1831,1831
1868,1872,1791
1856,1855,1872
1806,1775,1870
1788,1819,1873
1797,1838,1861
1814,1840,1871
1839,1851,1872
1857,1883,1850
1856,1840,1856
1818,1834,1871
1826,1872,1857
1808,1856,1849
1806,1814,1851
1817,1826,1859
1846,1857,1851
1856,1902,1839
1814,1812,1846
1808,1812,1856
1838,1831,1858
1857,1826,1810
1854,1840,1843
1823,1819,1856
1843,1904,1890
1856,1984,1906
1791,1839,1860
1787,1801,1841
1826,1823,1826
1825,1861,1854
1841,1813,1850
1808,1792,1850
1808,1845,1833
1840,1827,1810
1791,1775,1844
1767,1831,1889
1802,1853,1879
1819,1860,1857
1814,1851,1846
1815,1851,1856
1838,1853,1856
1835,1862,1846
1822,1857,1857
1814,1857,1863
1855,1899,1857
1827,1856,1853
1783,1806,1829
1785,1823,1837
1812,1841,1856
1859,1885,1855
1838,1825,1825
1803,1761,1802
1808,1776,1819
1789,1823,1867
1776,1872,1901
1798,1856,1882
1825,1840,1861
1854,1904,1872
1826,1860,1849
1781,1821,1852
1805,1831,1860
1815,1873,1863
1810,1838,1845
1809,1857,1845
1808,1858,1854
1838,1906,1840
1815,1786,1818
1817,1715,1806
1795,1748,1852
1799,1875,1885
1806,1817,1856
1810,1827,1855
1808,1858,1860
1824,1865,1849
1819,1855,1845
1813,1852,1853
1840,1863,1853
1877,1927,1842
1823,1776,1857
1764,1781,1861
1786,1861,1845
1815,1837,1842
1840,1841,1855
1821,1811,1830
1845,1757,1789
1808,1802,1878
1795,1825,1887
1828,1839,1883
1822,1803,1834
1811,1872,1851
1815,1870,1859
1812,1827,1851
1810,1863,1861
1831,1851,1851
1818,1840,1852
1810,1835,1843
1858,1883,1833
1873,1779,1827
1825,1841,1814
1795,1774,1847
1789,1779,1887
1808,1821,1882
1825,1836,1869
1825,1838,1859
1844,1841,1851
1862,1857,1845
1868,1846,1872
1832,1851,1867
1826,1876,1839
1833,1835,1823
1838,1832,1839
1843,1837,1866
1843,1845,1872
1835,1829,1833
1821,1846,1842
1827,1862,1850
1861,1863,1809
1831,1800,1856
1823,1776,1870
1823,1819,1863
1846,1870,1843
1881,1798,1857
1845,1850,1856
1815,1870,1856
1825,1824,1847
1855,1840,1846
1865,1861,1840
1839,1806,1854
1822,1796,1855
1829,1829,1853
1844,1838,1845
1845,1840,1854
1872,1854,1821
1874,1766,1797
1808,1818,1870
1807,1849,1887
1835,1853,1858
1863,1862,1846
1867,1889,1855
1855,1804,1841
1841,1815,1846
1840,1826,1850
1853,1828,1849
1855,1829,1861
1856,1838,1850
1871,1867,1843
1850,1885,1840
1808,1801,1846
1842,1806,1850
1863,1830,1843
1873,1794,1840
1838,1774,1806
1802,1831,1845
1835,1887,1878
1875,1870,1849
1819,1813,1856
1811,1787,1858
1846,1840,1862
1851,1821,1841
1839,1776,1831
1840,1819,1843
1855,1851,1854
1851,1845,1851
1847,1838,1857
1854,1847,1844
1872,1872,1840
1857,1840,1840
1859,1826,1847
1866,1874,1872
1887,1779,1806
1856,1839,1844
1829,1893,1875
1808,1825,1869
1807,1803,1846
1843,1875,1854
1823,1837,1838
1810,1803,1840
1819,1775,1840
1825,1782,1831
1840,1803,1831
1851,1831,1836
1862,1841,1840
1853,1841,1840
1842,1840,1846
1863,1846,1846
1867,1856,1840
1858,1841,1840
1867,1814,1799
1872,1862,1840
1861,1886,1872
1841,1765,1854
1803,1771,1867
1802,1888,1859
1818,1865,1837
1837,1865,1855
1838,1837,1858
1820,1797,1835
1853,1779,1834
1840,1811,1829
1813,1826,1838
1837,1835,1843
1856,1841,1837
1850,1840,1837
1846,1840,1841
1863,1856,1841
1885,1890,1850
1878,1859,1797
1834,1785,1826
1850,1838,1846
1920,1881,1815
1807,1857,1857
1776,1820,1871
1814,1805,1848
1847,1786,1833
1821,1803,1838
1822,1821,1840
1840,1837,1837
1866,1851,1840
1860,1840,1841
1858,1849,1846
1859,1858,1847
1871,1854,1841
1867,1856,1841
1860,1882,1842
1862,1851,1827
1901,1808,1787
1867,1827,1871
1810,1873,1894
1840,1846,1840
1900,1845,1850
1831,1805,1860
1760,1779,1840
1805,1846,1818
1844,1851,1837
1843,1807,1853
1856,1807,1849
1873,1809,1839
1857,1842,1840
1848,1867,1840
1855,1837,1840
1868,1840,1838
1888,1865,1835
1884,1837,1807
1850,1808,1797
1840,1867,1875
1838,1831,1846
1840,1808,1840
1821,1853,1857
1899,1802,1842
1826,1833,1840
1813,1893,1826
1814,1771,1770
1811,1786,1824
1860,1860,1872
1846,1835,1863
1824,1827,1844
1841,1846,1840
1865,1853,1842
1867,1860,1840
1860,1877,1843
1859,1842,1833
1862,1847,1826
1867,1875,1832
1869,1880,1835
1879,1817,1821
1870,1804,1856
1823,1827,1852
1823,1810,1835
1833,1818,1825
1878,1840,1826
1871,1819,1787
1810,1799,1821
1808,1870,1885
1857,1883,1871
1862,1871,1857
1859,1835,1860
1861,1828,1835
1869,1840,1834
1862,1856,1837
1855,1853,1846
1862,1853,1830
1861,1819,1822
1841,1808,1840
1840,1816,1856
1857,1920,1855
1872,1821,1827
1852,1702,1814
1828,1709,1792
1810,1811,1859
1817,1895,1879
1839,1857,1857
1813,1825,1843
1855,1837,1834
1881,1847,1835
1838,1851,1840
1828,1847,1843
1856,1883,1843
1869,1849,1840
1856,1854,1842
1851,1830,1822
1853,1808,1840
1870,1825,1855
1847,1855,1822
1847,1793,1809
1838,1834,1869
1856,1830,1864
1840,1809,1843
1853,1808,1843
1867,1799,1844
1831,1838,1839
1827,1819,1841
1840,1823,1842
1871,1855,1840
1861,1855,1836
1860,1838,1830
1850,1789,1825
1862,1882,1835
1869,1857,1854
1845,1795,1817
1856,1813,1814
1859,1809,1856
1838,1838,1876
1839,1863,1872
1859,1825,1846
1904,1845,1846
1874,1837,1840
1845,1874,1870
1855,1826,1849
1870,1809,1837
1873,1834,1833
1870,1866,1823
1855,1814,1840
1845,1820,1854
1868,1866,1845
1895,1856,1840
1861,1809,1831
1872,1825,1790
1854,1829,1858
1856,1775,1859
1861,1831,1860
1863,1877,1866
1856,1869,1855
1851,1830,1831
1856,1829,1835
1888,1887,1849
1889,1858,1843
1886,1808,1831
1888,1827,1845
1904,1862,1837
1873,1859,1825
1865,1840,1827
1878,1778,1814
1890,1855,1854
1872,1878,1861
1874,1907,1869
1897,1795,1838
1891,1791,1853
1870,1854,1855
1863,1859,1839
1878,1859,1841
1903,1872,1865
1923,1889,1856
1891,1851,1830
1875,1835,1830
1895,1866,1835
1917,1794,1776
1907,1856,1841
1887,1840,1854
1893,1874,1877
1904,1840,1854
1840,1830,1839
1839,1840,1855
1862,1827,1855
1908,1853,1843
1902,1856,1840
1913,1858,1845
1920,1866,1843
1910,1871,1847
1921,1862,1843
1922,1888,1855
1919,1911,1859
1921,1834,1839
1934,1861,1847
1925,1830,1826
1899,1780,1837
1904,1825,1840
1918,1871,1842
1917,1840,1840
1951,1856,1799
1923,1843,1842
1921,1816,1844
1886,1867,1885
1903,1879,1878
1920,1870,1860
1919,1872,1846
1923,1880,1846
1968,1904,1853
1938,1847,1869
1896,1857,1853
1899,1881,1840
1929,1914,1830
1957,1909,1818
1968,1833,1803
1911,1779,1849
1878,1936,1871
1913,1840,1871
1909,1792,1853
1897,1853,1859
1923,1885,1855
1931,1887,1853
1936,1885,1853
1933,1887,1852
1952,1893,1853
1975,1899,1855
1936,1898,1855
1929,1894,1856
1923,1872,1854
1946,1891,1861
1959,1887,1855
1958,1882,1844
1998,1878,1799
1937,1867,1805
1930,1905,1856
1906,1799,1890
1925,1838,1873
1936,1877,1867
1931,1869,1847
1934,1869,1849
1946,1867,1843
1966,1886,1850
1953,1897,1853
1951,1889,1851
1955,1895,1857
1965,1921,1847
1975,1904,1840
1962,1892,1843
1968,1874,1851
1966,1919,1849
1969,1905,1840
1930,1790,1840
1934,1838,1856
1968,1896,1866
1983,1945,1856
1967,1809,1812
1935,1791,1853
1930,1843,1863
1927,1903,1872
1943,1904,1870
1973,1907,1856
1989,1902,1851
1985,1872,1846
1966,1877,1860
1991,1911,1857
1973,1887,1850
1957,1879,1855
1954,1915,1863
1975,1873,1839
1989,1874,1840
1958,1870,1872
1975,1904,1882
1983,1904,1859
1973,1885,1847
1968,1875,1851
1975,1867,1812
1990,1852,1850
1995,1907,1893
1963,1903,1872
1937,1834,1839
1935,1878,1857
1956,1925,1868
1968,1904,1866
1975,1904,1859
1975,1930,1866
1985,1919,1859
1977,1898,1850
1983,1899,1856
1968,1872,1853
1969,1864,1849
1981,1908,1838
1965,1858,1831
1968,1886,1868
1974,1910,1871
1971,1937,1873
1968,1855,1859
1990,1873,1853
1941,1873,1851
1939,1870,1839
1958,1903,1856
1969,1910,1867
1989,1921,1864
1968,1905,1859
1970,1906,1855
1971,1898,1857
1965,1890,1855
1968,1904,1833
1977,1884,1856
1970,1907,1883
1985,1927,1889
1979,1872,1830
1935,1854,1853
1923,1901,1859
2000,1933,1845
1962,1827,1859
1919,1843,1873
1941,1890,1865
1941,1875,1855
1955,1881,1855
1969,1877,1843
1959,1886,1872
1968,1894,1859
1982,1870,1837
1955,1914,1871
1967,1936,1879
1972,1931,1867
1984,1905,1867
1968,1936,1863
1984,1922,1863
2001,1950,1874
1977,1856,1863
1959,1817,1840
1970,1925,1889
1948,1892,1879
1892,1810,1861
1904,1830,1866
1957,1871,1872
1977,1884,1851
1979,1841,1799
1943,1866,1853
1953,1930,1907
1968,1936,1898
1957,1913,1863
1956,1905,1855
2003,1939,1862
1999,1984,1855
2009,1798,1820
2004,1900,1913
1858,1819,1875
1847,1795,1856
1933,1839,1841
1936,1846,1850
1950,1898,1881
1918,1909,1811
1881,1901,1875
1887,1795,1902
1936,1904,1873
1991,1899,1865
1904,1858,1845
1865,1868,1849
1892,1872,1854
1957,1894,1866
1953,1940,1871
1923,1945,1845
1933,1920,1866
1939,1873,1842
2001,1858,1786
1970,1968,1808
1873,2087,1857
1867,1920,1861
1865,1921,1837
1916,1728,1807
1902,1716,1839
1873,1771,1799
1871,1876,1855
1869,1936,1867
1856,1840,1851
1870,1849,1856
1879,1842,1828
1956,1918,1872
1986,1969,1869
1929,1967,1820
1843,1925,1851
1826,1914,1871
1883,1919,1877
1893,2000,1814
1879,1918,1793
1913,1871,1804
1905,1791,1781
1809,1805,1851
1796,1874,1872
1831,1968,1921
1862,1939,1866
1878,1936,1840
1926,1949,1820
1871,1910,1823
1919,1897,1889
1930,1904,1933
1845,1905,1866
1809,2000,1770
1801,1842,1790
1840,1904,1916
1951,1872,1861
1893,1931,1854
1865,1911,1856
1870,1919,1833
1777,1778,1745
1725,1826,1790
1855,1903,1872
1840,1906,1842
1803,1887,1801
1823,1919,1865
1815,1974,1824
1879,1904,1802
1894,1987,1843
1799,1985,1867
1878,1933,1906
1914,1899,1936
1806,1938,1866
1760,1873,1822
1797,1873,1790
1791,1869,1823
1817,1899,1857
1788,1968,1898
1811,1891,1793
1815,1881,1835
1850,1881,1842
1835,1935,1805
1788,1925,1799
1771,1906,1838
1765,1899,1821
1820,1923,1855
1892,1949,1895
1826,1915,1811
1856,1930,1823
1861,1921,1869
2003,2082,1906
1770,1759,1792
1679,1881,1749
1712,1835,1866
1697,1787,1887
1723,1788,1830
1753,1840,1822
1808,1917,1871
1856,1921,1854
1813,1887,1821
1791,1885,1825
1904,1968,1905
1933,1891,1850
1745,1903,1746
1689,1905,1794
1802,1927,1919
1899,1936,1931
1802,1863,1808
1859,1962,1744
1749,1815,1808
1721,1840,1873
1707,1865,1903
1738,1836,1841
1806,1835,1863
1899,1811,1791
1754,1917,1854
1734,1920,1871
1847,1872,1863
1840,1835,1776
1767,1931,1846
1802,1946,1874
1861,1985,1861
1823,1869,1821
1822,1767,1737
1713,1865,1803
1805,1893,1925
1767,1822,1825
1702,1759,1803
1776,1824,1914
1856,1899,1921
1797,1811,1824
1737,1835,1769
1759,1776,1755
1799,1909,1904
1789,1895,1866
1766,1902,1815
1811,1916,1941
1839,1829,1904
1831,1746,1689
1801,1870,1772
1813,1967,1852
1776,1825,1807
1757,1841,1835
1814,1819,1814
1843,1744,1878
1763,1792,1939
1731,1827,1884
1772,1837,1795
1817,1819,1771
1869,1855,1847
1761,1853,1872
1755,1829,1762
1862,1887,1818
1913,1914,1884
1843,1904,1887
1843,1826,1818
1813,1873,1808
1795,1761,1859
1811,1789,1833
1746,1850,1789
1718,1807,1857
1760,1744,1855
1849,1829,1879
1825,1847,1851
1799,1821,1841
1808,1808,1835
1888,1905,1872
1843,1897,1802
1797,1853,1799
1853,1865,1851
1939,1815,1826
1883,1919,1885
1895,1891,1872
1743,1759,1853
1683,1834,1847
1733,1731,1791
1769,1774,1820
1755,1818,1871
1791,1861,1869
1831,1893,1892
1878,1898,1918
1889,1779,1808
1849,1788,1787
1846,1815,1891
1862,1904,1918
1818,1795,1776
1889,1875,1840
1851,1822,1843
1835,1805,1853
1808,1861,1827
1771,1729,1824
1830,1744,1818
1819,1903,1893
1777,1886,1899
1828,1831,1847
1895,1801,1871
1874,1787,1842
1879,1751,1857
1808,1749,1779
1801,1856,1813
1852,1962,1981
1889,1882,1935
1806,1801,1776
1814,1771,1745
1826,1803,1858
1872,1834,1963
1865,1925,1783
1871,1776,1664
1822,1814,1858
1919,1862,1963
1823,1819,1899
1806,1846,1859
1798,1760,1819
1889,1801,1817
1826,1826,1824
1779,1785,1886
1841,1794,1893
1886,1822,1871
1856,1813,1856
1887,1842,1870
1856,1839,1875
1835,1811,1819
1844,1851,1808
1898,1854,1831
1856,1792,1893
1904,1951,1947
1891,1887,1856
1811,1694,1776
1743,1787,1843
1834,1776,1903
1927,1835,1873
1904,1773,1861
1776,1727,1810
1751,1697,1744
1777,1847,1827
1895,1905,1984
1878,1873,1929
1871,1841,1799
1884,1867,1841
1915,1888,1902
1903,1796,1831
1894,1869,1838
1920,1904,1854
1832,1758,1881
1722,1751,1814
1727,1712,1805
1885,1794,1786
1953,1861,1796
1845,1878,1936
1866,1838,1973
1821,1817,1902
1812,1765,1809
1872,1729,1769
1909,1834,1793
1894,1942,1889
1810,1872,1862
1851,1846,1904
1907,1840,1909
1822,1776,1814
1904,1855,1838
1926,1737,1820
1785,1774,1877
1867,1833,1881
1862,1856,1822
1767,1803,1817
1857,1762,1865
1883,1814,1857
1774,1823,1840
1825,1851,1841
1904,1873,1879
1994,1903,1917
1926,1865,1875
1808,1840,1817
1776,1840,1878
1852,1857,1925
1947,1840,1857
1922,1926,1808
1920,1896,1853
1921,1770,1854
1808,1888,1903
1854,1860,1914
1883,1713,1859
1817,1742,1890
1797,1808,1883
1815,1809,1857
1920,1847,1873
1981,1859,1898
1831,1820,1837
1817,1814,1813
1840,1890,1911
1860,1856,1899
1891,1841,1902
1917,1799,1840
1939,1853,1831
1905,1979,1803
1881,1903,1811
1872,1803,1910
1790,1682,1872
1722,1712,1908
1777,1753,1908
1904,1767,1856
1886,1758,1819
1840,1784,1869
1938,1830,1902
1878,1877,1878
1809,1858,1878
1893,1919,1950
1952,1841,1823
1779,1757,1729
1836,1851,1853
1983,1808,1889
1901,1877,1832
1815,1889,1847
1873,1981,1906
2015,1941,1984
1833,1707,1907
1709,1662,1762
1808,1682,1813
1813,1747,1934
1869,1855,2036
1877,1846,1951
1877,1834,1775
1866,1799,1831
1890,1783,1859
1904,1791,1808
1887,1876,1883
1904,1871,1851
1889,1916,1880
1907,1921,1918
1924,1948,2011
1855,1855,1877
1833,1870,1758
1895,1729,1830
1875,1712,1915
1860,1819,1927
1872,1774,1804
1796,1743,1783
1793,1792,1936
1905,1893,2047
1872,1885,1934
1821,1817,1866
1834,1778,1822
1839,1840,1827
1889,1879,1904
1935,1865,1997
1831,1819,1926
1841,1809,1814
1877,1856,1805
1936,1883,1856
2000,2002,1929
1936,1819,1900
1830,1673,1840
1867,1765,1865
1874,1783,1857
1857,1829,1938
1884,1955,1969
1834,1803,1929
1749,1721,1791
1845,1835,1827
1887,1902,1936
1867,1826,1919
1853,1808,1855
1901,1821,1908
1967,1862,2000
1915,1861,1889
1878,1876,1805
1898,1876,1810
1894,1705,1785
1787,1759,1910
1765,1854,1938
1814,1782,1946
1925,1882,1973
1953,1918,1829
1833,1747,1781
1866,1762,1904
1875,1835,1899
1843,1879,1881
1803,1855,1946
1936,1866,2005
1867,1782,1751
1790,1785,1732
1793,1840,1888
1935,1886,1950
1951,1891,1881
1832,1776,1839
1895,1821,1968
1871,1911,2010
1785,1818,1808
1776,1808,1779
1807,1811,1843
1879,1818,1920
2019,1853,1923
2019,1918,1879
1808,1854,1879
1806,1794,1843
1792,1808,1857
1858,1808,1855
1853,1829,1889
1941,1902,1907
1901,1941,1921
1867,1935,1926
1883,1889,1911
1934,1854,1846
1842,1713,1814
1758,1744,1856
1883,1906,1943
1887,1915,1923
1790,1811,1872
1902,1891,1916
1891,1808,1882
1889,1849,1810
1838,1824,1842
1810,1829,1863
1862,1838,1869
1914,2010,1955
1854,1873,1903
1840,1841,1806
1883,1834,1798
1871,1872,1881
1931,1839,1974
1846,1844,1963
1846,1840,1861
1835,1754,1812
1807,1824,1810
1777,1856,1803
1840,1823,1839
1862,1870,1897
1889,1871,1969
1855,1824,1902
1860,1808,1872
1987,1837,1791
1908,1855,1757
1741,1899,1868
1797,1957,1915
1904,1952,1928
1862,1770,1894
1851,1770,1898
1818,1850,1899
1817,1911,1839
1825,1853,1825
1835,1808,1889
1819,1830,1891
1874,1856,1899
1901,1837,1883
1879,1904,1892
1859,1863,1766
1833,1831,1810
1951,1906,1865
1910,1870,1840
1855,1868,1879
1819,1893,1919
1816,2010,1903
1869,1801,1875
1904,1819,1904
1801,1744,1808
1833,1707,1770
1822,1825,1871
1776,1863,1886
1847,1904,1867
1917,1916,1872
1916,1904,1893
1902,1869,1899
1778,1780,1797
1797,1836,1820
1822,1866,1897
1825,1843,1853
1915,1935,1917
1931,1987,1919
1808,1769,1807
1793,1773,1788
1900,1921,1913
1948,1778,1868
1882,1834,1819
1802,1919,1780
1829,1827,1861
1809,1744,1866
1893,1931,1917
1841,1865,1849
1810,1853,1856
1853,1830,1818
1855,1839,1798
1799,1872,1827
1869,1987,1915
1923,1882,1891
1894,1845,1872
1889,1907,1888
1885,1996,1855
1831,1887,1933
1792,1661,1874
1763,1725,1763
1819,1909,1791
1872,1858,1869
1938,1871,1893
1856,1841,1856
1987,1821,1818
1872,1871,1911
1698,1865,1862
1801,1936,1803
1814,1872,1824
1861,1872,1852
1840,1849,1863
1886,1827,1823
1846,1818,1866
1830,1929,1915
1862,1904,1891
1927,1847,1859
1841,1904,1803
1839,1872,1852
1825,1822,1855
1812,1840,1872
1830,1851,1833
1899,1836,1840
1845,1840,1933
1877,1927,1890
1894,1850,1776
1856,1884,1823
1730,1853,1856
1776,1779,1855
1839,1921,1894
1934,1929,1879
1883,1869,1803
1795,1769,1819
1871,1945,1990
1851,1842,1862
1808,1843,1695
1839,1859,1817
1803,1824,1902
1808,1734,1833
1802,1807,1808
1885,1950,1969
1874,1868,1879
1819,1815,1794
1781,1859,1788
1807,1889,1856
1811,1873,1856
1817,1892,1867
1920,1873,1817
1902,1831,1748
1840,1824,1823
1851,1907,1911
1796,1856,1936
1803,1795,1854
1741,1877,1801
1751,1795,1866
1744,1815,1872
1779,1823,1841
1866,1807,1827
1847,1818,1783
1878,1851,1773
1875,1875,1858
1799,1911,1917
1838,1903,1842
1805,1856,1827
1790,1883,1845
1831,1897,1855
1893,1908,1889
1883,1845,1776
1828,1858,1807
1859,1819,1851
1799,1859,1921
1794,1841,1931
1801,1856,1887
1823,1906,1840
1885,1934,1902
1904,1888,1856
1792,1776,1802
1779,1811,1815
1777,1826,1847
1725,1822,1814
1839,1854,1885
1820,1866,1877
1761,1804,1757
1789,1856,1852
1869,1906,1903
1913,1914,1846
1869,1895,1872
1796,1809,1808
1779,1713,1738
1776,1840,1825
1763,1894,1909
1847,1929,1905
1808,1920,1858
1719,1732,1742
1733,1733,1773
1834,1856,1926
1957,1930,1884
1808,1802,1856
1761,1826,1877
1773,1831,1859
1776,1837,1847
1840,1837,1822
1822,1897,1889
1762,1905,1807
1787,1910,1799
1792,1833,1835
1935,1895,1885
1770,1755,1840
1718,1791,1809
1807,1779,1840
1838,1939,1942
1759,1825,1790
1747,1855,1796
1805,1872,1872
1872,1780,1920
1790,1840,1907
1709,1875,1899
1767,1872,1811
1769,1823,1859
1770,1843,1883
1794,1857,1798
1914,1857,1856
1883,1889,1855
1813,1829,1763
1771,1753,1811
1894,1873,1877
1856,1895,1913
1651,1891,1906
1713,1883,1886
1718,1804,1857
1786,1870,1837
1808,1875,1833
1799,1788,1875
1822,1815,1904
1772,1759,1815
1773,1820,1808
1879,1946,1872
1889,1901,1969
1763,1777,1921
1654,1750,1650
1718,1866,1754
1808,1920,1899
1867,1905,1949
1850,1857,1843
1810,1842,1781
1807,1975,1941
1885,1936,1995
1856,1817,1759
1701,1739,1774
1650,1751,1805
1744,1777,1893
1776,1835,1933
1835,1825,1849
1823,1808,1808
1727,1804,1850
1803,1858,1928
1827,1933,1902
1795,1849,1774
1751,1836,1787
1790,1883,1936
1883,1861,1920
1840,1819,1821
1809,1961,1788
1842,1917,1836
1776,1863,1968
1759,1827,1936
1802,1822,1868
1785,1729,1727
1760,1722,1807
1715,1846,1861
1782,1905,1877
1808,1861,1901
1776,1767,1849
1794,1850,1840
1805,1860,1867
1797,1850,1911
1778,1819,1839
1951,1858,1817
1968,1917,1908
1663,1861,1865
1648,1869,1899
1819,1832,1873
1937,1859,1808
1793,1831,1835
1699,1900,1858
1757,1793,1849
1827,1871,1887
1818,1811,1851
1790,1826,1877
1752,1805,1874
1869,1797,1872
1837,1936,1877
1815,1862,1834
1815,1808,1841
1783,1831,1904
1744,1865,1933
1750,1856,1919
1834,1855,1936
1877,1872,1840
1821,1840,1787
1802,1840,1827
1865,1920,1889
1872,1857,1891
1859,1865,1863
1820,1823,1830
1826,1885,1873
1776,1891,1838
1779,1781,1823
1799,1801,1899
1849,1882,1910
1857,1851,1859
1820,1891,1895
1819,1841,1940
1803,1810,1869
1835,1799,1719
1849,1860,1840
1751,1877,2021
1733,1718,1866
1751,1778,1680
1799,1805,1742
1835,1841,1897
1803,1865,1921
1839,1869,1885
1898,1865,1901
1927,1882,1877
1847,1841,1798
1803,1806,1818
1869,1937,1989
1869,1889,1904
1713,1741,1716
1732,1827,1824
1778,1890,1931
1847,1862,1955
1916,1911,1978
1846,1885,1849
1835,1880,1885
