1799,1811,1867
1838,1840,1840
1851,1840,1835
1850,1839,1856
1840,1863,1842
1872,1872,1804
1842,1801,1823
1838,1838,1845
1837,1894,1840
1857,1886,1843
1855,1906,1851
1811,1758,1840
1804,1764,1840
1836,1861,1842
1855,1776,1811
1815,1778,1841
1813,1840,1859
1847,1868,1867
1858,1808,1808
1825,1841,1837
1837,1877,1858
1842,1841,1841
1857,1809,1846
1826,1855,1855
1831,1866,1845
1859,1877,1857
1878,1887,1814
1847,1917,1823
1817,1810,1847
1850,1758,1857
1855,1779,1842
1837,1797,1840
1840,1843,1831
1874,1831,1826
1885,1776,1794
1850,1799,1831
1840,1811,1892
1828,1829,1875
1839,1855,1861
1866,1853,1851
1891,1872,1808
1859,1776,1855
1830,1802,1877
1833,1840,1881
1887,1938,1841
1872,1762,1809
1847,1732,1856
1826,1797,1875
1844,1855,1872
1872,1852,1858
1872,1810,1851
1846,1814,1851
1840,1884,1840
1870,1817,1827
1865,1794,1826
1853,1840,1870
1846,1835,1858
1849,1811,1840
1879,1878,1839
1840,1830,1861
1829,1793,1847
1825,1834,1844
1836,1904,1859
1859,1765,1791
1835,1811,1855
1841,1773,1856
1827,1792,1856
1834,1795,1869
1860,1850,1874
1852,1831,1840
1840,1855,1848
1811,1833,1870
1842,1897,1862
1847,1824,1845
1830,1789,1859
1841,1861,1874
1868,1845,1894
1843,1830,1868
1833,1805,1835
1838,1789,1797
1856,1873,1853
1831,1931,1884
1841,1808,1843
1840,1764,1835
1829,1849,1869
1840,1818,1869
1838,1878,1871
1843,1917,1856
1854,1872,1837
1842,1841,1865
1846,1827,1872
1842,1854,1877
1840,1885,1869
1860,1883,1844
1840,1807,1848
1852,1809,1862
1853,1815,1867
1857,1869,1872
1879,1839,1810
1853,1824,1838
1808,1840,1889
1819,1843,1870
1835,1868,1859
1847,1843,1863
1851,1767,1837
1845,1818,1862
1845,1872,1879
1837,1931,1856
1839,1902,1867
1865,2007,1854
1855,1775,1821
1841,1794,1859
1827,1761,1853
1838,1769,1834
1822,1879,1892
1811,1845,1872
1835,1845,1861
1855,1889,1856
1830,1819,1847
1842,1808,1857
1853,1926,1866
1858,1811,1833
1847,1802,1855
1832,1861,1893
1854,1844,1883
1858,1879,1871
1862,1899,1858
1869,1911,1883
1839,1888,1849
1845,1819,1830
1859,1849,1851
1865,1824,1856
1869,1904,1851
1893,1792,1763
1894,1748,1823
1837,1825,1895
1808,1840,1901
1842,1833,1834
1859,1845,1831
1855,1840,1853
1872,1758,1863
1886,1744,1840
1856,1814,1827
1841,1900,1856
1829,1838,1856
1840,1845,1864
1840,1819,1869
1828,1809,1840
1851,1835,1839
1866,1817,1799
1861,1866,1855
1840,1838,1872
1851,1839,1867
1866,1853,1863
1880,1898,1867
1846,1840,1851
1824,1770,1840
1840,1856,1866
1843,1870,1893
1856,1827,1889
1895,1771,1822
1879,1850,1861
1806,1874,1892
1803,1806,1891
1823,1808,1893
1885,1814,1865
1901,1856,1845
1873,1840,1856
1863,1809,1850
1865,1808,1831
1872,1887,1883
1873,1933,1900
1808,1741,1833
1819,1752,1856
1831,1862,1887
1815,1765,1831
1799,1782,1822
1826,1786,1857
1843,1776,1872
1829,1840,1883
1845,1867,1855
1857,1839,1843
1863,1840,1854
1856,1755,1796
1843,1843,1853
1877,1898,1895
1847,1943,1872
1831,1787,1820
1808,1739,1851
1829,1819,1868
1818,1839,1841
1829,1824,1842
1840,1778,1848
1839,1745,1815
1847,1815,1827
1823,1857,1858
1836,1847,1827
1828,1851,1847
1853,1866,1850
1847,1808,1829
1834,1840,1827
1831,1910,1870
1821,1842,1859
1805,1803,1798
1827,1923,1823
1804,1810,1855
1811,1794,1851
1818,1787,1856
1819,1794,1852
1833,1825,1831
1821,1845,1847
1819,1857,1856
1851,1824,1857
1865,1867,1846
1855,1895,1846
1855,1811,1811
1808,1845,1869
1835,1867,1877
1824,1874,1903
1840,1841,1870
1841,1863,1856
1851,1904,1833
1840,1838,1840
1854,1845,1840
1854,1762,1831
1840,1826,1877
1857,1856,1866
1856,1795,1850
1840,1825,1859
1831,1823,1859
1838,1840,1858
1840,1845,1825
1831,1920,1870
1809,1856,1872
1821,1807,1853
1808,1830,1853
1808,1853,1840
1831,1872,1858
1861,1857,1839
1812,1806,1838
1808,1879,1834
1824,1859,1843
1820,1842,1843
1809,1823,1845
1831,1781,1824
1819,1877,1830
1805,1808,1807
1787,1854,1855
1791,1809,1837
1825,1806,1802
1817,1910,1863
1792,1875,1874
1794,1867,1855
1815,1900,1855
1834,1887,1861
1814,1840,1818
1807,1857,1815
1831,1951,1815
1808,1813,1826
1788,1789,1837
1793,1830,1850
1847,1891,1841
1841,1926,1846
1809,1872,1824
1827,1856,1822
1813,1871,1859
1813,1858,1843
1820,1916,1873
1834,1878,1820
1840,1914,1837
1833,1898,1840
1813,1904,1889
1816,1951,1855
1830,1819,1839
1819,1761,1817
1794,1845,1838
1801,1873,1840
1821,1874,1857
1844,1913,1860
1840,1886,1862
1870,1872,1827
1858,1838,1808
1842,1915,1860
1838,1935,1893
1824,1909,1887
1840,1947,1861
1857,1895,1785
1831,1890,1858
1817,1818,1893
1841,1842,1886
1851,1871,1889
1856,1809,1839
1828,1875,1831
1819,1879,1846
1841,1899,1865
1843,1820,1821
1831,1856,1851
1851,1879,1869
1872,1872,1845
1838,1936,1879
1824,1934,1873
1845,1914,1860
1869,1929,1858
1857,1893,1858
1861,1897,1850
1835,1867,1844
1836,1867,1862
1841,1807,1872
1855,1901,1884
1861,1842,1841
1875,1798,1794
1861,1815,1850
1859,1823,1809
1856,1832,1837
1830,1887,1890
1818,1893,1885
1837,1885,1869
1859,1899,1841
1883,1904,1852
1867,1925,1851
1818,1791,1839
1840,1824,1838
1868,1901,1856
1827,1831,1847
1839,1803,1854
1862,1787,1805
1812,1809,1824
1808,1861,1861
1842,1861,1856
1907,1774,1802
1847,1855,1870
1815,1911,1886
1832,1907,1872
1853,1853,1841
1842,1831,1839
1853,1839,1863
1871,1860,1870
1873,1895,1834
1873,1781,1773
1815,1808,1871
1790,1840,1891
1829,1850,1860
1867,1808,1798
1840,1926,1861
1840,1911,1904
1882,1851,1833
1835,1793,1828
1825,1849,1867
1808,1823,1843
1856,1789,1839
1858,1879,1847
1847,1851,1844
1827,1863,1846
1846,1850,1838
1875,1836,1802
1840,1865,1853
1818,1858,1887
1851,1855,1885
1845,1840,1827
1817,1859,1872
1819,1850,1873
1840,1881,1861
1853,1857,1839
1857,1805,1840
1863,1840,1856
1875,1888,1839
1885,1739,1791
1814,1818,1858
1808,1873,1872
1856,1815,1809
1862,1857,1859
1856,1869,1894
1869,1873,1872
1856,1879,1812
1847,1872,1836
1859,1867,1843
1879,1840,1870
1861,1963,1873
1841,1867,1835
1847,1766,1830
1846,1806,1859
1853,1838,1872
1855,1862,1861
1847,1855,1869
1851,1860,1859
1872,1867,1842
1887,1873,1847
1872,1867,1842
1862,1855,1854
1874,1881,1858
1877,1901,1861
1872,1872,1865
1869,1872,1857
1872,1871,1847
1874,1871,1844
1859,1858,1849
1869,1867,1847
1872,1876,1851
1872,1876,1861
1869,1858,1865
1872,1845,1840
1930,1943,1792
1879,1789,1803
1799,1760,1886
1778,1804,1887
1819,1840,1856
1853,1853,1839
1859,1846,1842
1851,1843,1843
1856,1847,1854
1861,1859,1845
1865,1857,1849
1861,1859,1845
1870,1863,1841
1872,1859,1840
1861,1859,1854
1852,1860,1851
1861,1872,1855
1870,1872,1847
1872,1863,1858
1872,1856,1859
1877,1869,1856
1878,1877,1851
1856,1840,1840
1847,1866,1856
1882,1807,1808
1867,1825,1837
1831,1863,1855
1827,1867,1862
1853,1835,1877
1872,1862,1872
1825,1819,1830
1824,1744,1811
1847,1789,1851
1831,1871,1867
1831,1888,1855
1830,1831,1842
1853,1797,1830
1853,1858,1872
1878,1983,1877
1835,1776,1871
1813,1773,1856
1819,1831,1853
1829,1820,1822
1841,1834,1838
1878,1840,1850
1867,1862,1840
1831,1823,1840
1823,1839,1851
1830,1867,1851
1837,1865,1846
1831,1850,1855
1842,1856,1856
1880,1835,1807
1853,1780,1805
1806,1834,1875
1819,1828,1872
1847,1926,1875
1867,1937,1862
1817,1713,1890
1766,1750,1867
1792,1802,1830
1826,1825,1834
1833,1830,1850
1831,1840,1847
1843,1846,1841
1856,1840,1843
1823,1840,1858
1825,1842,1850
1851,1795,1786
1841,1882,1856
1840,1875,1879
1854,1856,1843
1840,1794,1844
1803,1969,1867
1792,1838,1857
1803,1725,1835
1824,1776,1856
1821,1852,1867
1807,1823,1854
1814,1811,1846
1838,1821,1843
1831,1836,1840
1830,1854,1854
1835,1850,1843
1868,1817,1790
1840,1831,1845
1819,1869,1901
1827,1886,1899
1850,1876,1836
1814,1797,1835
1808,1808,1850
1824,1817,1853
1877,1866,1846
1838,1840,1856
1809,1861,1859
1811,1822,1880
1845,1813,1847
1838,1855,1809
1837,1817,1817
1831,1809,1853
1837,1847,1867
1850,1837,1856
1837,1841,1855
1839,1853,1860
1859,1851,1854
1851,1841,1856
1859,1812,1808
1845,1809,1835
1843,1831,1872
1829,1873,1875
1835,1825,1823
1840,1845,1845
1871,1878,1837
1821,1797,1877
1793,1799,1875
1795,1801,1847
1825,1819,1827
1829,1829,1831
1827,1827,1845
1831,1839,1853
1845,1853,1855
1853,1856,1850
1844,1843,1847
1853,1846,1849
1863,1858,1851
1862,1861,1856
1851,1843,1847
1834,1833,1839
1852,1834,1849
1863,1859,1855
1870,1870,1860
1866,1863,1855
1850,1855,1842
1792,1781,1806
1743,1713,1761
1811,1802,1814
1966,1959,1898
1989,1971,1904
1923,1916,1883
1873,1874,1881
1867,1859,1852
1866,1855,1858
1863,1845,1861
1863,1842,1862
1862,1845,1843
1861,1842,1847
1838,1805,1840
1812,1787,1826
1802,1775,1809
1821,1808,1827
1813,1778,1820
1959,1954,1918
1998,1985,1941
1933,1914,1875
1867,1854,1843
1877,1877,1870
1909,1893,1870
1914,1882,1869
1874,1856,1861
1857,1840,1861
1860,1835,1840
1870,1842,1837
1859,1840,1840
1827,1823,1839
1825,1803,1817
1857,1837,1836
1890,1872,1872
1876,1867,1873
1869,1857,1853
1845,1826,1830
1837,1811,1829
1857,1839,1856
1874,1861,1867
1865,1844,1847
1850,1830,1840
1846,1846,1856
1863,1840,1845
1879,1863,1858
1859,1843,1865
1850,1856,1876
1887,1885,1877
1884,1871,1862
1850,1847,1856
1838,1826,1856
1850,1837,1853
1846,1818,1830
1808,1783,1823
1818,1795,1840
1879,1857,1872
1870,1856,1869
1793,1763,1825
1808,1770,1824
1920,1909,1891
1920,1915,1907
1872,1848,1870
1836,1815,1843
1847,1811,1853
1855,1830,1843
1825,1802,1833
1787,1775,1827
1861,1840,1855
1910,1879,1872
1847,1839,1853
1750,1743,1808
1760,1726,1787
1902,1887,1858
1887,1876,1879
1762,1747,1808
1861,1841,1837
1987,1972,1909
1942,1939,1919
1872,1870,1879
1856,1849,1856
1865,1842,1835
1843,1818,1834
1827,1808,1854
1839,1821,1855
1845,1833,1829
1826,1808,1831
1823,1808,1848
1856,1837,1863
1865,1826,1839
1822,1806,1829
1795,1795,1822
1827,1808,1832
1872,1843,1840
1840,1818,1808
1781,1776,1825
1773,1757,1815
1777,1744,1799
1785,1743,1812
1893,1874,1873
1956,1947,1872
1911,1897,1871
1861,1856,1866
1841,1838,1833
1830,1808,1808
1840,1836,1845
1835,1823,1871
1803,1808,1846
1823,1797,1823
1862,1728,1780
1839,1770,1818
1788,1857,1870
1789,1855,1839
1808,1821,1806
1814,1808,1820
1826,1815,1840
1833,1819,1834
1779,1757,1776
1701,1659,1733
1825,1791,1828
1963,1939,1911
1930,1911,1873
1843,1841,1838
1801,1807,1827
1822,1793,1808
1815,1778,1793
1743,1702,1765
1777,1776,1814
1902,1904,1874
1902,1889,1860
1840,1831,1835
1816,1808,1826
1828,1821,1815
1829,1802,1813
1795,1782,1798
1815,1795,1850
1840,1840,1865
1774,1757,1753
1679,1663,1709
1781,1777,1786
1942,1936,1882
1934,1906,1853
1862,1813,1778
1785,1777,1810
1827,1796,1846
1836,1828,1854
1739,1752,1807
1650,1664,1753
1843,1845,1838
1961,1953,1903
1875,1872,1859
1809,1807,1829
1808,1791,1815
1851,1817,1835
1838,1823,1857
1802,1802,1825
1792,1767,1786
1808,1758,1785
1853,1712,1787
1843,1840,1872
1826,1856,1859
1833,1812,1831
1806,1805,1817
1801,1799,1835
1823,1819,1846
1805,1787,1823
1665,1661,1749
1615,1587,1727
1904,1890,1880
2035,2019,1963
1936,1927,1901
1834,1839,1850
1811,1799,1833
1833,1804,1824
1825,1821,1849
1815,1803,1852
1808,1781,1823
1750,1744,1763
1759,1728,1776
1885,1863,1881
1913,1902,1904
1857,1853,1856
1782,1776,1822
1822,1805,1850
1888,1847,1879
1897,1863,1870
1839,1827,1850
1819,1803,1851
1840,1733,1796
1857,1798,1825
1839,1845,1867
1795,1834,1873
1803,1829,1843
1830,1815,1819
1807,1815,1826
1791,1807,1856
1813,1817,1853
1841,1829,1835
1831,1817,1840
1804,1818,1857
1818,1789,1839
1825,1791,1821
1790,1756,1821
1749,1727,1825
1781,1761,1810
1894,1883,1875
1885,1886,1891
1821,1836,1872
1822,1819,1851
1842,1827,1834
1818,1803,1821
1808,1791,1854
1856,1853,1870
1872,1869,1861
1838,1862,1872
1803,1808,1845
1824,1807,1829
1859,1763,1794
1840,1746,1845
1794,1819,1890
1810,1824,1893
1840,1851,1860
1872,1799,1795
1796,1814,1829
1773,1875,1872
1812,1845,1869
1826,1781,1859
1803,1840,1842
1797,1808,1835
1853,1904,1863
1819,1802,1840
1782,1788,1837
1785,1751,1808
1815,1771,1821
1813,1791,1815
1798,1837,1867
1814,1833,1875
1828,1813,1853
1827,1804,1847
1817,1808,1853
1831,1822,1850
1843,1835,1846
1834,1819,1851
1823,1822,1872
1839,1843,1872
1840,1842,1851
1830,1834,1849
1822,1842,1862
1840,1838,1857
1843,1833,1846
1834,1817,1840
1827,1818,1861
1841,1836,1865
1845,1840,1855
1840,1830,1854
1846,1826,1857
1845,1837,1856
1860,1844,1863
1847,1829,1869
1837,1825,1859
1847,1832,1856
1862,1840,1865
1853,1851,1882
1843,1847,1858
1849,1845,1837
1854,1839,1845
1851,1822,1856
1839,1809,1856
1857,1807,1836
1847,1855,1864
1836,1877,1890
1830,1859,1872
1855,1855,1859
1871,1857,1858
1849,1850,1865
1834,1847,1856
1845,1850,1849
1863,1859,1850
1857,1861,1872
1855,1846,1873
1856,1841,1867
1857,1855,1857
1846,1841,1859
1844,1840,1861
1866,1862,1873
1871,1815,1841
1856,1837,1865
1835,1859,1882
1849,1854,1850
1874,1807,1832
1846,1863,1863
1826,1859,1872
1843,1824,1851
1856,1841,1859
1850,1857,1865
1842,1858,1859
1842,1856,1853
1877,1809,1870
1865,1812,1835
1811,1877,1872
1823,1891,1880
1852,1854,1850
1842,1855,1844
1830,1830,1853
1847,1855,1857
1846,1854,1857
1840,1823,1856
1868,1767,1840
1838,1858,1854
1830,1889,1863
1825,1872,1879
1831,1840,1827
1849,1841,1835
1835,1867,1863
1819,1827,1871
1818,1829,1895
1863,1779,1837
1850,1853,1840
1828,1850,1847
1815,1777,1814
1839,1782,1807
1815,1917,1891
1804,1918,1914
1802,1840,1886
1823,1833,1871
1840,1828,1841
1836,1856,1842
1825,1822,1873
1833,1872,1849
1842,1851,1846
1841,1829,1863
1815,1808,1860
1835,1839,1853
1859,1843,1835
1856,1714,1751
1808,1849,1857
1803,1920,1909
1823,1897,1886
1826,1857,1842
1839,1811,1835
1840,1856,1871
1850,1890,1899
1841,1862,1865
1837,1793,1786
1847,1814,1831
1877,1776,1842
1823,1893,1886
1802,1890,1887
1814,1895,1879
1843,1870,1849
1840,1865,1827
1829,1827,1824
1815,1872,1863
1853,1875,1863
1838,1850,1861
1834,1838,1808
1871,1822,1826
1855,1872,1882
1798,1815,1854
1774,1879,1851
1849,1863,1853
1949,1855,1889
1916,1856,1858
1771,1842,1840
1747,1858,1842
1792,1850,1825
1827,1843,1840
1831,1824,1839
1859,1808,1813
1853,1843,1873
1823,1901,1857
1790,1929,1856
1839,1903,1845
1873,1821,1808
1815,1832,1843
1819,1824,1857
1858,1758,1817
1808,1847,1872
1803,1837,1862
1851,1845,1845
1860,1904,1876
1835,1900,1870
1827,1873,1847
1808,1818,1822
1843,1843,1825
1826,1879,1829
1829,1874,1827
1873,1866,1808
1821,1839,1808
1786,1837,1866
1775,1861,1880
1786,1855,1872
1781,1871,1829
1825,1942,1851
1809,1887,1823
1803,1843,1819
1825,1904,1823
1833,1762,1744
1795,1807,1803
1744,1855,1839
1783,1895,1847
1844,1894,1853
1835,1874,1847
1776,1840,1813
1775,1856,1808
1859,1919,1837
1829,1854,1799
1782,1737,1726
1744,1885,1831
1746,1965,1872
1766,1891,1872
1810,1839,1872
1832,1959,1890
1831,1957,1827
1731,1862,1799
1753,1627,1781
1761,1768,1840
1786,1834,1834
1782,1895,1867
1758,1910,1866
1790,1870,1772
1794,1893,1778
1790,1849,1862
1809,1856,1856
1808,1941,1878
1831,1887,1821
1823,1815,1837
1775,1856,1868
1699,1904,1808
1762,1781,1808
1773,1833,1839
1753,1842,1817
1787,1857,1872
1792,1910,1852
1795,1899,1812
1837,1725,1732
1819,1791,1825
1807,2005,1920
1786,1795,1840
1723,1825,1841
1778,1898,1863
1817,1883,1856
1749,1840,1819
1764,1809,1815
1794,1858,1847
1817,1877,1840
1835,1833,1839
1807,1871,1826
1808,1872,1807
1830,1815,1780
1815,1867,1918
1809,1905,1917
1810,1906,1815
1779,1904,1787
1776,1819,1839
1838,1776,1806
1864,1750,1825
1808,1717,1809
1777,1959,1891
1744,1953,1872
1736,1861,1830
1808,1799,1791
1806,1821,1845
1776,1904,1904
1778,1889,1841
1826,1924,1824
1797,1895,1868
1793,1823,1834
1818,1807,1825
1835,1783,1803
1806,1911,1846
1808,1870,1856
1781,1780,1841
1805,1856,1887
1822,1827,1802
1789,1808,1808
1797,1755,1799
1776,1874,1869
1802,1941,1879
1890,1927,1916
1870,1884,1883
1776,1841,1803
1750,1808,1813
1797,1835,1825
1825,1774,1806
1863,1776,1818
1808,1898,1890
1808,1915,1898
1834,1779,1872
1822,1765,1818
1791,1795,1797
1783,1790,1827
1840,1798,1845
1829,1861,1872
1809,1886,1840
1803,1891,1810
1809,1854,1871
1765,1769,1783
1769,1803,1815
1854,1711,1889
1857,1776,1883
1783,1779,1835
1769,1827,1825
1808,1847,1841
1872,1830,1861
1869,1799,1802
1821,1774,1825
1810,1839,1861
1887,1957,1919
1921,1901,1926
1840,1855,1877
1773,1848,1831
1792,1843,1824
1811,1887,1836
1835,1826,1807
1873,1728,1865
1858,1792,1879
1807,1793,1798
1817,1805,1792
1776,1827,1904
1753,1840,1887
1794,1775,1872
1802,1802,1856
1840,1888,1893
1856,1842,1890
1836,1743,1813
1808,1766,1776
1821,1847,1853
1827,1887,1861
1887,1883,1872
1860,1862,1898
1831,1855,1891
1885,1727,1853
1835,1883,1850
1812,1903,1807
1885,1872,1817
1917,1801,1904
1822,1808,1877
1771,1920,1853
1789,1753,1808
1795,1765,1811
1804,1761,1857
1810,1843,1875
1842,1795,1863
1893,1815,1863
1776,1857,1821
1774,1839,1831
1808,1840,1840
1874,1847,1879
1925,1776,1919
1872,1857,1863
1775,1846,1782
1868,1901,1825
1866,1845,1813
1825,1823,1826
1786,1797,1813
1782,1854,1873
1803,1856,1888
1802,1791,1845
1831,1671,1840
1881,1826,1923
1845,1902,1911
1829,1875,1861
1857,1882,1827
1826,1847,1826
1855,1827,1791
1883,1747,1791
1815,1840,1841
1748,1854,1847
1834,1885,1876
1890,1822,1870
1806,1809,1813
1801,1863,1826
1820,1794,1894
1842,1808,1856
1835,1840,1872
1839,1872,1853
1830,1733,1791
1780,1856,1840
1831,1859,1856
1852,1856,1895
1836,1870,1886
1850,1889,1842
1841,1856,1841
1924,1855,1829
1887,1785,1809
1765,1825,1858
1745,1845,1850
1795,1846,1871
1878,1911,1822
1885,1861,1809
1807,1783,1894
1844,1808,1892
1799,1789,1841
1779,1740,1781
1806,1798,1826
1845,1895,1904
1871,1858,1885
1852,1866,1851
1871,1885,1907
1884,1878,1899
1834,1890,1775
1803,1770,1745
1838,1776,1858
1811,1841,1872
1861,1856,1810
1853,1918,1871
1835,1715,1883
1813,1753,1872
1823,1831,1819
1847,1851,1819
1806,1782,1858
1856,1782,1840
1868,1870,1863
1805,1872,1857
1822,1879,1879
1858,1886,1899
1908,1879,1833
1843,1809,1858
1795,1790,1822
1791,1790,1786
1833,1863,1877
1873,1872,1855
1859,1833,1887
1861,1820,1913
1843,1865,1840
1814,1761,1821
1811,1791,1805
1814,1855,1826
1826,1860,1817
1850,1792,1817
1831,1847,1911
1899,1821,1866
1875,1872,1842
1840,1847,1874
1755,1808,1808
1813,1788,1809
1842,1818,1860
1833,1836,1820
1827,1840,1856
1859,1839,1923
1856,1777,1839
1839,1906,1827
1845,1859,1811
1839,1790,1862
1842,1847,1895
1843,1904,1856
1875,1857,1831
1843,1842,1829
1828,1792,1842
1808,1805,1808
1917,1853,1848
1841,1851,1817
1818,1840,1823
1830,1789,1873
1852,1856,1931
1855,1690,1728
1841,1841,1806
1813,2016,1918
1836,1926,1993
1866,1837,1968
1833,1779,1766
1803,1736,1711
1829,1782,1821
1867,1854,1904
1871,1821,1915
1865,1782,1872
1849,1776,1746
1873,1921,1942
1930,1991,2175
1873,1859,1895
1730,1823,1687
1821,1914,1883
1897,1883,1857
1808,1801,1767
1808,1773,1755
1865,1776,1877
1841,1698,1783
1797,1771,1793
1771,1818,1859
1872,1973,1985
1872,1798,1885
1809,1795,1868
1817,1835,1919
1904,1885,1894
1854,1815,1764
1791,1808,1781
1803,1895,1923
1885,1856,1989
1861,1839,1781
1810,1790,1699
1856,1731,1821
1903,1895,2041
1801,1781,1820
1744,1765,1747
1799,1788,1840
1824,1861,1872
1809,1830,1777
1776,1691,1757
1821,1830,1935
1856,1851,1948
1835,1841,1767
1842,1793,1701
1807,1825,1817
1846,1891,1943
1863,1873,1932
1809,1817,1779
1797,1852,1770
1863,1936,1840
1886,1862,1925
1795,1805,1840
1793,1821,1809
1850,1723,1758
1826,1825,1813
1856,1770,1847
1846,1731,1835
1861,1883,1873
1808,1842,1824
1825,1870,1840
1843,1771,1801
1813,1835,1769
1798,1926,1875
1843,1909,1949
1829,1867,1885
1840,1801,1819
1855,1802,1762
1844,1833,1794
1845,1926,1925
1843,1840,1844
1815,1830,1760
1847,1785,1870
1879,1760,1887
1849,1840,1840
1826,1776,1810
1859,1903,1954
1805,1845,1875
1791,1825,1759
1839,1813,1806
1886,1757,1857
1857,1860,1948
1777,1919,1846
1803,1904,1794
1866,1839,1818
1885,1840,1917
1895,1803,1839
1867,1748,1808
1818,1835,1828
1797,1855,1863
1860,1825,1808
1836,1792,1840
1845,1840,1899
1811,1826,1846
1854,1818,1767
1887,1825,1863
1851,1853,1994
1819,1840,1871
1843,1843,1770
1887,1847,1773
1859,1799,1840
1823,1851,1897
1813,1850,1875
1838,1837,1856
1819,1799,1826
1847,1831,1889
1839,1794,1768
1841,1857,1867
1868,1866,1917
1847,1885,1840
1851,1840,1792
1855,1825,1866
1869,1863,1870
1808,1821,1835
1856,1823,1825
1861,1828,1844
1894,1835,1889
1885,1861,1961
1818,1838,1862
1798,1808,1783
1865,1834,1774
1868,1834,1796
1911,1959,2030
1824,1839,1962
1765,1734,1709
1819,1807,1792
1890,1872,1871
1895,1853,1822
1841,1769,1838
1830,1835,1875
1844,1838,1822
1829,1854,1841
1872,1834,1847
1892,1929,1951
1883,1904,1989
1856,1838,1794
1824,1875,1823
1828,1853,1936
1860,1839,1882
1813,1751,1729
1776,1744,1794
1840,1791,1877
1889,1881,1935
1890,1903,1933
1847,1841,1794
1835,1877,1828
1846,1892,1892
1937,1889,1921
1904,1791,1810
1813,1762,1748
1807,1833,1797
1825,1899,1881
1856,1866,1917
1852,1934,1845
1833,1904,1849
1887,1862,1932
1920,1728,1847
1856,1759,1787
1854,1857,1874
1840,1856,1924
1893,1918,1905
1882,1856,1857
1794,1820,1837
1793,1840,1881
1859,1795,1842
1938,1840,1808
1838,1815,1856
1781,1840,1812
1823,1862,1840
1840,1815,1915
1840,1830,1942
1824,1847,1819
1889,1840,1835
1893,1885,1870
1879,1885,1915
1904,1906,1921
1816,1793,1825
1806,1840,1893
1821,1835,1792
1853,1763,1723
1853,1840,1871
1856,1927,1967
1822,1808,1925
1887,1747,1781
1903,1802,1842
1779,1872,1874
1826,1917,1882
1910,1965,1936
1941,1799,1866
1831,1728,1744
1791,1802,1826
1839,1879,1904
1794,1797,1862
1819,1890,1968
1839,1895,1890
1858,1840,1791
1899,1902,1856
1840,1777,1776
1843,1818,1803
1889,1847,1863
1910,1855,1918
1907,1862,1886
1823,1782,1808
1822,1801,1872
1793,1783,1890
1808,1886,1887
1877,1891,1794
1870,1890,1857
1823,1817,1872
1794,1797,1845
1856,1847,1895
1847,1858,1883
1837,1834,1859
1854,1856,1869
1913,1904,1888
1899,1927,1939
1897,1879,2009
1918,1871,1834
1808,1751,1680
1845,1705,1707
1889,1870,1929
1841,1995,2071
1841,1810,1872
1802,1794,1767
1823,1847,1872
1904,1855,1959
1859,1837,1840
1787,1840,1809
1786,1840,1808
1829,1845,1858
1898,1858,1904
1919,1935,1921
1890,1821,1840
1841,1824,1843
1851,1846,1819
1872,1803,1813
1828,1887,1904
1776,1815,1924
1840,1834,1890
1881,1925,1872
1927,1821,1970
1793,1776,1799
1795,1773,1726
1847,1841,1899
1955,1909,1966
1882,1782,1799
1735,1744,1749
1804,1726,1713
1869,1965,1904
1883,1921,1979
1817,1875,1882
1833,1971,1846
1811,1862,1831
1845,1763,1902
1897,1774,1982
1920,1866,1862
1825,1861,1772
1775,1851,1840
1855,1930,1918
1846,1815,1805
1841,1739,1789
1900,1727,1881
1840,1874,1919
1861,1923,1867
1915,1901,1869
1875,1868,1840
1893,1903,1851
1839,1903,1872
1808,1905,1872
1811,1849,1865
1868,1796,1872
1872,1814,1904
1855,1834,1830
1851,1724,1725
1812,1840,1806
1882,1906,1883
1882,1808,1909
1807,1967,1991
1801,1862,1897
1863,1831,1806
1906,1840,1835
1887,1840,1899
1887,1886,1910
1861,1839,1791
1840,1826,1799
1835,1881,1899
1847,1902,1895
1868,1835,1772
1859,1801,1775
1806,1845,1872
1872,1849,1921
1900,1930,1914
1805,1868,1869
1881,1821,1842
1825,1710,1819
1809,1803,1776
1814,1901,1847
1857,1880,1904
1919,1920,1926
1906,1945,1936
1853,1855,1808
1824,1786,1777
1868,1840,1829
1934,1902,1858
1835,1866,1841
1945,1964,1986
1883,1927,2005
1779,1757,1797
1766,1777,1661
1840,1849,1786
1886,1833,1885
1888,1841,1914
1835,1735,1766
1792,1843,1808
1808,1911,1907
1915,1915,1985
1885,1897,1808
1802,1854,1786
1846,1872,1904
1905,1873,1949
1857,1841,1847
1835,1822,1792
1872,1892,1840
1918,1941,1909
1872,1815,1936
1810,1810,1899
1791,1803,1811
1851,1946,1808
1875,1895,1851
1872,1769,1801
1861,1834,1871
1885,1913,1920
1829,1906,1866
1798,1825,1785
1869,1846,1807
1885,1872,1866
1851,1922,1834
1815,1747,1874
1833,1809,1936
1905,1862,1870
1875,1915,1838
1850,1931,1874
1847,1803,1854
1847,1883,1942
1845,1891,1876
1840,1809,1774
1824,1771,1818
1845,1872,1872
1877,1907,1858
1846,1838,1861
1810,1803,1772
1851,1914,1845
1841,1818,1856
1917,1889,1921
1843,1786,1802
1790,1872,1779
1817,1885,1858
1848,1865,1900
1901,1882,1904
1840,1905,1853
1808,1845,1781
1837,1861,1849
1898,1827,1873
1899,1725,1746
1840,1840,1840
1824,1886,1904
1873,1888,1939
1798,1821,1854
1792,1857,1789
1855,1834,1863
1913,1863,1921
1886,1882,1841
1835,1857,1791
1810,1841,1837
1853,1883,1921
1868,1876,1838
1872,1869,1902
1834,1792,1870
1916,1935,1827
1934,1877,1769
1813,1856,1893
1836,1776,1887
1872,1883,1924
1856,1835,1963
1793,1759,1773
1773,1841,1746
1840,1879,1792
1957,1892,1873
1950,1861,2059
1806,1867,1899
1762,1793,1679
1842,1870,1750
1858,1857,1845
1931,1913,1885
1895,1887,1909
1883,1902,1939
1858,1894,1856
1808,1871,1840
1783,1905,1857
1872,1813,1851
1916,1762,1815
1904,1845,1869
1797,1877,1850
1808,1884,1825
1845,1851,1842
1838,1824,1839
1879,1855,1863
1882,1981,1968
1868,1888,1863
