1869,2011,1722
1852,1969,1712
1845,1959,1695
1877,1963,1677
1903,1839,1625
1855,1949,1698
1812,1994,1732
1834,2022,1726
1854,2000,1713
1863,1989,1718
1879,1978,1673
1847,1946,1690
1822,1965,1715
1845,1956,1690
1846,1997,1712
1846,1979,1713
1856,1998,1716
1836,1973,1712
1846,1975,1682
1856,2007,1729
1855,1969,1719
1818,1994,1737
1821,2021,1722
1866,2015,1709
1846,2012,1710
1834,1973,1707
1830,1904,1696
1824,1989,1718
1846,2054,1703
1840,1954,1705
1815,2000,1745
1815,2046,1739
1856,2067,1718
1808,1980,1711
1801,1963,1735
1835,2035,1734
1833,1943,1680
1815,1903,1684
1827,1975,1738
1835,2035,1737
1856,2012,1690
1832,1936,1698
1782,1989,1778
1801,2016,1782
1834,1988,1735
1823,1998,1727
1825,2061,1755
1825,2033,1757
1811,1994,1743
1804,1981,1748
1826,2013,1760
1822,2015,1743
1814,2071,1738
1821,1936,1728
1866,1858,1691
1820,1947,1773
1787,2023,1805
1806,1997,1776
1809,1989,1788
1795,1994,1794
1808,1991,1798
1818,1955,1769
1810,1984,1774
1815,2014,1780
1811,2006,1776
1808,1932,1760
1827,1927,1729
1815,1968,1782
1793,2005,1810
1807,1927,1792
1815,1920,1763
1815,2016,1808
1808,2013,1803
1813,1963,1749
1838,1887,1749
1799,1975,1819
1799,2085,1827
1801,1904,1750
1798,1918,1784
1798,1968,1808
1795,1966,1798
1776,1886,1776
1779,1957,1810
1818,2022,1813
1808,1953,1802
1808,1955,1791
1829,1913,1765
1791,1957,1802
1789,1980,1827
1798,1952,1802
1808,1936,1778
1814,1968,1808
1806,1981,1841
1838,1872,1741
1810,2102,1791
1813,1997,1813
1755,1874,1822
1765,1903,1809
1771,1936,1807
1800,1961,1810
1827,1921,1809
1827,1936,1793
1824,2071,1836
1808,1955,1821
1766,1889,1823
1774,1969,1842
1801,1909,1814
1788,1914,1829
1795,1959,1830
1835,2033,1797
1806,1933,1807
1779,1969,1805
1826,1945,1788
1857,1920,1750
1774,1925,1801
1765,1940,1807
1803,1925,1790
1793,1898,1762
1792,1968,1766
1819,1984,1765
1840,1953,1766
1823,1971,1748
1827,1986,1749
1834,1890,1722
1811,1921,1738
1786,1920,1730
1802,1955,1749
1824,1922,1744
1815,1925,1782
1746,1962,1759
1815,2045,1745
1787,1849,1765
1760,1871,1782
1763,1904,1755
1787,1937,1728
1821,1945,1744
1831,1995,1758
1805,1968,1763
1813,1959,1766
1855,1934,1687
1839,1913,1742
1776,1936,1793
1773,1984,1807
1803,1936,1772
1825,1936,1761
1799,1910,1777
1824,1953,1798
1806,1941,1814
1780,1910,1806
1776,1924,1769
1824,1936,1765
1796,1926,1789
1796,1907,1767
1833,1872,1729
1794,1984,1841
1762,1940,1831
1789,1837,1763
1802,1855,1775
1825,1943,1782
1786,1903,1849
1792,1958,1829
1771,1885,1817
1781,1875,1814
1808,1840,1808
1833,1815,1795
1805,1868,1812
1773,2011,1853
1797,1967,1856
1837,1946,1853
1790,1875,1838
1771,1849,1813
1813,1923,1781
1820,1834,1825
1754,1861,1856
1773,1896,1875
1807,1921,1843
1811,1823,1831
1818,1840,1808
1787,1905,1857
1792,1937,1872
1826,1924,1872
1822,1929,1867
1776,1838,1855
1808,1898,1847
1814,1846,1840
1781,1874,1873
1776,1863,1899
1819,1902,1866
1870,1715,1776
1803,1911,1871
1774,1889,1911
1783,1872,1903
1813,1872,1857
1803,1856,1856
1807,1869,1872
1822,1904,1914
1835,1907,1907
1847,1855,1805
1806,1872,1827
1789,1797,1882
1821,1770,1854
1820,1899,1886
1795,1873,1910
1803,1843,1891
1817,1791,1856
1807,1867,1886
1801,1918,1868
1816,1880,1898
1842,1841,1911
1839,1806,1897
1833,1825,1883
1817,1851,1886
1834,1878,1898
1854,1881,1869
1815,1792,1869
1794,1808,1903
1803,1858,1953
1839,1879,1936
1840,1893,1930
1856,1808,1875
1847,1754,1855
1760,1776,1942
1746,1771,1920
1811,1841,1920
1857,1834,1886
1807,1801,1927
1807,1818,1951
1838,1907,1937
1824,1843,1898
1837,1823,1920
1853,1796,1937
1823,1882,1936
1838,1783,1883
1808,1739,1891
1808,1846,1911
1845,1803,1891
1840,1799,1919
1817,1802,1904
1840,1744,1890
1840,1900,1970
1833,1905,1991
1820,1803,1907
1840,1765,1887
1872,1850,1893
1866,1872,1904
1799,1763,1910
1825,1725,1904
1878,1795,1899
1863,1824,1881
1806,1793,1909
1823,1902,1918
1845,1779,1887
1834,1774,1904
1849,1703,1897
1808,1811,1920
1824,1845,1915
1853,1831,1898
1857,1858,1891
1891,1833,1862
1822,1754,1909
1840,1841,1901
1861,1729,1860
1867,1760,1903
1835,1824,1925
1840,1886,1913
1838,1753,1882
1815,1747,1879
1856,1776,1925
1867,1850,1904
1845,1745,1842
1855,1793,1888
1860,1853,1917
1859,1875,1904
1890,1933,1907
1857,1773,1851
1823,1773,1896
1834,1835,1895
1841,1739,1877
1857,1808,1908
1872,1825,1893
1850,1841,1885
1834,1776,1917
1840,1837,1889
1873,1795,1849
1868,1805,1885
1855,1830,1895
1875,1792,1840
1885,1792,1854
1857,1749,1891
1798,1858,1930
1855,1793,1917
1795,1720,1894
1806,1740,1882
1842,1776,1873
1868,1805,1881
1872,1841,1906
1870,1829,1901
1862,1799,1876
1895,1805,1862
1906,1878,1909
1847,1782,1847
1843,1765,1857
1839,1755,1894
1840,1797,1922
1889,1872,1887
1885,1809,1877
1855,1842,1890
1853,1807,1877
1826,1776,1895
1840,1813,1894
1853,1808,1901
1857,1747,1875
1862,1781,1879
1847,1768,1886
1870,1778,1872
1917,1789,1857
1874,1875,1935
1847,1895,1935
1856,1876,1871
1883,1751,1838
1858,1818,1840
1834,1745,1886
1856,1803,1911
1891,1811,1895
1866,1867,1872
1809,1773,1874
1821,1765,1915
1857,1778,1892
1874,1840,1867
1825,1808,1901
1844,1834,1904
1867,1819,1911
1892,1845,1891
1877,1831,1856
1866,1814,1887
1857,1811,1908
1927,1933,1857
1875,1695,1870
1795,1770,1915
1813,1787,1926
1860,1782,1887
1879,1762,1857
1855,1840,1918
1855,1904,1921
1851,1859,1907
1869,1872,1908
1869,1801,1865
1884,1857,1877
1871,1839,1895
1865,1796,1909
1840,1843,1904
1904,1807,1805
1840,1694,1842
1838,1774,1915
1858,1755,1918
1838,1859,1935
1859,1845,1920
1867,1841,1903
1878,1881,1914
1885,1875,1942
1886,1891,1895
1885,1808,1866
1885,1959,1919
1872,1855,1902
1886,1815,1868
1882,1746,1840
1863,1799,1905
1870,1790,1904
1861,1847,1904
1858,1853,1893
1886,1771,1872
1887,1840,1899
1882,1893,1931
1885,1922,1904
1885,1826,1844
1872,1885,1872
1882,1914,1875
1871,1791,1881
1882,1790,1867
1901,1819,1851
1882,1905,1916
1907,1918,1893
1920,1860,1855
1888,1777,1873
1875,1856,1862
1874,1823,1872
1898,1823,1884
1920,1861,1839
1904,1831,1846
1904,1807,1904
1886,1873,1869
1891,1922,1842
1890,1947,1895
1878,1904,1837
1841,1751,1853
1854,1770,1863
1887,1822,1875
1897,1840,1883
1909,1849,1866
1915,1873,1856
1904,1967,1869
1891,1886,1846
1871,1759,1857
1890,1797,1867
1919,1877,1895
1934,1871,1858
1902,1808,1803
1840,1879,1893
1872,1839,1899
1900,1815,1841
1863,1829,1866
1877,1905,1862
1885,1819,1856
1871,1808,1901
1891,1825,1899
1904,1850,1869
1894,1851,1837
1891,1843,1838
1904,1858,1854
1906,1890,1859
1891,1861,1850
1890,1840,1861
1929,1904,1831
1911,1804,1840
1883,1840,1919
1895,1777,1840
1834,1795,1861
1851,1808,1881
1883,1825,1872
1854,1831,1855
1861,1817,1872
1872,1828,1875
1889,1824,1852
1887,1838,1866
1893,1840,1881
1905,1861,1865
1906,1840,1804
1887,1857,1847
1886,1907,1876
1894,1840,1878
1916,1883,1875
1984,1904,1810
1806,1713,1854
1787,1754,1893
1845,1822,1872
1889,1843,1825
1867,1807,1856
1867,1803,1874
1877,1824,1885
1875,1838,1877
1878,1841,1867
1915,1863,1877
1894,1863,1891
1860,1845,1869
1894,1869,1841
1920,1822,1799
1867,1807,1877
1805,1839,1904
1840,1872,1899
1914,1902,1872
1899,1839,1850
1824,1773,1859
1829,1776,1864
1859,1812,1854
1879,1840,1856
1881,1853,1856
1873,1829,1859
1889,1851,1873
1904,1869,1887
1901,1846,1871
1888,1851,1833
1887,1767,1783
1872,1808,1826
1830,1847,1903
1856,1857,1893
1882,1890,1866
1904,1853,1826
1863,1804,1823
1831,1787,1845
1842,1810,1850
1867,1834,1851
1872,1839,1851
1871,1814,1859
1881,1841,1863
1892,1846,1862
1874,1850,1861
1856,1830,1867
1888,1900,1840
1871,1839,1887
1841,1744,1887
1872,1786,1849
1866,1841,1839
1838,1764,1871
1823,1818,1878
1851,1840,1862
1870,1828,1831
1886,1848,1819
1810,1809,1843
1821,1814,1846
1857,1831,1843
1862,1845,1856
1856,1840,1858
1856,1846,1870
1872,1831,1872
1868,1790,1794
1853,1808,1846
1840,1835,1872
1872,1851,1865
1867,1862,1873
1862,1831,1869
1897,1855,1799
1856,1841,1863
1808,1791,1859
1856,1781,1822
1821,1762,1824
1799,1829,1860
1827,1850,1856
1846,1851,1844
1858,1836,1850
1879,1840,1844
1861,1846,1853
1853,1840,1842
1850,1851,1840
1863,1867,1852
1858,1858,1828
1851,1881,1834
1832,1834,1844
1840,1815,1841
1853,1851,1857
1840,1858,1854
1843,1851,1842
1859,1856,1842
1865,1859,1840
1855,1849,1837
1850,1854,1827
1853,1870,1841
1855,1872,1853
1846,1850,1840
1847,1855,1844
1855,1867,1854
1848,1862,1854
1828,1835,1842
1825,1837,1836
1862,1871,1861
1877,1883,1875
1853,1859,1847
1825,1839,1825
1795,1805,1803
1794,1807,1818
1868,1872,1859
1890,1904,1881
1872,1879,1859
1878,1890,1859
1872,1859,1840
1853,1844,1846
1860,1864,1869
1886,1874,1857
1872,1861,1856
1830,1830,1840
1786,1792,1838
1838,1818,1808
1911,1897,1879
1906,1892,1878
1875,1872,1852
1831,1839,1840
1781,1777,1813
1792,1776,1818
1886,1856,1847
1922,1888,1859
1904,1886,1859
1874,1865,1859
1863,1856,1866
1862,1843,1855
1862,1838,1830
1858,1839,1817
1840,1822,1830
1855,1823,1857
1857,1823,1865
1859,1817,1856
1857,1816,1845
1840,1795,1831
1793,1744,1811
1836,1781,1839
1891,1843,1891
1887,1831,1881
1867,1808,1855
1862,1806,1843
1859,1805,1851
1842,1786,1838
1857,1792,1893
1865,1786,1910
1872,1795,1877
1840,1769,1840
1783,1694,1811
1872,1791,1905
1922,1853,1930
1890,1813,1856
1837,1755,1831
1834,1747,1856
1840,1758,1857
1832,1744,1838
1802,1712,1830
1830,1738,1859
1904,1813,1913
1896,1794,1858
1838,1713,1811
1806,1680,1817
1850,1733,1873
1871,1749,1889
1861,1746,1883
1872,1763,1903
1876,1759,1853
1890,1780,1859
1875,1755,1861
1853,1729,1856
1856,1744,1844
1872,1755,1863
1847,1717,1855
1831,1681,1843
1846,1722,1845
1856,1745,1875
1810,1679,1833
1825,1707,1839
1845,1734,1857
1839,1715,1840
1920,1790,1887
1935,1798,1881
1901,1758,1856
1831,1711,1842
1736,1633,1760
1764,1650,1776
2016,1850,1947
2074,1886,1967
1840,1767,1850
1770,1696,1833
1790,1727,1889
1835,1735,1833
1870,1728,1838
1843,1730,1894
1822,1741,1849
1836,1748,1799
1840,1739,1853
1834,1728,1899
1837,1726,1849
1862,1751,1808
1850,1728,1813
1807,1707,1845
1849,1762,1951
1879,1762,1894
1810,1683,1674
1823,1710,1663
1873,1778,1815
1935,1819,1961
1860,1732,1892
1803,1687,1731
1842,1753,1727
1878,1788,1791
2014,1802,1987
1953,1740,1867
1745,1710,1677
1779,1754,1681
1856,1769,1801
1872,1749,1873
1849,1757,1771
1840,1754,1706
1825,1714,1744
1860,1745,1851
1869,1763,1758
1847,1744,1699
1843,1728,1786
1909,1781,1961
1890,1775,1844
1821,1728,1646
1856,1740,1714
1948,1762,1867
1806,1729,1762
1762,1709,1681
1881,1805,1776
1947,1841,1867
1936,1847,1866
1903,1806,1734
1865,1744,1671
1849,1723,1733
1873,1763,1798
1904,1793,1819
1873,1762,1826
1850,1728,1810
1858,1743,1748
1898,1801,1829
1875,1754,1814
1840,1717,1725
1869,1746,1733
1881,1772,1808
1898,1783,1872
1874,1779,1846
1847,1737,1741
1852,1746,1750
1875,1758,1791
1857,1745,1802
1863,1767,1777
1886,1777,1786
1920,1776,1851
1881,1755,1865
1838,1768,1797
1842,1786,1807
1830,1738,1809
1823,1709,1829
1865,1769,1831
1921,1824,1820
1899,1809,1840
1846,1759,1840
1833,1744,1817
1872,1776,1804
1885,1806,1875
1857,1779,1895
1841,1774,1809
1839,1776,1790
1812,1727,1787
1799,1737,1789
1819,1767,1863
1862,1803,1885
1875,1797,1835
1861,1789,1856
1856,1791,1854
1833,1756,1779
1811,1747,1812
1807,1760,1847
1834,1793,1829
1883,1838,1883
1840,1773,1827
1804,1735,1838
1810,1754,1847
1842,1807,1877
1843,1774,1803
1799,1743,1780
1807,1763,1808
1872,1836,1911
1871,1826,1962
1814,1773,1856
1790,1757,1744
1824,1805,1795
1828,1797,1866
1826,1791,1883
1826,1808,1872
1818,1804,1838
1793,1773,1855
1808,1781,1884
1840,1833,1872
1856,1841,1849
1818,1799,1857
1775,1769,1862
1808,1795,1876
1845,1820,1875
1818,1806,1898
1793,1773,1840
1823,1794,1806
1826,1819,1875
1793,1779,1889
1776,1777,1878
1808,1808,1808
1822,1826,1787
1805,1799,1863
1796,1782,1939
1836,1833,1919
1855,1846,1872
1826,1835,1877
1795,1787,1840
1789,1791,1791
1810,1829,1839
1806,1796,1893
1798,1790,1866
1814,1826,1824
1833,1855,1918
1798,1811,1918
1787,1774,1835
1831,1831,1842
1827,1834,1856
1794,1808,1875
1776,1778,1872
1793,1808,1842
1856,1868,1913
1831,1838,1899
1781,1792,1857
1781,1808,1840
1785,1810,1805
1806,1809,1830
1845,1840,1946
1787,1817,1872
1786,1828,1856
1799,1815,1822
1779,1783,1862
1794,1813,1915
1843,1860,1838
1842,1861,1901
1801,1814,1899
1792,1808,1878
1719,1729,1776
1774,1785,1822
1858,1872,1887
1882,1905,1930
1834,1872,1911
1755,1776,1823
1757,1758,1818
1840,1867,1911
1842,1872,1870
1813,1818,1806
1760,1779,1838
1756,1797,1890
1799,1836,1931
1790,1795,1843
1778,1795,1826
1808,1839,1859
1886,1923,1954
1872,1895,1965
1759,1780,1803
1751,1799,1788
1805,1833,1827
1839,1863,1908
1840,1869,1984
1793,1840,1845
1777,1829,1775
1773,1804,1859
1776,1801,1870
1819,1865,1895
1825,1877,1895
1775,1807,1828
1764,1775,1840
1822,1857,1860
1881,1921,1920
1867,1878,1968
1748,1778,1867
1728,1792,1776
1789,1840,1794
1809,1840,1878
1794,1829,1888
1826,1865,1872
1827,1876,1863
1815,1854,1882
1782,1823,1869
1786,1841,1890
1804,1851,1884
1799,1823,1840
1807,1835,1862
1861,1902,1915
1827,1869,1852
1792,1811,1826
1780,1831,1904
1791,1841,1851
1808,1845,1846
1794,1821,1873
1765,1804,1835
1801,1850,1808
1833,1872,1870
1790,1813,1893
1740,1766,1811
1777,1818,1819
1855,1901,1872
1857,1885,1910
1812,1858,1942
1811,1862,1893
1825,1872,1889
1808,1836,1844
1814,1841,1918
1813,1843,1859
1802,1831,1773
1754,1789,1791
1774,1806,1840
1846,1885,1914
1888,1920,1914
1840,1879,1879
1783,1830,1856
1780,1831,1833
1790,1840,1819
1817,1845,1872
1824,1840,1915
1809,1840,1858
1808,1856,1808
1810,1842,1856
1790,1817,1872
1808,1859,1883
1826,1888,1922
1799,1840,1831
1790,1819,1844
1808,1861,1903
1839,1885,1871
1831,1869,1857
1790,1835,1839
1785,1839,1801
1818,1870,1856
1808,1859,1890
1797,1846,1910
1811,1872,1866
1818,1875,1840
1784,1837,1872
1776,1808,1869
1778,1826,1792
1819,1865,1810
1839,1871,1858
1820,1850,1911
1809,1863,1865
1838,1893,1886
1801,1839,1907
1764,1807,1857
1815,1878,1861
1855,1909,1882
1805,1841,1886
1758,1783,1794
1806,1841,1818
1855,1895,1895
1831,1873,1874
1791,1823,1842
1801,1836,1840
1815,1857,1840
1821,1840,1861
1795,1830,1919
1791,1839,1873
1839,1877,1843
1853,1866,1853
1815,1827,1856
1808,1841,1839
1821,1861,1853
1834,1860,1901
1813,1831,1876
1821,1857,1894
1808,1845,1852
1817,1819,1829
1824,1828,1877
1810,1833,1815
1811,1851,1826
1807,1840,1861
1801,1822,1873
1833,1861,1883
1833,1870,1878
1791,1811,1865
1775,1779,1828
1843,1875,1826
1872,1906,1859
1839,1866,1901
1805,1826,1878
1812,1840,1866
1825,1855,1839
1831,1840,1865
1808,1820,1866
1807,1852,1853
1818,1858,1857
1826,1861,1884
1817,1842,1885
1794,1825,1831
1809,1856,1846
1818,1846,1918
1813,1830,1893
1819,1857,1837
1839,1883,1841
1807,1845,1904
1822,1851,1936
1811,1845,1839
1838,1862,1835
1826,1836,1879
1766,1771,1813
1808,1823,1839
1872,1893,1894
1854,1883,1919
1805,1826,1886
1808,1840,1839
1825,1846,1821
1792,1796,1828
1803,1808,1874
1844,1865,1872
1866,1898,1887
1837,1842,1855
1808,1819,1872
1808,1840,1875
1825,1849,1841
1823,1835,1839
1813,1829,1873
1827,1841,1899
1819,1845,1871
1786,1805,1853
1787,1805,1876
1815,1846,1890
1840,1861,1834
1833,1845,1851
1829,1845,1860
1835,1855,1833
1835,1862,1872
1814,1840,1922
1791,1806,1905
1781,1805,1808
1799,1823,1809
1823,1840,1867
1835,1840,1889
1839,1859,1855
1849,1879,1877
1811,1837,1894
1795,1803,1867
1809,1840,1826
1839,1862,1866
1827,1841,1869
1810,1819,1869
1795,1817,1847
1802,1818,1815
1805,1808,1860
1809,1821,1895
1806,1840,1861
1843,1887,1897
1817,1842,1886
1792,1803,1843
1810,1824,1809
1840,1856,1821
1821,1828,1855
1776,1783,1861
1780,1818,1865
1829,1868,1865
1838,1856,1872
1818,1840,1891
1807,1840,1868
1815,1845,1877
1809,1840,1905
1807,1812,1870
1822,1851,1847
1830,1846,1826
1792,1808,1840
1805,1813,1886
1814,1839,1842
1811,1840,1840
1801,1823,1845
1802,1820,1885
1798,1840,1904
1793,1838,1835
1802,1831,1861
1811,1830,1875
1810,1840,1831
1831,1867,1856
1789,1821,1883
1744,1761,1840
1791,1815,1808
1850,1866,1840
1836,1853,1858
1818,1845,1909
1802,1841,1887
1810,1845,1841
1803,1829,1858
1778,1799,1870
1805,1856,1865
1823,1873,1861
1790,1825,1841
1759,1778,1798
1789,1815,1822
1827,1865,1863
1830,1871,1943
1774,1797,1887
1778,1783,1826
1813,1842,1810
1814,1840,1847
1805,1823,1856
1808,1841,1846
1822,1867,1865
1805,1824,1885
1778,1783,1869
1785,1818,1845
1792,1818,1859
1796,1794,1861
1758,1767,1838
1794,1829,1835
1831,1872,1889
1811,1823,1889
1777,1793,1856
1817,1850,1869
1834,1866,1834
1782,1793,1826
1751,1751,1846
1780,1794,1823
1829,1851,1855
1840,1842,1899
1799,1808,1870
1802,1824,1860
1808,1830,1831
1795,1799,1831
1792,1796,1858
1798,1811,1842
1791,1801,1793
1810,1820,1853
1808,1810,1878
1808,1831,1871
1810,1834,1855
1811,1808,1873
1776,1775,1895
1771,1787,1859
1794,1803,1815
1790,1775,1831
1767,1748,1823
1810,1825,1851
1848,1872,1873
1815,1821,1872
1774,1776,1829
1776,1791,1819
1805,1821,1840
1815,1817,1883
1808,1803,1920
1813,1806,1867
1829,1835,1873
1797,1805,1870
1773,1767,1823
1814,1822,1854
1850,1854,1900
1800,1787,1856
1765,1754,1818
1808,1814,1849
1840,1841,1863
1821,1803,1856
1809,1793,1894
1831,1835,1898
1836,1840,1863
1819,1792,1875
1792,1759,1837
1810,1797,1827
1819,1812,1873
1796,1753,1825
1834,1782,1835
1854,1830,1869
1847,1827,1849
1813,1776,1840
1815,1775,1874
1841,1806,1869
1850,1831,1846
1840,1808,1861
1813,1779,1875
1823,1791,1875
1818,1776,1813
1839,1782,1855
1840,1786,1888
1829,1787,1862
1843,1802,1855
1865,1803,1871
1838,1776,1843
1834,1789,1838
1853,1817,1856
1851,1787,1835
1823,1751,1824
1821,1776,1836
1872,1834,1904
1872,1830,1891
1847,1791,1867
1839,1797,1850
1850,1807,1811
1845,1776,1820
1838,1766,1837
1840,1789,1843
1856,1799,1843
1859,1803,1882
1849,1782,1917
1855,1802,1869
1869,1817,1862
1834,1763,1827
1836,1769,1872
1872,1802,1841
1901,1823,1808
1872,1793,1829
1836,1759,1843
1856,1775,1840
1889,1824,1872
1882,1803,1861
1851,1767,1857
1876,1794,1839
1899,1837,1858
1879,1799,1872
1855,1776,1894
1873,1803,1893
1890,1800,1808
1879,1791,1842
1860,1761,1857
1877,1792,1861
1898,1808,1830
1883,1785,1841
1865,1764,1872
1879,1776,1821
1936,1840,1845
1929,1826,1892
1872,1776,1859
1866,1779,1824
1919,1827,1886
1914,1804,1892
1889,1767,1840
1886,1774,1813
1923,1830,1842
1917,1810,1860
1904,1788,1865
1905,1807,1854
1900,1805,1846
1882,1761,1840
1903,1771,1850
1936,1840,1889
1930,1842,1883
1899,1779,1858
1866,1729,1821
1905,1789,1785
1957,1842,1808
1934,1807,1893
1902,1765,1917
1891,1776,1820
1932,1813,1799
1936,1807,1849
1926,1793,1867
1904,1777,1797
1909,1781,1792
1933,1793,1872
1949,1803,1870
1965,1840,1831
1959,1857,1843
1926,1806,1858
1914,1778,1870
1936,1809,1851
1953,1849,1879
1942,1815,1891
1915,1776,1821
1952,1831,1842
1965,1840,1817
1924,1786,1792
1911,1766,1833
1934,1799,1855
1959,1830,1842
1968,1820,1856
1954,1804,1863
1947,1808,1840
1967,1840,1860
1965,1821,1867
1950,1790,1846
1967,1819,1827
1986,1846,1843
1965,1809,1835
1957,1817,1866
1958,1827,1835
1973,1851,1882
1968,1819,1850
1967,1808,1827
1984,1831,1819
1983,1850,1840
1936,1795,1872
1936,1794,1909
1968,1813,1818
2002,1859,1809
2000,1856,1876
1965,1810,1846
1972,1823,1824
1987,1833,1817
1997,1834,1873
2000,1828,1898
2013,1856,1872
2007,1863,1856
1967,1814,1824
1949,1792,1839
1997,1843,1861
2023,1867,1865
1991,1822,1853
1968,1793,1835
1981,1819,1831
2008,1861,1863
2014,1855,1875
2000,1830,1872
2000,1844,1872
2027,1872,1899
2010,1843,1869
2000,1831,1833
2000,1844,1835
1994,1840,1843
2000,1840,1879
2021,1856,1900
2015,1859,1869
2025,1871,1870
2032,1865,1895
2000,1830,1894
2001,1843,1884
2013,1837,1808
2018,1840,1814
2032,1856,1872
2058,1885,1921
2047,1899,1897
2004,1831,1867
1963,1777,1827
2031,1862,1855
2086,1908,1936
2039,1872,1936
1997,1824,1892
2005,1825,1803
2037,1857,1814
2064,1870,1900
2032,1855,1936
2030,1862,1872
2039,1870,1850
2033,1850,1886
2032,1844,1890
2078,1884,1888
2086,1904,1913
2041,1849,1875
1988,1801,1845
2000,1836,1841
2044,1869,1846
2054,1869,1863
2033,1854,1888
2054,1893,1935
2063,1905,1898
2019,1840,1822
2000,1808,1830
2057,1878,1904
2074,1906,1914
2038,1863,1873
2032,1855,1889
2043,1873,1878
2045,1874,1877
2035,1863,1901
2021,1840,1861
2037,1859,1839
2064,1897,1883
2015,1853,1890
2027,1846,1903
2065,1881,1891
2082,1904,1898
2047,1879,1897
2018,1845,1855
2020,1851,1837
2063,1887,1869
2032,1865,1891
1990,1808,1889
2021,1843,1872
2076,1904,1872
2054,1867,1872
2023,1850,1890
2047,1895,1917
2059,1904,1922
2018,1850,1855
2002,1831,1897
2032,1872,1898
2059,1891,1825
2047,1872,1853
2023,1843,1888
2039,1883,1904
2066,1907,1901
2041,1867,1861
2016,1849,1853
2055,1899,1872
2064,1915,1891
2039,1877,1903
2009,1847,1907
2022,1858,1870
2039,1883,1856
2029,1858,1872
2026,1847,1894
2034,1872,1862
2035,1863,1855
2054,1879,1875
2038,1870,1887
2022,1879,1887
2032,1897,1897
2035,1872,1862
2017,1851,1877
2031,1887,1914
2031,1875,1858
2000,1827,1811
2013,1863,1873
2042,1904,1885
2069,1926,1880
2035,1878,1862
2000,1846,1871
2029,1897,1942
2055,1904,1927
2028,1858,1842
2000,1820,1803
2027,1858,1820
2059,1907,1861
2032,1876,1893
2005,1852,1874
2008,1863,1872
2029,1882,1866
2043,1884,1915
2025,1856,1923
2012,1858,1835
2045,1892,1856
2038,1867,1892
2001,1831,1914
2014,1855,1911
2033,1879,1877
2033,1873,1888
2042,1883,1909
2035,1885,1884
2047,1905,1923
2032,1878,1920
2010,1856,1932
2011,1842,1858
2036,1882,1862
2038,1878,1889
2009,1855,1906
2018,1872,1887
2044,1895,1906
2027,1875,1961
2005,1834,1897
2019,1866,1860
2046,1908,1923
2032,1879,1921
2000,1828,1856
2016,1856,1872
2034,1897,1883
2017,1882,1930
1999,1847,1911
2023,1879,1872
2042,1902,1894
2011,1861,1900
2009,1856,1925
2035,1882,1893
2057,1908,1904
2031,1863,1886
1989,1822,1863
2000,1855,1869
2033,1883,1904
2027,1874,1936
2000,1836,1899
1994,1842,1829
2064,1913,1883
2073,1907,1910
2012,1863,1907
2016,1872,1863
2057,1906,1895
2026,1865,1881
1994,1826,1872
2005,1867,1890
2043,1917,1895
2039,1901,1922
2000,1854,1942
1962,1813,1835
2006,1863,1826
2044,1878,1878
2027,1867,1923
2012,1861,1924
2011,1873,1936
2006,1863,1925
2006,1841,1936
2012,1872,1962
2013,1881,1980
1984,1850,1961
1968,1815,1904
2000,1871,1947
2015,1879,1956
1989,1840,1920
1984,1849,1962
2011,1890,2000
2031,1902,1998
1993,1849,1963
1948,1797,1920
1939,1799,1904
2022,1903,1984
2056,1913,2031
1988,1842,1959
1967,1843,1961
1981,1873,1967
1981,1853,1947
1987,1855,1990
1984,1871,1998
1969,1850,1919
1968,1840,1901
1968,1835,1955
1973,1859,1972
1982,1883,1970
1985,1868,1962
1961,1847,1979
1937,1840,1955
1957,1850,1911
1968,1850,1955
1967,1842,1971
1983,1868,1945
1973,1877,1936
1945,1838,1935
1939,1824,1955
1968,1872,1983
1950,1860,1921
1923,1818,1936
1949,1849,1920
1971,1889,1919
1956,1873,1911
1933,1840,1925
1917,1818,1950
1941,1856,1968
1946,1863,1951
1932,1849,1951
1923,1839,1974
1946,1868,1972
1965,1898,1942
1909,1829,1899
1872,1782,1892
1905,1839,1899
1967,1899,1943
1951,1875,1978
1909,1839,1993
1904,1843,1937
1919,1861,1927
1915,1837,1934
1911,1846,1969
1906,1848,1933
1907,1845,1905
1890,1810,1904
1871,1795,1927
1919,1862,1938
1938,1900,1943
1925,1877,1978
1910,1851,1984
1903,1843,1925
1920,1873,1969
1893,1840,1951
1863,1799,1937
1888,1840,1971
1901,1853,1913
1886,1828,1948
1876,1819,1983
1871,1819,1942
1905,1870,1966
1921,1877,2018
1915,1860,2046
1907,1871,2032
1891,1863,1995
1878,1846,2000
1868,1823,1968
1875,1845,1989
1887,1845,1987
1855,1808,2000
1821,1783,2001
1869,1856,2025
1883,1871,2013
1867,1845,2042
1859,1830,2038
1886,1872,2067
1885,1872,2064
1843,1817,2073
1825,1793,2042
1861,1835,2066
1877,1868,2064
1879,1859,2068
1831,1805,2045
1826,1807,2032
1866,1859,2061
1895,1890,2144
1859,1838,2113
1840,1826,2038
1872,1871,2065
1871,1852,2097
1837,1815,2116
1823,1814,2044
1869,1857,2022
1869,1854,2085
1834,1811,2091
1826,1822,2064
1842,1840,2038
1839,1823,2073
1828,1815,2095
1824,1838,2081
1840,1842,2064
1846,1847,2082
1844,1841,2113
1842,1843,2069
1839,1841,1999
1831,1828,2032
1808,1808,2077
1807,1805,2011
1824,1838,1999
1830,1844,2064
1821,1829,2070
1830,1843,2032
1862,1885,2035
1861,1871,2086
1805,1819,2063
1776,1802,1967
1803,1822,1965
1839,1845,2016
1840,1839,2064
1814,1825,1985
1809,1830,1968
1819,1827,1990
1812,1819,2009
1806,1828,1995
1819,1840,1959
1808,1834,1995
1805,1820,2000
1801,1823,1936
1830,1852,1936
1831,1845,1984
1810,1821,2000
1798,1822,1957
1807,1840,1935
1808,1828,1951
1821,1831,1971
1827,1856,1936
1818,1854,1901
1804,1822,1934
1782,1802,1941
1794,1834,1947
1808,1851,1933
1789,1809,1919
1797,1818,1997
1811,1837,1961
1821,1849,1856
1791,1826,1865
1774,1797,1882
1790,1822,1887
1819,1846,1887
