1867,1839,1776
1866,1850,1809
1881,1873,1808
1882,1859,1794
1871,1837,1797
1875,1851,1797
1890,1875,1815
1885,1862,1808
1869,1842,1802
1872,1854,1798
1880,1873,1799
1872,1868,1794
1866,1855,1808
1872,1872,1835
1884,1887,1833
1881,1868,1813
1859,1845,1808
1861,1865,1819
1877,1891,1825
1881,1881,1830
1863,1866,1835
1867,1870,1830
1879,1882,1813
1877,1879,1831
1859,1858,1831
1863,1861,1805
1883,1875,1815
1872,1869,1826
1855,1850,1825
1855,1865,1828
1873,1871,1813
1872,1867,1811
1867,1844,1815
1872,1856,1811
1881,1875,1809
1876,1865,1808
1867,1840,1819
1865,1853,1798
1878,1865,1795
1872,1845,1802
1872,1799,1785
1867,1851,1809
1874,1875,1817
1874,1857,1808
1855,1845,1808
1856,1853,1808
1879,1872,1808
1886,1842,1805
1867,1830,1796
1875,1827,1791
1877,1890,1814
1868,1856,1797
1863,1823,1792
1870,1875,1835
1883,1877,1821
1877,1854,1768
1853,1839,1799
1856,1856,1811
1870,1895,1822
1894,1839,1767
1865,1872,1776
1843,1899,1826
1862,1923,1855
1863,1888,1839
1854,1862,1805
1862,1873,1798
1897,1907,1823
1887,1895,1803
1862,1872,1795
1861,1891,1806
1883,1915,1808
1883,1904,1823
1873,1888,1831
1872,1875,1829
1894,1905,1826
1884,1914,1824
1858,1885,1799
1883,1868,1805
1878,1927,1842
1873,1936,1843
1875,1905,1840
1870,1888,1839
1870,1936,1865
1870,1935,1856
1869,1917,1841
1867,1911,1835
1882,1936,1840
1873,1936,1840
1857,1901,1835
1857,1901,1810
1872,1954,1826
1872,1957,1842
1859,1931,1846
1863,1938,1846
1883,1963,1854
1884,1955,1854
1856,1929,1831
1870,1943,1840
1879,1965,1851
1873,1968,1847
1870,1951,1854
1863,1927,1834
1881,1887,1803
1863,1962,1853
1845,1954,1861
1845,1959,1857
1869,1968,1852
1872,1935,1847
1852,1933,1859
1859,1955,1870
1872,1963,1852
1870,1954,1859
1858,1938,1872
1859,1950,1860
1878,1975,1865
1881,1970,1888
1854,1934,1855
1856,1936,1842
1870,1959,1858
1863,1956,1866
1847,1930,1869
1859,1938,1876
1872,1959,1879
1866,1936,1857
1847,1911,1850
1847,1935,1856
1862,1951,1875
1861,1943,1879
1847,1926,1879
1851,1929,1877
1866,1952,1882
1859,1936,1872
1857,1882,1838
1841,1940,1883
1855,1967,1889
1855,1947,1891
1845,1895,1859
1843,1919,1872
1857,1937,1872
1858,1964,1903
1841,1931,1884
1839,1927,1872
1850,1938,1877
1851,1934,1872
1838,1914,1881
1846,1925,1884
1852,1929,1872
1852,1920,1871
1828,1907,1879
1840,1904,1883
1856,1884,1852
1840,1931,1894
1826,1931,1905
1831,1920,1891
1843,1925,1882
1841,1892,1875
1837,1904,1891
1830,1918,1897
1850,1931,1891
1845,1920,1891
1838,1877,1872
1846,1901,1888
1856,1930,1902
1851,1904,1895
1828,1872,1885
1840,1893,1867
1846,1933,1886
1844,1905,1882
1842,1850,1845
1837,1908,1890
1838,1939,1904
1839,1911,1915
1820,1855,1874
1825,1891,1879
1842,1918,1884
1843,1897,1886
1834,1846,1871
1827,1899,1879
1837,1924,1879
1847,1907,1891
1844,1885,1896
1825,1885,1879
1842,1900,1874
1837,1894,1882
1823,1866,1889
1830,1825,1841
1833,1893,1886
1825,1907,1906
1811,1887,1906
1819,1875,1887
1840,1888,1883
1831,1886,1872
1822,1868,1889
1827,1872,1911
1838,1880,1899
1839,1875,1879
1815,1831,1866
1817,1853,1872
1827,1887,1885
1823,1889,1891
1814,1854,1885
1831,1853,1887
1842,1885,1894
1835,1879,1889
1811,1856,1879
1827,1854,1891
1842,1802,1823
1829,1872,1881
1808,1894,1903
1808,1879,1881
1821,1883,1889
1824,1867,1886
1810,1849,1882
1819,1851,1888
1827,1867,1886
1826,1858,1889
1815,1842,1883
1812,1857,1884
1823,1870,1884
1819,1860,1877
1808,1850,1885
1818,1859,1879
1829,1856,1867
1827,1865,1885
1817,1840,1876
1809,1837,1871
1829,1790,1842
1826,1810,1884
1804,1860,1895
1808,1885,1884
1810,1898,1886
1818,1872,1876
1813,1849,1879
1823,1847,1878
1835,1866,1891
1827,1851,1875
1817,1831,1861
1815,1840,1867
1823,1856,1863
1831,1840,1863
1818,1827,1870
1811,1841,1873
1825,1854,1883
1815,1841,1871
1808,1826,1861
1808,1836,1863
1823,1856,1877
1818,1835,1861
1809,1776,1827
1811,1834,1883
1827,1859,1905
1819,1850,1874
1803,1831,1855
1808,1837,1858
1825,1841,1879
1824,1840,1875
1805,1822,1859
1809,1822,1852
1825,1840,1853
1831,1833,1856
1818,1811,1872
1814,1815,1870
1825,1837,1872
1818,1829,1854
1808,1810,1844
1815,1817,1847
1818,1833,1861
1819,1824,1863
1809,1808,1841
1813,1817,1846
1824,1837,1861
1807,1840,1867
1808,1808,1858
1808,1821,1863
1826,1839,1863
1829,1795,1840
1821,1788,1856
1810,1838,1882
1823,1846,1876
1822,1831,1858
1810,1779,1826
1814,1821,1855
1822,1845,1859
1823,1836,1867
1813,1824,1887
1817,1824,1872
1823,1828,1850
1827,1819,1847
1818,1810,1856
1820,1821,1867
1822,1821,1840
1827,1824,1851
1815,1815,1858
1815,1812,1856
1822,1819,1842
1830,1751,1806
1823,1787,1851
1808,1843,1871
1819,1857,1875
1815,1838,1869
1808,1811,1846
1810,1815,1846
1827,1802,1842
1827,1834,1859
1818,1838,1861
1805,1841,1869
1821,1847,1853
1823,1822,1837
1809,1813,1844
1814,1834,1873
1829,1840,1857
1829,1831,1845
1820,1788,1825
1826,1771,1818
1818,1835,1855
1814,1822,1842
1795,1844,1856
1803,1855,1859
1823,1842,1867
1827,1795,1845
1815,1804,1840
1806,1827,1853
1819,1843,1868
1816,1831,1854
1808,1815,1849
1814,1828,1859
1827,1845,1856
1825,1825,1840
1808,1809,1846
1812,1809,1850
1817,1837,1856
1824,1830,1861
1813,1801,1842
1828,1774,1814
1822,1857,1876
1808,1849,1870
1796,1808,1843
1808,1816,1853
1824,1814,1855
1830,1829,1852
1819,1821,1847
1817,1829,1847
1819,1845,1857
1826,1840,1844
1810,1820,1847
1815,1823,1855
1827,1815,1840
1831,1780,1825
1818,1809,1857
1816,1851,1858
1830,1867,1863
1823,1836,1850
1809,1815,1845
1821,1817,1840
1834,1837,1854
1827,1808,1838
1823,1775,1811
1809,1835,1856
1818,1860,1863
1827,1847,1862
1818,1822,1844
1821,1823,1840
1831,1839,1840
1826,1827,1850
1814,1806,1838
1825,1813,1831
1822,1839,1843
1824,1834,1866
1822,1821,1854
1827,1822,1838
1831,1835,1849
1829,1822,1840
1825,1790,1831
1823,1785,1837
1837,1839,1854
1823,1851,1855
1819,1811,1843
1827,1787,1819
1829,1844,1851
1830,1850,1856
1821,1794,1840
1824,1811,1845
1834,1856,1858
1825,1841,1855
1813,1825,1862
1821,1829,1847
1827,1808,1825
1827,1795,1819
1815,1796,1826
1829,1803,1839
1826,1871,1872
1821,1862,1887
1811,1826,1855
1823,1811,1821
1833,1826,1834
1831,1822,1844
1813,1808,1840
1811,1813,1840
1833,1835,1846
1838,1829,1845
1825,1809,1841
1821,1810,1840
1840,1833,1851
1840,1826,1848
1824,1814,1837
1824,1813,1825
1840,1835,1854
1840,1827,1859
1824,1811,1847
1839,1821,1843
1839,1838,1856
1842,1799,1831
1826,1827,1849
1826,1839,1847
1835,1841,1855
1838,1823,1845
1834,1819,1847
1840,1826,1851
1851,1797,1806
1839,1808,1814
1814,1791,1830
1823,1830,1856
1839,1856,1863
1839,1841,1851
1835,1829,1867
1835,1824,1856
1834,1835,1837
1831,1834,1841
1823,1814,1845
1834,1823,1845
1843,1835,1849
1843,1829,1843
1824,1823,1842
1832,1824,1849
1847,1837,1851
1840,1838,1855
1827,1811,1838
1838,1821,1827
1853,1843,1840
1843,1834,1855
1826,1821,1843
1827,1828,1850
1844,1847,1857
1840,1840,1846
1827,1834,1840
1837,1831,1847
1840,1839,1839
1840,1827,1837
1823,1810,1842
1828,1826,1841
1838,1838,1847
1837,1834,1840
1822,1822,1840
1829,1826,1840
1845,1840,1839
1843,1838,1840
1828,1822,1840
1830,1823,1852
1841,1839,1834
1840,1837,1855
1837,1818,1857
1839,1835,1866
1842,1840,1854
1838,1827,1821
1824,1810,1826
1826,1825,1843
1846,1850,1856
1842,1835,1834
1838,1810,1838
1839,1817,1840
1846,1840,1849
1840,1830,1834
1831,1808,1829
1833,1822,1843
1843,1840,1841
1840,1837,1851
1833,1815,1843
1832,1814,1831
1843,1829,1831
1841,1834,1840
1830,1811,1846
1835,1808,1827
1854,1824,1828
1850,1814,1835
1818,1791,1824
1803,1774,1840
1836,1811,1856
1866,1841,1859
1855,1828,1851
1850,1825,1847
1855,1828,1841
1853,1829,1861
1824,1793,1852
1817,1797,1839
1831,1817,1829
1858,1837,1843
1849,1825,1851
1845,1821,1845
1856,1840,1840
1843,1825,1843
1833,1813,1842
1835,1824,1851
1852,1840,1833
1847,1820,1836
1830,1796,1841
1833,1808,1835
1862,1840,1840
1856,1840,1846
1841,1808,1834
1839,1801,1829
1857,1838,1840
1872,1851,1850
1859,1837,1846
1849,1825,1856
1854,1831,1846
1841,1814,1840
1834,1808,1843
1853,1831,1843
1879,1854,1856
1875,1852,1851
1846,1823,1850
1840,1827,1854
1852,1838,1844
1847,1826,1837
1844,1808,1829
1867,1833,1840
1881,1849,1862
1853,1819,1833
1808,1776,1825
1827,1801,1831
1882,1856,1859
1900,1863,1869
1869,1840,1866
1855,1823,1853
1856,1827,1835
1827,1802,1812
1811,1776,1820
1839,1807,1840
1877,1847,1850
1873,1843,1854
1856,1834,1855
1845,1831,1841
1847,1822,1825
1845,1812,1838
1852,1820,1840
1854,1822,1832
1871,1847,1841
1863,1831,1845
1843,1805,1830
1840,1809,1835
1866,1834,1851
1887,1845,1856
1865,1825,1854
1827,1806,1833
1837,1809,1830
1871,1829,1835
1886,1843,1858
1879,1840,1859
1871,1842,1849
1860,1826,1837
1840,1804,1826
1838,1815,1839
1865,1837,1841
1870,1840,1852
1846,1804,1836
1855,1809,1817
1866,1835,1827
1869,1825,1845
1856,1807,1842
1855,1818,1841
1865,1828,1831
1861,1819,1818
1845,1793,1822
1847,1806,1827
1857,1825,1813
1867,1829,1838
1846,1809,1835
1840,1807,1818
1856,1819,1821
1859,1813,1822
1840,1798,1814
1842,1809,1827
1857,1834,1841
1851,1819,1837
1840,1791,1831
1843,1809,1835
1865,1826,1842
1862,1819,1840
1843,1795,1834
1850,1802,1829
1860,1825,1837
1859,1827,1859
1834,1804,1842
1839,1808,1834
1854,1830,1831
1857,1825,1836
1840,1798,1831
1851,1803,1840
1862,1836,1840
1855,1830,1834
1840,1812,1840
1842,1817,1840
1855,1831,1846
1848,1831,1843
1839,1819,1847
1837,1823,1852
1842,1827,1829
1845,1825,1840
1833,1812,1863
1831,1809,1843
1842,1825,1824
1846,1835,1839
1837,1814,1838
1837,1822,1845
1852,1834,1841
1847,1839,1843
1840,1816,1847
1840,1825,1853
1854,1840,1846
1846,1827,1840
1824,1809,1838
1827,1809,1838
1840,1829,1843
1846,1835,1853
1835,1809,1839
1833,1822,1841
1844,1843,1840
1853,1843,1855
1833,1818,1860
1823,1808,1837
1835,1827,1815
1844,1833,1829
1833,1808,1838
1841,1821,1847
1851,1834,1840
1835,1808,1827
1797,1775,1818
1795,1776,1830
1850,1840,1862
1874,1871,1869
1859,1855,1856
1840,1840,1850
1827,1821,1835
1806,1793,1812
1791,1767,1829
1849,1839,1872
1904,1910,1904
1884,1872,1876
1842,1822,1825
1840,1834,1825
1853,1839,1828
1816,1810,1830
1840,1826,1862
1890,1872,1879
1892,1872,1865
1866,1847,1840
1841,1819,1845
1827,1811,1846
1840,1824,1850
1859,1842,1856
1840,1826,1857
1820,1812,1840
1830,1811,1833
1843,1825,1845
1861,1838,1850
1873,1867,1857
1865,1863,1854
1831,1819,1841
1856,1840,1871
1886,1869,1872
1908,1903,1872
1879,1874,1857
1830,1821,1840
1823,1824,1856
1870,1872,1887
1872,1872,1887
1846,1833,1842
1831,1821,1830
1830,1826,1831
1841,1826,1857
1839,1823,1863
1863,1855,1869
1863,1856,1851
1808,1803,1801
1774,1762,1853
1840,1840,1929
1895,1887,1834
1867,1862,1792
1803,1780,1792
1783,1776,1808
1850,1845,1846
1893,1863,1831
1881,1851,1846
1847,1833,1846
1844,1850,1843
1857,1857,1853
1833,1809,1796
1804,1781,1793
1803,1785,1773
1857,1856,1822
1903,1901,1921
1873,1869,1920
1856,1845,1847
1879,1867,1851
1893,1854,1905
1847,1814,1776
1840,1822,1735
1834,1811,1747
1843,1811,1829
1851,1837,1895
1815,1769,1739
1835,1794,1766
1901,1877,1852
1896,1877,1872
1874,1855,1842
1856,1847,1840
1871,1840,1878
1847,1814,1792
1861,1834,1783
1839,1799,1819
1801,1761,1803
1863,1851,1856
1931,1904,1834
1923,1889,1860
1872,1839,1859
1825,1794,1756
1856,1842,1787
1857,1851,1870
1823,1793,1886
1814,1758,1762
1889,1847,1722
1905,1873,1785
1898,1843,1839
1871,1847,1927
1857,1836,1825
1872,1835,1770
1858,1807,1787
1853,1805,1791
1879,1872,1860
1893,1867,1827
1892,1823,1870
1892,1798,1756
1822,1792,1689
1843,1838,1779
1872,1863,1955
1901,1812,1854
1856,1836,1744
1837,1821,1705
1807,1776,1713
1811,1779,1776
1869,1858,1870
1871,1840,1809
1895,1851,1911
1854,1810,1904
1810,1793,1662
1838,1791,1643
1866,1838,1819
1851,1811,1817
1829,1808,1744
1819,1786,1726
1840,1806,1776
1873,1841,1776
1858,1833,1765
1821,1798,1776
1777,1739,1763
1838,1803,1829
1910,1899,1799
1901,1883,1804
1851,1825,1806
1792,1754,1758
1807,1779,1738
1859,1841,1782
1869,1856,1803
1865,1872,1925
1827,1837,1774
1798,1783,1629
1808,1776,1747
1778,1751,1759
1870,1877,1825
1900,1919,1869
1805,1819,1837
1776,1775,1738
1780,1794,1705
1809,1825,1785
1806,1807,1797
1835,1837,1809
1844,1862,1827
1811,1808,1779
1789,1781,1789
1831,1837,1904
1846,1868,1834
1856,1868,1751
1827,1825,1817
1774,1761,1774
1800,1809,1776
1827,1869,1855
1795,1825,1822
1806,1823,1818
1780,1808,1779
1763,1776,1783
1790,1810,1854
1791,1823,1815
1803,1839,1801
1837,1861,1862
1830,1827,1863
1813,1826,1843
1835,1868,1792
1807,1838,1786
1787,1819,1847
1811,1840,1936
1809,1835,1854
1779,1797,1808
1741,1744,1787
1782,1778,1795
1858,1872,1863
1850,1878,1843
1803,1839,1861
1781,1831,1881
1822,1865,1858
1821,1859,1850
1765,1806,1895
1713,1743,1811
1744,1769,1775
1817,1847,1842
1842,1873,1926
1811,1835,1838
1818,1862,1869
1827,1857,1904
1819,1826,1853
1794,1830,1850
1808,1851,1843
1798,1833,1858
1767,1802,1931
1757,1786,1873
1827,1863,1823
1826,1851,1814
1807,1823,1855
1778,1791,1855
1783,1826,1842
1799,1835,1871
1767,1793,1876
1763,1791,1901
1799,1842,1862
1824,1840,1807
1789,1812,1819
1785,1817,1872
1794,1851,1887
1777,1831,1885
1769,1808,1850
1776,1823,1851
1825,1868,1866
1837,1862,1890
1792,1813,1895
1771,1799,1867
1759,1808,1851
1773,1814,1845
1797,1822,1835
1808,1827,1863
1827,1872,1936
1777,1820,1840
1715,1735,1783
1776,1794,1856
1852,1882,1921
1850,1893,1887
1813,1829,1843
1807,1821,1869
1793,1829,1820
1769,1810,1826
1766,1791,1874
1818,1844,1965
1840,1872,1883
1808,1840,1776
1777,1807,1834
1764,1788,1870
1795,1828,1903
1799,1839,1888
1818,1839,1913
1822,1844,1870
1825,1867,1852
1802,1852,1862
1771,1781,1869
1791,1796,1863
1829,1840,1859
1825,1863,1894
1781,1808,1885
1756,1776,1838
1813,1851,1843
1855,1886,1905
1802,1826,1888
1771,1801,1863
1817,1867,1935
1814,1854,1889
1781,1808,1869
1780,1798,1835
1808,1840,1854
1794,1815,1845
1779,1802,1915
1797,1814,1937
1822,1843,1878
1843,1878,1874
1805,1812,1818
1794,1808,1871
1799,1823,1872
1801,1836,1885
1792,1806,1876
1806,1818,1906
1838,1887,1971
1830,1869,1893
1790,1807,1776
1730,1755,1786
1750,1783,1840
1824,1855,1872
1851,1881,1930
1822,1856,1909
1804,1872,1916
1810,1863,1968
1784,1808,1872
1775,1780,1799
1802,1825,1810
1811,1841,1868
1802,1821,1879
1795,1822,1885
1826,1847,1875
1809,1839,1887
1806,1810,1874
1767,1804,1870
1802,1856,1906
1861,1889,1923
1824,1837,1908
1774,1776,1842
1816,1830,1799
1837,1840,1831
1823,1811,1878
1791,1791,1875
1803,1826,1876
1840,1872,1915
1833,1851,1926
1787,1805,1859
1810,1836,1859
1818,1851,1895
1808,1811,1872
1814,1811,1868
1834,1845,1839
1841,1856,1853
1819,1837,1907
1791,1808,1927
1783,1808,1871
1831,1843,1872
1834,1837,1911
1815,1835,1895
1830,1850,1881
1823,1815,1840
1824,1812,1858
1808,1818,1907
1821,1839,1905
1821,1833,1846
1803,1799,1870
1806,1808,1906
1845,1858,1917
1839,1857,1870
1808,1807,1840
1814,1820,1855
1828,1853,1861
1839,1862,1910
1815,1821,1922
1776,1786,1871
1840,1862,1889
1869,1904,1923
1831,1847,1894
1803,1778,1799
1796,1815,1863
1811,1837,1858
1818,1843,1883
1828,1843,1902
1838,1855,1861
1842,1856,1872
1808,1824,1872
1808,1808,1909
1815,1821,1909
1830,1851,1854
1838,1846,1861
1841,1849,1901
1840,1872,1939
1840,1851,1839
1823,1821,1840
1803,1802,1850
1825,1841,1895
1840,1850,1878
1827,1824,1872
1817,1808,1885
1840,1851,1909
1833,1850,1935
1803,1825,1913
1799,1809,1839
1837,1841,1819
1849,1872,1871
1856,1846,1904
1819,1826,1891
1817,1853,1911
1855,1866,1922
1835,1839,1867
1810,1812,1885
1812,1814,1849
1831,1834,1872
1837,1830,1904
1814,1819,1851
1853,1854,1853
1872,1878,1882
1845,1851,1920
1814,1821,1946
1827,1829,1889
1834,1837,1840
1810,1806,1856
1799,1779,1857
1840,1845,1890
1853,1857,1904
1834,1828,1918
1844,1841,1906
1853,1866,1840
1843,1859,1859
1820,1828,1897
1822,1825,1893
1832,1840,1847
1846,1867,1872
1830,1826,1893
1818,1811,1920
1838,1850,1886
1842,1871,1887
1828,1828,1877
1837,1825,1883
1857,1856,1871
1882,1892,1929
1846,1818,1873
1808,1808,1856
1836,1843,1872
1856,1856,1891
1815,1796,1840
1797,1782,1871
1829,1835,1894
1861,1872,1907
1833,1817,1872
1805,1794,1854
1834,1840,1845
1847,1856,1865
1840,1839,1894
1828,1823,1902
1875,1861,1871
1869,1859,1867
1837,1854,1926
1821,1808,1854
1827,1818,1854
1837,1830,1886
1836,1812,1875
1826,1812,1831
1856,1853,1869
1839,1830,1836
1825,1814,1872
1822,1806,1866
1864,1869,1879
1859,1857,1840
1853,1845,1885
1831,1829,1877
1829,1843,1877
1841,1857,1893
1842,1837,1862
1831,1812,1826
1836,1835,1842
1839,1849,1872
1817,1814,1858
1817,1807,1840
1846,1846,1875
1858,1847,1855
1835,1813,1865
1811,1812,1907
1838,1839,1882
1840,1833,1802
1822,1808,1798
1843,1835,1885
1854,1842,1873
1855,1840,1838
1827,1819,1872
1814,1807,1856
1843,1857,1840
1862,1883,1925
1817,1809,1839
1796,1778,1788
1856,1856,1835
1867,1865,1862
1839,1840,1877
1823,1815,1867
1813,1805,1819
1839,1818,1825
1859,1840,1872
1841,1824,1879
1857,1852,1858
1887,1888,1899
1840,1834,1877
1837,1820,1893
1836,1825,1829
1843,1837,1791
1846,1817,1840
1835,1821,1920
1824,1811,1830
1852,1834,1838
1843,1819,1843
1810,1808,1831
1805,1815,1820
1845,1838,1854
1889,1859,1904
1867,1850,1895
1849,1860,1875
1858,1872,1906
1811,1794,1827
1837,1786,1829
1853,1840,1865
1869,1872,1895
1839,1815,1840
1822,1801,1837
1846,1829,1822
1865,1859,1841
1854,1841,1866
1834,1815,1895
1841,1833,1856
1857,1846,1878
1859,1834,1894
1840,1808,1871
1840,1836,1806
1874,1867,1858
1842,1835,1914
1795,1796,1838
1815,1808,1785
1837,1824,1822
1872,1850,1904
1845,1840,1907
1852,1842,1867
1843,1849,1871
1823,1808,1867
1840,1833,1885
1851,1855,1854
1867,1851,1864
1841,1820,1895
1822,1813,1903
1859,1867,1883
1862,1862,1882
1834,1811,1845
1823,1786,1836
1846,1841,1872
1873,1875,1899
1840,1835,1870
1830,1816,1872
1835,1824,1872
1826,1834,1891
1813,1792,1889
1831,1809,1875
1872,1870,1927
1868,1865,1914
1831,1816,1877
1818,1803,1893
1822,1814,1866
1856,1858,1943
1838,1833,1927
1824,1795,1871
1831,1824,1834
1851,1853,1879
1833,1833,1952
1841,1830,2005
1842,1818,1875
1856,1846,1854
1834,1815,1876
1838,1808,1929
1862,1842,1904
1870,1863,1910
1835,1813,1911
1791,1776,1874
1827,1833,1881
1889,1886,1929
1870,1846,1931
1846,1830,1959
1856,1840,1948
1855,1840,1922
1808,1808,1907
1799,1776,1895
1836,1823,1896
1868,1858,1904
1853,1831,1904
1829,1814,1909
1835,1838,1945
1843,1850,1945
1808,1781,1856
1808,1787,1859
1854,1846,1890
1874,1886,1929
1856,1857,1949
1814,1801,1907
1820,1808,1904
1825,1809,1904
1834,1840,1936
1851,1856,1925
1862,1859,1887
1856,1855,1899
1840,1815,1894
1813,1803,1914
1831,1825,1873
1845,1845,1902
1835,1814,1902
1808,1787,1866
1817,1802,1865
1854,1840,1903
1856,1836,1933
1851,1835,1936
1852,1863,1904
1879,1879,1890
1856,1839,1879
1834,1815,1925
1841,1845,1919
1833,1834,1861
1804,1779,1840
1808,1783,1863
1867,1856,1921
1871,1851,1919
1845,1807,1879
1838,1808,1877
1861,1853,1899
1858,1838,1865
1847,1839,1901
1847,1825,1891
1839,1825,1843
1814,1808,1822
1821,1787,1868
1867,1835,1927
1872,1867,1895
1869,1854,1872
1842,1810,1899
1805,1781,1886
1820,1803,1904
1808,1788,1785
1830,1804,1797
1834,1823,1855
1872,1872,1904
1866,1868,1904
1815,1799,1843
1813,1807,1887
1863,1869,1953
1897,1904,1968
1850,1825,1808
1808,1793,1778
1809,1796,1808
1819,1804,1853
1831,1801,1878
1856,1828,1931
1872,1860,1918
1879,1872,1953
1823,1793,1836
1803,1767,1786
1823,1794,1801
1854,1838,1861
1856,1825,1894
1826,1810,1883
1861,1871,1930
1866,1856,1923
1825,1792,1870
1833,1814,1935
1840,1815,1805
1843,1831,1745
1840,1821,1808
1840,1803,1865
1849,1842,1913
1862,1847,1903
1840,1823,1907
1808,1792,1839
1854,1847,1835
1875,1857,1840
1850,1817,1889
1831,1805,1865
1852,1831,1805
1878,1858,1829
1850,1840,1909
1806,1803,1914
1818,1795,1807
1872,1855,1849
1850,1819,1863
1823,1792,1826
1840,1818,1819
1856,1840,1835
1830,1805,1849
1831,1833,1949
1850,1858,1877
1847,1842,1794
1828,1819,1808
1838,1823,1863
1859,1847,1866
1863,1852,1840
1840,1811,1853
1830,1808,1875
1835,1831,1843
1843,1843,1842
1840,1827,1855
1819,1806,1818
1826,1831,1839
1854,1861,1889
1854,1842,1840
1849,1840,1826
1850,1856,1817
1840,1842,1821
1836,1803,1841
1845,1839,1877
1876,1885,1869
1880,1896,1895
1840,1833,1847
1807,1805,1813
1838,1845,1841
1840,1845,1852
1838,1835,1823
1842,1839,1847
1850,1856,1840
1855,1858,1834
1817,1818,1824
1819,1805,1857
1826,1835,1833
1869,1872,1822
1856,1840,1856
1821,1811,1874
1834,1840,1859
1872,1871,1872
1842,1826,1827
1802,1793,1802
1821,1827,1837
1867,1859,1840
1835,1815,1816
1804,1788,1810
1823,1836,1865
1851,1859,1882
1854,1840,1827
1869,1858,1923
1850,1846,1829
1846,1839,1778
1824,1802,1810
1825,1820,1856
1860,1858,1856
1858,1851,1836
1840,1821,1830
1801,1801,1866
1823,1825,1837
1850,1849,1807
1870,1853,1856
1853,1840,1847
1853,1867,1838
1840,1856,1814
1807,1808,1819
1804,1802,1840
1835,1854,1849
1883,1878,1881
1834,1811,1862
1799,1776,1854
1834,1839,1873
1867,1869,1842
1823,1803,1778
1803,1776,1787
1856,1845,1840
1885,1879,1837
1861,1844,1855
1829,1808,1857
1831,1820,1819
1854,1861,1866
1840,1822,1866
1825,1787,1826
1872,1856,1899
1856,1853,1852
1823,1801,1782
1826,1815,1827
1865,1856,1878
1855,1843,1841
1831,1806,1794
1818,1792,1811
1866,1857,1865
1866,1859,1858
1807,1804,1808
1794,1790,1801
1821,1811,1827
1843,1841,1857
1847,1826,1872
1835,1814,1838
1846,1844,1847
1885,1903,1936
1852,1840,1861
1825,1798,1824
1829,1818,1783
1853,1854,1840
1846,1830,1872
1810,1791,1808
1826,1810,1755
1874,1871,1851
1858,1840,1855
1799,1776,1785
1799,1790,1782
1862,1859,1893
1863,1854,1883
1831,1822,1807
1835,1833,1794
1847,1840,1779
1831,1810,1822
1825,1819,1877
1839,1836,1854
1875,1885,1872
1855,1845,1866
1825,1803,1806
1827,1811,1785
1820,1808,1775
1794,1793,1790
1819,1831,1833
1859,1868,1861
1853,1862,1856
1842,1829,1839
1836,1825,1855
1833,1838,1830
1846,1851,1830
1843,1834,1853
1813,1798,1804
1844,1821,1783
1844,1843,1796
1811,1819,1839
1806,1808,1846
1851,1871,1885
1885,1892,1905
1851,1831,1824
1804,1783,1727
1840,1825,1782
1861,1851,1830
1839,1813,1838
1807,1793,1827
1837,1839,1836
1858,1841,1806
1818,1798,1808
1833,1819,1854
1850,1858,1903
1869,1872,1897
1840,1825,1807
1797,1776,1747
1811,1809,1754
1856,1855,1821
1847,1827,1851
1833,1806,1806
1842,1839,1797
1856,1851,1826
1841,1814,1823
1831,1810,1855
1857,1869,1895
1853,1858,1807
1830,1814,1786
1820,1808,1819
1822,1835,1819
1841,1856,1847
1815,1794,1809
1809,1795,1811
1846,1841,1826
1872,1867,1826
1853,1840,1840
1833,1811,1856
1841,1847,1831
1856,1872,1832
1856,1838,1856
1824,1786,1785
1826,1819,1774
1836,1835,1799
1827,1827,1834
1827,1817,1865
1863,1872,1854
1876,1878,1866
1838,1821,1822
1824,1811,1854
1822,1821,1819
1844,1830,1775
1835,1827,1804
1822,1811,1833
1850,1852,1838
1861,1854,1818
1835,1830,1837
1808,1808,1868
1850,1841,1867
1855,1857,1869
1840,1828,1824
1831,1826,1801
1840,1838,1797
1855,1871,1873
1840,1833,1824
1831,1814,1814
1840,1847,1824
1854,1851,1815
1851,1844,1873
1829,1814,1847
1825,1839,1841
1846,1845,1825
1851,1850,1858
1819,1793,1869
1827,1814,1799
1854,1853,1789
1861,1840,1837
1845,1827,1861
1851,1845,1834
1867,1872,1823
1854,1841,1839
1818,1794,1809
1826,1808,1809
1849,1840,1815
1853,1840,1871
1821,1792,1839
1821,1827,1806
1869,1870,1871
1873,1856,1926
1847,1808,1851
1839,1815,1777
1857,1845,1809
1865,1845,1938
1819,1797,1849
1846,1840,1840
1847,1830,1770
1839,1812,1821
1834,1808,1870
1840,1831,1822
1857,1845,1822
1822,1795,1803
1834,1807,1842
1847,1853,1866
1840,1831,1825
1805,1799,1788
1828,1822,1834
1881,1890,1903
1872,1885,1903
1826,1826,1861
1808,1802,1840
1871,1878,1937
1872,1872,1828
1840,1815,1775
1811,1786,1831
1822,1811,1867
1882,1863,1844
1878,1851,1882
1838,1823,1877
1828,1838,1812
1830,1833,1819
1849,1840,1885
1850,1827,1872
1843,1840,1808
1838,1840,1811
1827,1815,1857
1809,1785,1833
1849,1839,1835
1861,1857,1873
1855,1840,1866
1835,1814,1823
1842,1831,1829
1840,1840,1856
1845,1840,1883
1838,1824,1919
1827,1822,1803
1850,1851,1792
1840,1835,1843
1829,1811,1866
1861,1856,1887
1882,1882,1893
1843,1815,1838
1813,1785,1795
1856,1852,1838
1888,1897,1908
1866,1853,1931
1823,1806,1854
1853,1845,1833
1851,1845,1806
1842,1823,1821
1833,1813,1870
1831,1824,1861
1856,1850,1891
1833,1809,1854
1837,1822,1858
1861,1871,1863
1847,1851,1847
1846,1824,1857
1840,1826,1914
1842,1840,1842
1874,1871,1791
1853,1839,1830
1827,1811,1872
1824,1827,1856
1823,1820,1850
1816,1791,1862
1828,1797,1857
1871,1866,1885
1867,1870,1834
1833,1815,1809
1824,1815,1870
1865,1863,1904
1893,1883,1875
1872,1848,1883
1812,1806,1821
1833,1835,1808
1838,1839,1839
1829,1799,1858
1822,1796,1892
1858,1861,1904
1882,1887,1926
