1837,1810,1843
1854,1839,1872
1872,1872,1872
1845,1839,1855
1817,1790,1821
1808,1798,1814
1860,1856,1824
1874,1872,1838
1846,1841,1871
1822,1815,1812
1840,1843,1827
1834,1823,1821
1803,1789,1823
1809,1810,1823
1840,1844,1827
1871,1859,1883
1856,1840,1888
1847,1845,1872
1835,1827,1826
1841,1825,1854
1837,1838,1877
1847,1853,1886
1872,1863,1839
1841,1826,1809
1803,1798,1809
1809,1819,1833
1856,1861,1898
1840,1821,1858
1792,1779,1813
1799,1801,1790
1887,1893,1859
1885,1873,1883
1834,1833,1904
1810,1819,1851
1849,1854,1791
1854,1845,1834
1829,1830,1919
1843,1847,1873
1845,1843,1797
1825,1818,1786
1811,1819,1841
1827,1840,1872
1840,1842,1839
1840,1830,1870
1823,1817,1879
1819,1814,1824
1852,1850,1840
1842,1839,1862
1808,1815,1866
1831,1843,1847
1851,1865,1858
1840,1841,1857
1802,1795,1839
1810,1824,1840
1856,1860,1906
1854,1849,1877
1807,1791,1790
1810,1810,1792
1853,1858,1843
1872,1875,1962
1849,1819,1895
1820,1813,1789
1815,1821,1794
1820,1809,1823
1836,1831,1859
1865,1862,1863
1863,1861,1840
1839,1839,1870
1808,1802,1870
1823,1815,1831
1843,1842,1819
1834,1829,1854
1802,1789,1841
1837,1833,1872
1859,1867,1865
1841,1838,1840
1817,1815,1882
1834,1829,1868
1843,1842,1823
1845,1837,1855
1840,1825,1872
1808,1808,1829
1861,1862,1842
1855,1839,1865
1819,1811,1840
1829,1833,1835
1855,1854,1842
1836,1822,1834
1793,1779,1847
1799,1796,1823
1839,1840,1840
1860,1846,1906
1845,1833,1873
1822,1831,1797
1846,1850,1827
1851,1842,1872
1852,1850,1980
1844,1842,1903
1822,1811,1751
1840,1835,1777
1841,1838,1867
1829,1815,1833
1860,1840,1840
1834,1829,1844
1810,1808,1835
1821,1818,1856
1840,1837,1851
1830,1811,1839
1830,1813,1873
1845,1840,1872
1853,1845,1839
1841,1847,1870
1831,1838,1877
1843,1857,1859
1856,1865,1814
1824,1811,1805
1801,1797,1840
1840,1839,1855
1860,1856,1856
1833,1830,1844
1818,1812,1843
1813,1814,1835
1842,1832,1808
1863,1840,1824
1819,1808,1851
1810,1811,1845
1861,1873,1872
1852,1852,1841
1839,1825,1844
1840,1827,1837
1856,1863,1872
1854,1851,1893
1822,1793,1830
1814,1815,1843
1837,1830,1777
1839,1811,1801
1835,1824,1895
1857,1851,1901
1862,1850,1822
1843,1843,1827
1820,1808,1842
1805,1806,1818
1815,1814,1806
1856,1840,1889
1849,1840,1927
1839,1809,1817
1849,1829,1804
1845,1822,1838
1830,1819,1855
1833,1825,1833
1843,1827,1814
1853,1837,1847
1830,1825,1850
1835,1839,1843
1857,1855,1855
1840,1823,1842
1826,1809,1852
1836,1838,1825
1886,1877,1874
1870,1865,1905
1821,1803,1826
1815,1805,1777
1844,1834,1820
1851,1831,1862
1813,1793,1857
1815,1791,1830
1863,1856,1867
1853,1821,1829
1797,1773,1826
1803,1802,1856
1865,1869,1906
1866,1856,1916
1826,1806,1834
1835,1805,1779
1835,1820,1808
1854,1841,1869
1857,1853,1936
1856,1854,1918
1855,1838,1855
1835,1817,1865
1817,1806,1905
1825,1814,1879
1844,1840,1862
1851,1835,1921
1842,1805,1904
1823,1816,1861
1842,1841,1847
1847,1814,1866
1846,1815,1910
1853,1845,1947
1857,1833,1854
1827,1815,1856
1808,1794,1904
1822,1807,1883
1842,1829,1872
1841,1837,1918
1843,1827,1968
1846,1836,1959
1839,1831,1910
1837,1828,1951
1818,1803,1918
1847,1833,1904
1872,1857,1934
1866,1847,1968
1824,1796,1952
1835,1822,1968
1841,1840,1974
1809,1808,1967
1804,1780,1953
1856,1831,2017
1876,1854,1998
1843,1818,1982
1829,1808,1986
1838,1831,1993
1856,1855,2019
1846,1841,2038
1808,1791,2015
1819,1815,2019
1850,1840,2021
1866,1847,2100
1825,1820,2097
1809,1813,2026
1839,1833,2002
1847,1819,2007
1852,1835,2057
1848,1853,2070
1858,1861,2061
1855,1838,2057
1822,1812,2069
1823,1824,2062
1849,1840,2032
1835,1813,2059
1817,1803,2057
1854,1850,2084
1869,1856,2069
1833,1814,2025
1806,1797,2015
1802,1805,2041
1837,1840,2032
1875,1861,2060
1841,1830,2047
1856,1862,2038
1856,1860,2029
1824,1808,2029
1812,1791,2006
1840,1837,2025
1881,1879,2064
1863,1850,2080
1825,1807,2018
1823,1826,2000
1841,1836,1978
1840,1830,1982
1829,1808,2000
1856,1847,2047
1856,1847,2026
1831,1814,1968
1811,1808,1970
1847,1845,2007
1852,1831,1992
1808,1792,1977
1825,1827,2004
1859,1863,2007
1872,1888,2015
1843,1840,1973
1814,1797,1954
1805,1810,1937
1831,1836,1943
1841,1827,1963
1845,1840,2041
1857,1824,1950
1840,1824,1899
1819,1819,1906
1820,1811,1942
1843,1827,1947
1861,1845,1941
1856,1843,1955
1835,1836,1999
1838,1842,1982
1861,1858,1899
1835,1829,1879
1819,1837,1967
1841,1846,1966
1875,1872,1915
1850,1835,1870
1817,1803,1879
1815,1813,1899
1870,1872,1919
1867,1871,1930
1824,1819,1909
1806,1798,1898
1827,1823,1859
1835,1833,1888
1823,1840,1929
1847,1855,1882
1891,1874,1885
1847,1845,1904
1813,1810,1886
1810,1811,1823
1829,1821,1827
1840,1835,1898
1821,1810,1915
1842,1846,1935
1860,1858,1874
1837,1830,1840
1792,1789,1808
1809,1829,1855
1868,1873,1878
1863,1855,1895
1829,1831,1910
1818,1815,1826
1841,1847,1800
1854,1840,1846
1834,1818,1895
1819,1830,1887
1823,1839,1830
1804,1804,1821
1792,1777,1855
1849,1851,1918
1875,1876,1853
1841,1854,1850
1809,1808,1813
1819,1833,1826
1843,1847,1835
1827,1826,1872
1808,1782,1819
1840,1824,1808
1859,1841,1813
1837,1818,1841
1828,1811,1845
1839,1843,1856
1857,1856,1847
1813,1808,1813
1783,1773,1793
1838,1834,1844
1866,1862,1843
1840,1840,1851
1787,1791,1806
1809,1811,1807
1879,1884,1846
1856,1856,1825
1817,1808,1808
1813,1810,1808
1819,1808,1803
1823,1804,1807
1819,1803,1789
1840,1850,1840
1847,1849,1826
1833,1822,1831
1798,1806,1837
1833,1830,1803
1863,1854,1782
1849,1840,1838
1813,1803,1843
1829,1808,1776
1849,1847,1778
1841,1858,1847
1792,1791,1808
1803,1798,1744
1838,1840,1732
1840,1821,1773
1810,1797,1806
1826,1840,1830
1865,1870,1829
1840,1833,1793
1835,1837,1824
1834,1854,1840
1837,1842,1811
1838,1828,1808
1808,1802,1779
1829,1827,1766
1847,1837,1791
1835,1826,1802
1826,1801,1767
1824,1831,1776
1845,1861,1789
1858,1855,1810
1827,1838,1823
1835,1850,1865
1842,1854,1805
1829,1814,1743
1823,1815,1814
1816,1824,1808
1822,1828,1757
1821,1808,1741
1842,1823,1787
1840,1827,1807
1841,1840,1792
1826,1828,1802
1840,1835,1821
1841,1857,1807
1850,1865,1767
1839,1838,1769
1819,1821,1806
1818,1825,1793
1855,1859,1802
1849,1844,1808
1823,1815,1821
1819,1813,1794
1808,1798,1730
1831,1808,1744
1831,1822,1791
1843,1850,1806
1856,1863,1794
1857,1869,1840
1835,1840,1885
1831,1822,1779
1825,1835,1721
1839,1837,1759
1810,1815,1808
1805,1819,1829
1849,1861,1776
1872,1857,1792
1862,1854,1839
1818,1835,1789
1826,1829,1747
1845,1828,1779
1822,1807,1808
1829,1843,1831
1872,1881,1823
1857,1861,1796
1803,1810,1792
1823,1840,1799
1871,1877,1790
1842,1840,1808
1808,1807,1825
1827,1836,1789
1840,1845,1760
1825,1822,1753
1817,1813,1798
1840,1841,1856
1874,1867,1792
1867,1860,1791
1831,1838,1812
1815,1838,1819
1846,1856,1791
1850,1840,1802
1831,1811,1801
1843,1841,1808
1862,1857,1789
1849,1833,1774
1825,1826,1810
1838,1841,1823
1839,1841,1808
1837,1822,1762
1817,1802,1754
1819,1823,1787
1862,1859,1824
1859,1853,1789
1827,1831,1815
1837,1840,1826
1855,1856,1802
1831,1820,1770
1820,1818,1810
1843,1853,1840
1853,1867,1801
1863,1840,1755
1807,1792,1760
1791,1810,1785
1837,1842,1823
1860,1853,1804
1846,1834,1821
1840,1840,1851
1854,1846,1808
1840,1814,1775
1824,1791,1791
1824,1810,1776
1863,1870,1806
1855,1852,1827
1837,1837,1865
1835,1840,1855
1829,1815,1760
1833,1808,1763
1810,1798,1808
1813,1808,1808
1839,1823,1769
1841,1828,1797
1844,1812,1808
1856,1841,1829
1875,1875,1823
1843,1840,1803
1808,1790,1789
1839,1809,1789
1891,1884,1834
1874,1863,1867
1832,1822,1903
1831,1835,1869
1840,1841,1761
1811,1794,1717
1792,1776,1743
1833,1833,1808
1865,1850,1812
1858,1828,1814
1840,1815,1830
1823,1823,1815
1829,1834,1827
1845,1839,1851
1854,1851,1872
1855,1856,1824
1855,1841,1782
1846,1817,1796
1833,1813,1848
1879,1863,1894
1875,1855,1863
1801,1809,1840
1787,1787,1788
1818,1810,1782
1863,1854,1815
1837,1824,1821
1793,1776,1765
1835,1825,1829
1879,1883,1936
1842,1847,1830
1791,1787,1754
1818,1809,1745
1872,1860,1808
1891,1866,1857
1859,1840,1856
1830,1822,1808
1819,1840,1849
1847,1851,1885
1845,1802,1777
1871,1825,1774
1855,1865,1808
1824,1853,1871
1792,1795,1872
1797,1808,1810
1851,1858,1794
1872,1870,1858
1831,1833,1877
1808,1803,1793
1839,1829,1754
1839,1822,1781
1831,1807,1839
1878,1851,1900
1886,1893,1916
1799,1799,1776
1799,1803,1774
1844,1849,1818
1859,1872,1862
1840,1841,1831
1815,1814,1840
1822,1808,1820
1850,1831,1808
1823,1808,1787
1802,1787,1794
1828,1831,1853
1869,1856,1808
1851,1830,1808
1835,1826,1837
1845,1840,1825
1880,1868,1850
1840,1855,1906
1749,1789,1879
1763,1791,1819
1844,1830,1743
1843,1811,1741
1831,1815,1812
1854,1856,1871
1872,1883,1904
1844,1823,1810
1808,1774,1783
1833,1807,1802
1860,1855,1835
1836,1829,1852
1819,1815,1875
1871,1872,1977
1858,1856,1811
1830,1805,1730
1841,1807,1819
1830,1822,1828
1823,1837,1814
1824,1833,1851
1813,1806,1846
1839,1840,1845
1846,1844,1823
1845,1841,1890
1825,1806,1837
1819,1799,1757
1845,1834,1787
1850,1842,1842
1828,1811,1840
1843,1837,1847
1878,1858,1869
1873,1854,1861
1811,1808,1820
1808,1813,1834
1875,1869,1879
1851,1832,1840
1806,1797,1837
1808,1809,1841
1824,1812,1803
1827,1808,1819
1809,1795,1833
1843,1841,1845
1881,1872,1837
1861,1853,1868
1810,1808,1866
1808,1818,1808
1842,1839,1840
1857,1847,1873
1835,1816,1871
1835,1829,1844
1829,1839,1796
1827,1834,1875
1797,1793,1856
1809,1803,1821
1857,1850,1861
1871,1872,1905
1849,1840,1884
1829,1823,1825
1825,1824,1797
1827,1811,1817
1841,1826,1906
1862,1847,1909
1871,1847,1840
1847,1819,1775
1822,1812,1821
1814,1815,1809
1849,1846,1837
1857,1839,1859
1822,1811,1845
1824,1831,1842
1867,1869,1873
1840,1833,1841
1811,1791,1834
1813,1806,1840
1851,1840,1817
1839,1829,1829
1831,1839,1875
1837,1850,1870
1856,1860,1856
1839,1824,1793
1829,1812,1829
1872,1836,1845
1856,1851,1847
1829,1829,1911
1810,1792,1840
1843,1840,1839
1855,1851,1824
1844,1843,1859
1811,1801,1840
1814,1802,1815
1852,1852,1865
1840,1831,1838
1826,1814,1808
1842,1840,1833
1858,1853,1861
1824,1813,1862
1793,1778,1813
1831,1821,1811
1852,1850,1823
1859,1845,1857
1847,1845,1892
1845,1840,1873
1849,1855,1835
1840,1814,1840
1813,1793,1815
1829,1806,1799
1856,1840,1823
1853,1841,1863
1824,1810,1855
1837,1840,1833
1850,1863,1866
1840,1840,1904
1840,1822,1872
1843,1839,1842
1854,1851,1834
1830,1821,1869
1802,1779,1877
1826,1814,1904
1875,1863,1956
1895,1856,1984
1845,1829,1968
1814,1825,1910
1840,1847,1921
1843,1843,1967
1837,1840,2003
1840,1843,2006
1856,1840,1966
1854,1824,1953
1826,1793,1929
1829,1806,1934
1850,1845,1953
1863,1847,2018
1839,1827,2018
1839,1834,1968
1849,1840,1923
1847,1840,1985
1822,1813,2006
1828,1808,1940
1866,1851,1947
1872,1855,1979
1831,1833,1990
1836,1822,1975
1850,1847,1982
1839,1826,2007
1790,1766,1913
1811,1807,1904
1870,1861,1979
1870,1849,1984
1829,1821,1985
1827,1824,1959
1839,1829,1941
1853,1831,1968
1838,1813,2000
1827,1823,1974
1844,1834,1918
1849,1826,1934
1835,1811,1962
1842,1835,1984
1889,1872,2017
1856,1847,1999
1833,1822,1999
1813,1797,1882
1825,1799,1836
1838,1808,1905
1846,1829,1975
1866,1859,2013
1843,1836,1936
1844,1825,1921
1851,1828,1965
1841,1835,1930
1851,1841,1877
1865,1849,1936
1816,1808,1943
1808,1815,1920
1839,1839,1920
1810,1792,1859
1813,1803,1877
1858,1849,1942
1872,1862,1920
1855,1839,1896
1824,1815,1918
1841,1842,1927
1855,1848,1910
1841,1829,1889
1850,1823,1926
1850,1841,1904
1847,1840,1865
1859,1841,1937
1830,1808,1905
1817,1808,1840
1815,1808,1825
1835,1802,1872
1855,1821,1941
1867,1861,1941
1867,1875,1898
1841,1812,1873
1806,1779,1898
1816,1805,1837
1861,1842,1840
1840,1817,1842
1819,1808,1878
1856,1843,1908
1891,1872,1927
1847,1839,1877
1810,1785,1830
1808,1795,1829
1837,1823,1859
1859,1850,1942
1840,1811,1889
1838,1824,1873
1861,1855,1872
1867,1841,1872
1820,1789,1831
1813,1791,1777
1863,1840,1824
1842,1827,1882
1837,1833,1903
1844,1842,1879
1867,1836,1817
1845,1815,1829
1828,1809,1900
1845,1840,1906
1851,1821,1813
1847,1813,1809
1825,1806,1855
1835,1830,1901
1863,1850,1872
1840,1809,1824
1794,1776,1820
1830,1822,1874
1871,1840,1870
1872,1840,1845
1845,1814,1808
1827,1811,1815
1861,1853,1885
1852,1827,1879
1835,1791,1843
1840,1821,1794
1851,1845,1828
1817,1827,1857
1811,1802,1861
1841,1829,1863
1857,1857,1838
1851,1827,1817
1822,1793,1809
1829,1823,1854
1867,1874,1914
1839,1841,1851
1795,1791,1764
1835,1829,1778
1867,1862,1840
1842,1838,1847
1838,1818,1827
1846,1844,1852
1861,1857,1840
1842,1818,1811
1823,1808,1846
1824,1813,1812
1830,1819,1820
1840,1802,1795
1840,1808,1831
1834,1837,1851
1841,1845,1813
1858,1855,1879
1824,1821,1843
1829,1819,1792
1838,1828,1763
1837,1821,1794
1859,1838,1847
1840,1845,1839
1840,1840,1808
1826,1808,1814
1820,1806,1834
1830,1831,1841
1849,1854,1845
1835,1815,1794
1821,1803,1798
1845,1848,1825
1855,1865,1841
1840,1842,1845
1827,1809,1839
1829,1811,1814
1843,1835,1809
1838,1813,1808
1826,1808,1827
1840,1814,1808
1835,1825,1793
1840,1819,1829
1851,1833,1846
1857,1847,1830
1872,1882,1872
1840,1840,1855
1814,1808,1819
1825,1815,1782
1863,1843,1773
1863,1839,1831
1858,1819,1872
1851,1840,1839
1829,1825,1762
1798,1804,1782
1794,1790,1842
1840,1830,1837
1875,1863,1796
1863,1839,1813
1809,1805,1842
1827,1830,1826
1861,1870,1837
1877,1870,1883
1836,1808,1810
1838,1833,1817
1859,1841,1796
1837,1809,1787
1815,1808,1840
1820,1813,1814
1860,1851,1826
1847,1841,1872
1828,1811,1838
1825,1821,1755
1840,1847,1750
1842,1838,1803
1826,1807,1827
1830,1835,1827
1842,1851,1845
1838,1833,1850
1819,1807,1808
1835,1821,1777
1871,1842,1790
1860,1835,1826
1796,1787,1840
1799,1797,1802
1878,1869,1825
1872,1857,1821
1827,1822,1822
1842,1837,1817
1865,1856,1872
1838,1824,1858
1815,1803,1791
1845,1836,1803
1840,1842,1795
1823,1814,1783
1808,1794,1815
1823,1815,1813
1872,1862,1840
1891,1858,1856
1840,1810,1858
1816,1824,1841
1840,1853,1857
1831,1808,1786
1806,1771,1730
1821,1798,1785
1871,1852,1814
1881,1857,1833
1847,1829,1851
1837,1820,1819
1851,1825,1811
1836,1815,1831
1843,1819,1852
1863,1847,1872
1871,1872,1902
1830,1797,1807
1799,1772,1759
1832,1812,1776
1839,1840,1806
1843,1852,1861
1837,1821,1856
1839,1829,1811
1850,1845,1829
1834,1828,1850
1813,1806,1834
1844,1840,1822
1872,1866,1845
1882,1857,1914
1837,1815,1859
1808,1794,1744
1835,1826,1769
1836,1808,1802
1819,1774,1794
1845,1822,1824
1874,1869,1853
1858,1847,1853
1828,1808,1861
1824,1809,1813
1840,1831,1795
1850,1825,1843
1840,1815,1895
1847,1840,1851
1861,1851,1815
1856,1837,1859
1826,1813,1865
1824,1815,1817
1835,1807,1749
1843,1823,1793
1842,1818,1837
1857,1855,1869
1875,1869,1840
1847,1836,1829
1808,1796,1829
1828,1818,1803
1857,1840,1808
1861,1846,1842
1823,1814,1850
1839,1835,1843
1857,1856,1844
1840,1813,1790
1795,1776,1767
1834,1834,1845
1863,1871,1889
1819,1792,1779
1803,1783,1773
1863,1855,1826
1856,1840,1814
1853,1846,1840
1840,1840,1865
1845,1843,1865
1856,1867,1840
1843,1837,1815
1818,1802,1831
1833,1840,1841
1855,1859,1824
1846,1836,1837
1824,1813,1825
1834,1827,1802
1808,1818,1773
1813,1814,1809
1840,1831,1841
1855,1847,1854
1877,1857,1840
1855,1827,1835
1834,1818,1867
1834,1833,1838
1849,1846,1817
1840,1823,1851
1830,1810,1841
1835,1825,1821
1863,1848,1840
1850,1840,1872
1827,1821,1871
1837,1827,1825
1843,1840,1821
1843,1833,1819
1833,1827,1854
1841,1835,1824
1857,1845,1840
1837,1811,1799
1838,1805,1820
1837,1834,1835
1871,1873,1844
1871,1872,1902
1831,1809,1810
1838,1821,1776
1866,1852,1797
1830,1819,1808
1815,1808,1840
1834,1842,1866
1847,1851,1839
1840,1840,1839
1819,1818,1843
1825,1824,1814
1838,1840,1817
1846,1823,1845
1844,1821,1859
1867,1861,1872
1878,1875,1865
1872,1856,1894
1821,1804,1837
1834,1822,1836
1854,1839,1826
1841,1799,1786
1822,1791,1811
1841,1842,1844
1876,1883,1906
1863,1845,1840
1819,1802,1793
1818,1821,1787
1859,1861,1836
1869,1840,1894
1852,1810,1871
1866,1866,1889
1862,1862,1791
1825,1829,1783
1808,1798,1809
1824,1818,1845
1842,1849,1840
1860,1852,1879
1840,1819,1859
1834,1820,1818
1851,1855,1828
1843,1841,1897
1818,1798,1857
1825,1825,1817
1840,1843,1813
1834,1834,1859
1841,1828,1871
1856,1851,1839
1879,1893,1873
1854,1846,1867
1803,1788,1799
1809,1791,1791
1842,1835,1841
1846,1845,1885
1830,1827,1879
1829,1833,1828
1839,1844,1837
1808,1807,1835
1806,1795,1840
1861,1858,1874
1870,1857,1809
1851,1834,1827
1825,1813,1856
1841,1839,1847
1851,1845,1823
1845,1840,1833
1847,1841,1872
1839,1853,1856
1851,1858,1847
1828,1825,1872
1807,1795,1823
1840,1837,1813
1879,1883,1878
1854,1861,1930
1823,1817,1831
1840,1831,1791
1856,1829,1804
1818,1795,1805
1808,1803,1831
1856,1862,1855
1863,1861,1849
1847,1827,1836
1815,1814,1838
1810,1819,1837
1837,1854,1875
1842,1841,1905
1827,1808,1829
1841,1837,1781
1878,1878,1865
1854,1845,1894
1827,1818,1859
1815,1810,1770
1836,1834,1778
1841,1829,1840
1825,1808,1843
1842,1840,1843
1859,1875,1882
1834,1826,1829
1821,1809,1824
1837,1840,1835
1841,1851,1838
1831,1838,1850
1808,1807,1843
1843,1855,1841
1859,1866,1827
1840,1828,1840
1818,1815,1842
1840,1853,1854
1840,1843,1827
1840,1841,1846
1847,1841,1877
1850,1859,1877
1846,1858,1890
1840,1834,1840
1827,1829,1883
1826,1831,1872
1845,1839,1812
1826,1815,1804
1812,1808,1822
1826,1834,1841
1853,1856,1838
1837,1826,1851
1825,1810,1866
1840,1847,1875
1888,1904,1921
1852,1851,1863
1807,1801,1808
1814,1837,1844
1844,1843,1841
1838,1827,1857
1808,1810,1861
1841,1855,1871
1869,1863,1840
1837,1829,1855
1804,1795,1848
1838,1847,1872
1856,1862,1883
1824,1805,1825
1825,1795,1807
1853,1847,1831
1883,1877,1874
1845,1843,1872
1808,1808,1855
1825,1834,1856
1856,1853,1840
1857,1842,1872
1833,1813,1856
1820,1820,1840
1847,1850,1851
1839,1836,1846
1834,1824,1906
1839,1837,1857
1866,1869,1828
1856,1852,1840
1820,1811,1834
1826,1840,1856
1845,1854,1849
1831,1840,1833
1814,1809,1855
1841,1840,1857
1881,1890,1886
1847,1837,1847
1799,1794,1830
1801,1809,1811
1845,1849,1845
1858,1847,1843
1850,1838,1876
1846,1846,1886
1856,1845,1841
1837,1817,1824
1835,1809,1847
1835,1834,1860
1856,1851,1838
1841,1823,1827
1808,1813,1835
1853,1857,1862
1879,1889,1894
1841,1838,1874
1808,1799,1822
1819,1815,1791
1826,1843,1818
1835,1825,1853
1856,1856,1917
1847,1845,1844
1840,1845,1778
1827,1830,1837
1798,1798,1843
1833,1826,1843
1877,1872,1851
1867,1881,1897
1818,1830,1871
1805,1814,1814
1853,1855,1856
1851,1834,1873
1822,1819,1851
1833,1840,1851
1872,1865,1857
1856,1834,1840
1823,1801,1809
1827,1839,1839
1865,1877,1904
1856,1849,1882
1825,1808,1827
1838,1828,1791
1835,1839,1797
1812,1808,1842
1819,1818,1918
1855,1852,1877
1875,1872,1840
1838,1831,1805
1797,1786,1808
1807,1808,1812
1855,1859,1840
1855,1855,1884
1831,1820,1872
1840,1842,1854
1845,1856,1849
1838,1836,1859
1824,1823,1860
1827,1819,1835
1823,1810,1792
1846,1841,1849
1850,1837,1867
1855,1847,1861
1852,1847,1847
1844,1839,1845
1827,1815,1850
1828,1829,1839
1853,1843,1843
1826,1824,1852
1810,1810,1843
1842,1851,1877
1869,1852,1831
1850,1818,1815
1808,1782,1819
1808,1812,1842
1839,1829,1827
1856,1835,1866
1841,1827,1884
1841,1842,1831
1849,1845,1833
1834,1823,1831
1822,1802,1822
1826,1808,1818
1871,1871,1857
1872,1863,1913
1808,1806,1854
1808,1807,1810
1871,1861,1858
1871,1867,1907
1831,1808,1841
1839,1838,1824
1860,1855,1859
1840,1823,1825
1820,1792,1825
1850,1837,1840
1855,1840,1812
1834,1809,1840
1821,1804,1872
1846,1824,1847
1860,1846,1825
1858,1835,1836
1821,1808,1872
1849,1851,1910
1875,1872,1890
1840,1815,1815
1813,1794,1858
1839,1824,1831
1862,1847,1799
1852,1832,1824
1823,1811,1855
1826,1811,1853
1845,1826,1845
1863,1840,1879
1847,1828,1875
1849,1846,1867
1854,1850,1870
1841,1824,1840
1843,1826,1889
1847,1826,1838
1851,1851,1825
1830,1821,1835
1837,1811,1869
1851,1842,1892
1851,1840,1833
1810,1792,1786
1807,1798,1815
1856,1855,1887
1872,1863,1872
1837,1820,1846
1821,1812,1865
1845,1839,1837
1864,1847,1808
1867,1844,1856
1836,1831,1872
1834,1850,1885
1857,1858,1893
1819,1805,1814
1808,1791,1821
1837,1818,1829
1867,1870,1871
1853,1851,1921
1808,1787,1803
1821,1798,1777
1869,1847,1853
1862,1839,1867
1840,1827,1875
1840,1839,1831
1879,1856,1838
1869,1850,1890
1825,1806,1886
1823,1807,1816
1853,1837,1817
1834,1805,1840
1813,1792,1875
1858,1845,1891
1908,1894,1914
1856,1828,1840
1814,1792,1806
1833,1824,1834
1854,1844,1856
1840,1814,1867
1827,1809,1878
1869,1851,1872
1860,1845,1840
1834,1813,1823
1815,1793,1826
1840,1836,1857
1872,1856,1880
1872,1849,1873
1856,1819,1844
1819,1805,1788
1834,1819,1807
1823,1796,1841
1846,1826,1872
1874,1872,1887
1869,1857,1840
1831,1813,1806
1824,1814,1825
1838,1834,1869
1871,1841,1863
1835,1821,1837
1810,1808,1847
1841,1845,1866
1869,1869,1874
1843,1817,1846
1802,1782,1868
1831,1814,1834
1859,1840,1806
1856,1840,1858
1840,1814,1862
1850,1840,1851
1856,1851,1853
1840,1835,1835
1825,1802,1857
1822,1808,1824
1866,1860,1836
1859,1840,1851
1837,1822,1855
1838,1840,1854
1859,1857,1863
1841,1825,1856
1829,1809,1851
1847,1829,1829
1867,1855,1839
1859,1836,1844
1840,1815,1856
1849,1840,1867
1863,1859,1897
1831,1825,1857
1807,1789,1839
1827,1818,1855
1873,1853,1856
1852,1828,1819
1823,1783,1782
1847,1827,1810
1866,1861,1863
1850,1840,1883
1831,1811,1865
1840,1831,1833
1852,1840,1813
1842,1814,1853
1826,1808,1875
1839,1846,1856
1854,1870,1862
1823,1814,1825
1804,1780,1815
1845,1841,1872
1883,1872,1872
1871,1853,1863
1825,1831,1907
1812,1811,1821
1840,1830,1787
1840,1828,1824
1818,1806,1827
1840,1834,1872
1863,1845,1851
1858,1815,1823
1823,1795,1825
1842,1827,1840
1858,1847,1853
1826,1807,1874
1798,1770,1811
1865,1831,1804
1881,1856,1837
1851,1840,1863
1827,1828,1854
1850,1853,1869
1855,1851,1867
1830,1808,1820
1821,1793,1821
1857,1843,1851
1874,1856,1858
1855,1825,1837
1821,1807,1843
1839,1832,1844
1853,1828,1823
1818,1796,1829
1829,1813,1871
1871,1858,1879
1881,1843,1827
1847,1807,1836
1811,1791,1873
1840,1835,1887
1873,1874,1893
1850,1820,1810
1849,1805,1814
1840,1822,1813
1839,1826,1825
1825,1811,1840
1835,1821,1867
1858,1852,1866
1875,1859,1841
1827,1802,1835
1805,1788,1841
1849,1845,1870
1881,1883,1891
1850,1854,1905
1808,1803,1835
1802,1806,1799
1831,1835,1854
1849,1840,1893
1837,1812,1827
1857,1846,1828
1862,1855,1837
1827,1807,1826
1824,1807,1842
1854,1862,1872
1877,1883,1911
1861,1856,1879
1833,1813,1794
1840,1826,1793
1859,1846,1835
1834,1809,1853
1810,1804,1858
1838,1840,1861
1840,1824,1808
1830,1809,1812
1827,1808,1844
1840,1833,1842
1867,1856,1843
1875,1859,1872
1863,1857,1919
1841,1842,1855
1840,1855,1833
1821,1829,1837
1823,1813,1856
1823,1822,1822
1827,1826,1808
1826,1803,1840
1838,1813,1872
1851,1840,1842
1853,1845,1834
1846,1822,1840
1830,1809,1840
1857,1850,1830
1871,1865,1838
1835,1823,1838
1821,1801,1856
1843,1835,1853
1870,1857,1854
1870,1841,1876
1866,1837,1951
1840,1814,1852
1834,1840,1798
1841,1843,1811
1835,1819,1829
1842,1839,1855
1839,1837,1847
1802,1801,1841
1809,1804,1856
1859,1855,1876
1893,1857,1840
1841,1840,1840
1805,1808,1870
1793,1787,1822
1827,1808,1791
1870,1870,1883
1844,1862,1942
1822,1833,1826
1833,1824,1765
1835,1782,1777
1826,1791,1839
1846,1861,1895
1886,1878,1872
1843,1842,1874
1792,1789,1829
1811,1808,1793
1852,1838,1830
1835,1808,1865
1834,1823,1945
1838,1819,1806
1858,1849,1777
1840,1826,1808
1825,1809,1850
1829,1817,1840
1841,1833,1833
1835,1811,1844
1830,1817,1856
1872,1868,1887
1878,1865,1872
1824,1811,1847
1802,1819,1911
1803,1791,1774
1811,1787,1744
1831,1816,1837
1831,1841,1883
1842,1853,1839
1856,1851,1808
1857,1834,1874
1826,1805,1850
1823,1818,1829
1822,1823,1827
1817,1819,1854
1827,1815,1875
1840,1831,1840
1851,1839,1805
1845,1834,1861
1823,1810,1866
1838,1834,1831
1847,1840,1842
1833,1802,1851
1819,1806,1855
1840,1840,1840
1862,1857,1831
1840,1827,1840
1841,1819,1865
1840,1840,1849
1852,1856,1834
1813,1817,1836
1800,1791,1847
1820,1813,1795
1851,1845,1808
1826,1818,1855
1807,1795,1830
1842,1840,1826
1856,1867,1841
1817,1808,1845
1818,1809,1857
1878,1886,1907
1891,1895,1876
1865,1879,1922
1808,1790,1830
1814,1813,1783
1857,1843,1782
1840,1815,1833
1811,1801,1857
1842,1844,1873
1862,1857,1838
1840,1824,1809
1813,1806,1846
1839,1824,1860
1863,1854,1856
1855,1850,1868
1842,1843,1887
1840,1840,1840
1841,1842,1819
1840,1837,1840
1836,1821,1858
1838,1834,1818
1845,1831,1808
1823,1814,1831
1821,1808,1856
1856,1859,1897
1870,1872,1918
1825,1815,1814
1817,1807,1789
1838,1840,1809
1851,1852,1829
1821,1835,1853
1803,1815,1877
1830,1833,1870
1855,1850,1843
1856,1847,1847
1829,1837,1890
1827,1840,1861
1843,1843,1831
1840,1835,1839
1840,1840,1874
1850,1850,1845
1853,1849,1828
1827,1814,1826
1808,1791,1841
