1843,1920,1872
1841,1981,1915
1845,2036,1925
1827,2023,1936
1820,1983,1906
1839,2015,1899
1838,2000,1934
1840,1969,1925
1841,2004,1926
1830,2007,1936
1844,1977,1936
1852,1995,1926
1831,1973,1919
1840,1967,1919
1838,1995,1931
1856,1956,1872
1821,1981,1922
1818,2015,1938
1851,1991,1933
1831,1969,1920
1815,1949,1919
1825,1935,1894
1854,1951,1895
1845,1995,1945
1833,1973,1904
1843,1946,1882
1845,1984,1936
1826,1967,1965
1818,1920,1879
1822,1926,1908
1839,1959,1933
1835,1939,1932
1808,1942,1925
1823,1951,1924
1839,1986,1933
1844,1938,1931
1855,1939,1921
1838,1903,1888
1840,1936,1928
1828,1975,1958
1827,2010,1939
1823,1915,1897
1840,1869,1903
1855,1877,1954
1808,1913,1938
1826,1872,1875
1831,1894,1935
1825,1927,1957
1825,1891,1920
1815,1920,1934
1837,1966,1957
1851,1929,1947
1840,1920,1936
1822,1912,1904
1824,1881,1883
1831,1895,1917
1821,1900,1936
1830,1892,1975
1825,1918,1967
1808,1913,1914
1808,1917,1906
1834,1936,1933
1846,1901,1946
1840,1813,1871
1810,1811,1907
1814,1898,1957
1834,1905,1953
1839,1895,1937
1840,1788,1894
1819,1847,1935
1827,1882,1939
1833,1921,1953
1831,1874,1951
1821,1806,1920
1823,1870,1920
1824,1931,1940
1813,1872,1938
1815,1897,1935
1840,1882,1930
1835,1856,1911
1836,1819,1920
1828,1762,1870
1847,1806,1911
1832,1897,1954
1803,1825,1910
1804,1855,1946
1829,1874,1939
1846,1850,1920
1814,1808,1923
1808,1851,1934
1830,1863,1936
1846,1855,1936
1827,1894,1968
1821,1858,1949
1840,1818,1886
1856,1821,1869
1837,1862,1936
1813,1794,1933
1821,1856,1936
1823,1861,1955
1845,1824,1915
1841,1769,1894
1819,1826,1923
1809,1831,1938
1791,1840,1939
1808,1840,1923
1834,1847,1921
1833,1851,1921
1824,1797,1897
1815,1806,1918
1823,1851,1939
1838,1853,1949
1842,1833,1926
1825,1862,1938
1818,1817,1927
1834,1776,1903
1826,1860,1905
1804,1818,1897
1817,1792,1915
1845,1772,1873
1836,1744,1871
1811,1815,1968
1823,1848,1963
1845,1830,1918
1819,1808,1901
1811,1830,1911
1840,1835,1917
1844,1837,1935
1817,1855,1935
1814,1803,1888
1858,1837,1874
1838,1834,1904
1795,1782,1906
1808,1786,1856
1815,1802,1906
1818,1797,1931
1811,1782,1918
1820,1798,1906
1843,1773,1871
1824,1840,1907
1807,1811,1905
1814,1808,1913
1837,1861,1920
1843,1840,1931
1829,1762,1886
1845,1798,1875
1822,1872,1867
1810,1840,1843
1810,1766,1878
1797,1807,1904
1811,1821,1905
1818,1792,1910
1814,1773,1875
1825,1805,1891
1840,1808,1872
1826,1776,1856
1808,1799,1875
1826,1796,1877
1843,1794,1875
1839,1844,1910
1825,1815,1860
1824,1809,1840
1875,1812,1840
1854,1856,1856
1797,1791,1885
1808,1787,1872
1831,1843,1863
1829,1789,1872
1821,1782,1874
1819,1808,1871
1839,1815,1838
1845,1783,1846
1822,1792,1868
1826,1806,1882
1856,1789,1829
1853,1774,1813
1813,1818,1870
1817,1840,1875
1829,1777,1885
1839,1775,1874
1808,1808,1837
1831,1790,1834
1837,1803,1872
1822,1810,1860
1834,1774,1843
1843,1833,1887
1826,1843,1897
1815,1769,1857
1818,1751,1813
1830,1751,1821
1837,1831,1886
1840,1847,1889
1824,1747,1824
1823,1792,1862
1846,1855,1875
1834,1850,1863
1815,1744,1835
1840,1765,1847
1858,1791,1854
1830,1799,1867
1801,1842,1878
1809,1827,1857
1840,1786,1861
1846,1809,1828
1808,1773,1842
1811,1799,1859
1827,1785,1867
1837,1802,1871
1826,1777,1852
1829,1752,1792
1823,1798,1840
1813,1815,1898
1817,1808,1861
1833,1840,1828
1843,1814,1861
1834,1808,1859
1839,1769,1817
1821,1749,1787
1814,1815,1860
1817,1839,1904
1835,1849,1858
1840,1776,1829
1826,1805,1851
1834,1840,1846
1840,1831,1840
1826,1793,1808
1836,1776,1820
1825,1776,1856
1815,1773,1842
1834,1766,1831
1828,1840,1869
1835,1887,1858
1853,1789,1845
1840,1746,1849
1825,1827,1867
1835,1839,1854
1833,1795,1800
1846,1855,1819
1829,1821,1840
1827,1813,1854
1822,1776,1828
1843,1827,1835
1846,1821,1853
1833,1815,1827
1824,1755,1789
1811,1798,1849
1846,1840,1827
1846,1776,1805
1839,1828,1871
1843,1811,1842
1831,1778,1817
1857,1838,1818
1833,1741,1818
1828,1779,1818
1846,1864,1827
1845,1857,1829
1808,1755,1807
1813,1804,1853
1824,1840,1840
1826,1799,1830
1829,1807,1831
1825,1799,1835
1842,1814,1826
1854,1824,1827
1835,1824,1833
1831,1808,1856
1847,1808,1832
1850,1862,1823
1840,1728,1797
1821,1799,1852
1860,1830,1865
1859,1918,1865
1834,1808,1817
1815,1780,1840
1819,1839,1871
1846,1791,1834
1842,1904,1828
1802,1799,1850
1815,1797,1824
1834,1769,1827
1835,1792,1844
1838,1777,1834
1860,1829,1837
1829,1842,1840
1814,1810,1826
1843,1803,1827
1855,1795,1817
1869,1843,1810
1819,1819,1846
1829,1844,1881
1842,1808,1859
1836,1815,1854
1814,1806,1831
1825,1812,1825
1853,1874,1819
1849,1806,1835
1852,1775,1841
1853,1845,1891
1843,1819,1835
1822,1815,1841
1843,1807,1840
1840,1827,1840
1859,1857,1839
1853,1788,1797
1821,1842,1856
1829,1814,1856
1861,1771,1815
1856,1802,1857
1837,1887,1872
1829,1830,1843
1835,1826,1843
1854,1791,1840
1840,1835,1843
1839,1846,1830
1833,1808,1861
1836,1807,1851
1853,1793,1823
1834,1824,1855
1826,1874,1885
1840,1865,1854
1830,1799,1840
1830,1823,1846
1841,1843,1853
1872,1802,1846
1838,1777,1813
1821,1819,1811
1872,1875,1818
1843,1840,1858
1808,1814,1872
1821,1808,1856
1842,1857,1840
1838,1885,1817
1826,1790,1827
1834,1811,1879
1845,1873,1894
1847,1861,1862
1829,1826,1839
1840,1836,1845
1870,1871,1856
1886,1813,1826
1809,1811,1842
1813,1840,1851
1856,1872,1856
1854,1838,1839
1831,1845,1857
1840,1808,1840
1855,1792,1825
1859,1795,1808
1850,1827,1814
1823,1872,1883
1812,1868,1927
1831,1875,1894
1825,1827,1833
1826,1803,1815
1853,1850,1840
1847,1853,1858
1856,1808,1837
1828,1842,1865
1836,1873,1865
1833,1831,1856
1835,1824,1851
1847,1840,1863
1846,1833,1827
1841,1856,1825
1826,1815,1837
1863,1783,1840
1847,1869,1872
1870,1926,1838
1806,1836,1866
1825,1807,1872
1851,1813,1840
1855,1885,1826
1835,1857,1840
1837,1840,1847
1841,1811,1862
1827,1793,1843
1823,1826,1841
1838,1855,1846
1856,1855,1858
1856,1844,1854
1858,1830,1800
1843,1902,1863
1836,1858,1903
1840,1872,1895
1825,1830,1843
1829,1835,1819
1840,1799,1803
1840,1819,1855
1849,1799,1872
1860,1861,1857
1869,1903,1872
1843,1857,1858
1820,1821,1840
1838,1840,1850
1884,1814,1792
1865,1828,1850
1798,1875,1898
1805,1874,1878
1856,1893,1866
1841,1909,1840
1804,1754,1819
1818,1790,1835
1851,1897,1858
1828,1830,1873
1815,1792,1863
1837,1819,1846
1860,1849,1856
1869,1783,1835
1830,1823,1834
1850,1793,1811
1854,1783,1809
1834,1875,1887
1821,1909,1890
1836,1857,1866
1846,1890,1856
1842,1853,1855
1826,1833,1915
1829,1818,1831
1872,1917,1801
1840,1836,1817
1803,1776,1843
1813,1807,1858
1840,1903,1851
1843,1836,1854
1827,1807,1854
1855,1776,1811
1863,1859,1856
1840,1822,1846
1819,1858,1856
1828,1872,1880
1854,1878,1819
1838,1834,1858
1833,1829,1863
1841,1825,1861
1854,1857,1875
1850,1885,1854
1827,1820,1841
1833,1825,1816
1855,1805,1856
1841,1826,1866
1855,1791,1825
1838,1829,1854
1834,1853,1872
1846,1806,1842
1834,1839,1867
1810,1851,1857
1840,1887,1857
1872,1871,1862
1837,1852,1847
1818,1845,1842
1835,1776,1815
1838,1822,1851
1814,1866,1872
1823,1882,1840
1839,1831,1845
1834,1809,1834
1835,1779,1790
1866,1790,1830
1827,1903,1905
1831,1883,1902
1853,1840,1854
1839,1843,1839
1833,1871,1851
1840,1907,1821
1828,1870,1827
1847,1878,1851
1847,1806,1842
1856,1801,1833
1840,1872,1806
1825,1809,1822
1830,1841,1877
1838,1842,1830
1838,1807,1831
1843,1855,1886
1857,1813,1907
1819,1856,1866
1809,1853,1808
1822,1866,1814
1834,1856,1824
1829,1855,1842
1834,1890,1835
1845,1858,1829
1839,1810,1840
1840,1814,1844
1830,1823,1834
1847,1868,1827
1882,1831,1780
1856,1845,1856
1801,1794,1845
1803,1807,1853
1863,1789,1815
1858,1821,1883
1804,1846,1846
1817,1858,1829
1841,1870,1851
1838,1856,1836
1839,1890,1851
1831,1817,1846
1851,1808,1841
1861,1815,1817
1835,1784,1809
1836,1850,1858
1879,1904,1835
1850,1838,1853
1807,1776,1857
1807,1815,1855
1849,1884,1881
1841,1850,1877
1830,1814,1826
1840,1798,1786
1863,1859,1831
1866,1885,1863
1810,1808,1850
1817,1811,1842
1840,1833,1825
1854,1789,1787
1816,1859,1853
1829,1911,1856
1850,1899,1842
1841,1829,1805
1833,1810,1776
1840,1858,1787
1866,1884,1789
1849,1840,1786
1827,1810,1776
1839,1815,1825
1857,1853,1840
1835,1864,1782
1831,1855,1748
1839,1858,1762
1834,1833,1778
1819,1815,1791
1808,1819,1789
1827,1843,1791
1851,1872,1755
1872,1777,1706
1815,1814,1797
1813,1867,1826
1844,1874,1793
1844,1878,1776
1841,1866,1781
1841,1842,1787
1857,1841,1782
1857,1813,1773
1840,1840,1783
1840,1870,1776
1843,1866,1787
1845,1851,1808
1840,1840,1778
1839,1839,1753
1853,1858,1787
1852,1857,1782
1836,1845,1761
1842,1861,1774
1859,1872,1780
1858,1872,1793
1843,1854,1790
1841,1853,1782
1866,1872,1797
1872,1859,1776
1862,1801,1731
1838,1905,1809
1835,1883,1825
1841,1847,1814
1838,1844,1803
1854,1862,1812
1865,1867,1792
1857,1858,1781
1840,1845,1777
1847,1862,1786
1862,1874,1794
1859,1874,1818
1856,1866,1825
1857,1869,1808
1866,1872,1806
1856,1860,1789
1851,1856,1793
1852,1870,1808
1867,1883,1808
1859,1867,1793
1849,1861,1798
1847,1867,1807
1851,1870,1799
1856,1867,1814
1843,1857,1828
1850,1863,1814
1889,1903,1826
1881,1895,1821
1861,1881,1830
1852,1874,1820
1859,1875,1807
1870,1885,1810
1858,1877,1820
1853,1875,1840
1851,1867,1810
1836,1843,1794
1850,1859,1828
1885,1894,1857
1874,1887,1855
1830,1840,1825
1792,1795,1781
1812,1808,1792
1892,1890,1854
1922,1918,1867
1906,1910,1865
1891,1904,1856
1877,1881,1840
1856,1852,1821
1841,1840,1824
1859,1866,1852
1877,1883,1854
1872,1861,1845
1834,1821,1814
1825,1818,1808
1868,1853,1840
1875,1855,1855
1856,1842,1841
1857,1853,1850
1861,1847,1831
1863,1845,1838
1855,1844,1842
1872,1861,1853
1905,1891,1856
1902,1887,1872
1871,1861,1867
1862,1853,1871
1883,1878,1871
1873,1860,1829
1861,1849,1841
1873,1862,1863
1887,1860,1856
1869,1845,1845
1852,1843,1869
1844,1829,1854
1856,1825,1828
1858,1827,1829
1860,1830,1839
1858,1834,1840
1856,1823,1830
1835,1795,1825
1831,1798,1822
1883,1841,1867
1881,1838,1841
1853,1813,1829
1812,1777,1828
1846,1813,1823
1924,1879,1841
1927,1872,1829
1889,1840,1850
1862,1821,1839
1853,1812,1834
1831,1792,1837
1846,1793,1827
1870,1811,1808
1904,1840,1813
1882,1838,1834
1859,1815,1872
1901,1826,1892
1917,1826,1817
1870,1840,1840
1821,1828,1859
1815,1809,1843
1827,1808,1854
1837,1799,1863
1808,1743,1755
1833,1773,1752
1881,1823,1813
1900,1845,1858
1861,1808,1841
1856,1809,1835
1871,1829,1856
1872,1830,1859
1846,1794,1821
1835,1787,1803
1873,1834,1847
1894,1826,1863
1847,1775,1815
1860,1798,1856
1841,1792,1793
1834,1776,1789
1807,1757,1799
1791,1728,1789
1777,1722,1776
1904,1858,1879
1907,1865,1875
1872,1831,1830
1858,1810,1837
1840,1775,1808
1851,1797,1849
1871,1808,1845
1897,1825,1841
1871,1811,1829
1825,1759,1812
1840,1776,1807
1865,1791,1777
1872,1799,1773
1843,1776,1783
1843,1778,1808
1904,1818,1824
1915,1822,1850
1833,1763,1779
1824,1774,1765
1890,1818,1777
1906,1814,1790
1858,1767,1803
1838,1765,1792
1854,1795,1775
1841,1781,1817
1829,1759,1754
1851,1793,1735
1889,1833,1770
1885,1822,1818
1840,1759,1758
1818,1750,1718
1857,1790,1743
1904,1808,1804
1872,1778,1811
1838,1763,1754
1868,1776,1743
1915,1807,1799
1842,1780,1851
1783,1728,1730
1860,1749,1627
1953,1808,1696
1915,1783,1776
1856,1776,1819
1809,1761,1757
1813,1744,1738
1863,1776,1741
1857,1775,1712
1865,1787,1757
1856,1768,1733
1847,1755,1715
1878,1779,1743
1908,1808,1776
1874,1776,1742
1827,1744,1744
1828,1747,1786
1920,1808,1776
1922,1807,1771
1853,1773,1762
1815,1747,1742
1858,1771,1730
1907,1789,1778
1897,1770,1794
1861,1745,1766
1811,1739,1700
1814,1754,1727
1845,1763,1785
1853,1744,1723
1856,1760,1697
1872,1783,1756
1841,1759,1847
1803,1742,1805
1847,1759,1707
1872,1762,1693
1819,1731,1746
1834,1763,1799
1905,1811,1847
1911,1817,1861
1854,1778,1840
1830,1743,1751
1843,1745,1713
1882,1810,1827
1847,1774,1788
1829,1733,1733
1867,1779,1750
1872,1793,1782
1833,1767,1831
1839,1791,1874
1859,1811,1873
1840,1759,1744
1789,1714,1714
1799,1737,1797
1870,1777,1859
1897,1815,1867
1856,1787,1840
1806,1755,1776
1815,1767,1772
1844,1777,1804
1835,1774,1853
1831,1776,1877
1843,1777,1872
1860,1774,1840
1861,1776,1872
1837,1779,1863
1808,1767,1766
1802,1747,1744
1813,1757,1864
1859,1793,1890
1875,1823,1833
1865,1821,1855
1818,1776,1872
1820,1793,1915
1840,1799,1843
1854,1775,1840
1810,1755,1825
1803,1776,1865
1831,1792,1890
1818,1772,1810
1842,1786,1911
1830,1773,1904
1813,1771,1803
1863,1815,1938
1822,1792,1939
1798,1785,1870
1834,1796,1808
1866,1808,1883
1825,1765,1856
1783,1759,1826
1832,1811,1858
1872,1837,1908
1897,1814,1954
1846,1808,1969
1855,1837,1960
1824,1822,1872
1763,1755,1781
1798,1755,1801
1865,1812,1925
1890,1846,2078
1763,1744,1847
1777,1787,1863
1855,1856,1902
1835,1803,1807
1810,1781,1858
1835,1818,1963
1839,1828,1934
1820,1776,1856
1808,1799,1936
1819,1815,1901
1838,1823,1861
1840,1818,1871
1841,1793,1985
1809,1791,1969
1808,1787,1806
1818,1808,1883
1812,1807,1947
1824,1808,1920
1863,1818,1895
1821,1791,1910
1765,1775,1950
1793,1807,1930
1852,1829,1859
1870,1857,1948
1808,1807,1937
1785,1760,1838
1837,1803,1856
1855,1826,1915
1841,1831,1996
1809,1825,2030
1841,1824,1939
1821,1780,1787
1793,1776,1829
1803,1803,1938
1830,1813,1918
1822,1813,1879
1823,1813,1934
1788,1810,1984
1818,1827,1936
1856,1870,1962
1835,1841,1924
1792,1795,1856
1813,1815,1843
1808,1808,1884
1810,1825,1977
1808,1834,1966
1858,1870,1941
1863,1870,1931
1794,1811,1874
1765,1823,1919
1799,1835,1927
1826,1824,1914
1808,1823,1919
1783,1819,1871
1817,1840,1877
1817,1840,1918
1798,1824,1995
1776,1811,1982
1779,1795,1834
1826,1827,1823
1847,1873,1942
1828,1862,1971
1827,1862,1952
1807,1822,1874
1776,1799,1852
1798,1836,1987
1812,1834,1955
1795,1797,1823
1797,1826,1874
1817,1856,1970
1823,1856,1907
1833,1856,1896
1796,1821,1933
1807,1818,1941
1854,1875,1995
1835,1861,1909
1776,1814,1830
1774,1818,1851
1826,1859,1907
1872,1879,1969
1837,1846,1967
1803,1838,1933
1823,1856,1886
1832,1855,1901
1808,1827,1927
1798,1839,1922
1823,1871,1947
1831,1865,1899
1801,1834,1872
1792,1823,1904
1826,1851,1936
1840,1855,1923
1799,1856,2006
1790,1837,1949
1827,1847,1843
1839,1821,1792
1786,1786,1865
1803,1834,1954
1857,1866,1891
1856,1875,1892
1827,1855,1935
1812,1846,1937
1856,1882,2015
1834,1859,1903
1797,1823,1858
1786,1813,1840
1835,1857,1926
1840,1851,1902
1818,1838,1888
1821,1854,1918
1881,1908,2010
1843,1866,1936
1809,1844,1942
1803,1814,1838
1795,1810,1824
1797,1814,1851
1797,1830,1923
1805,1863,1981
1822,1868,1904
1838,1854,1839
1819,1828,1857
1786,1814,1889
1806,1831,1879
1840,1871,1936
1839,1859,1929
1817,1865,1944
1837,1868,1895
1837,1867,1875
1808,1839,1930
1812,1844,1943
1862,1867,1900
1846,1883,1930
1793,1840,1879
1807,1840,1884
1829,1843,1858
1813,1838,1869
1793,1819,1933
1830,1853,1920
1863,1871,1845
1841,1865,1842
1809,1840,1911
1824,1845,1904
1858,1873,1872
1874,1879,1898
1840,1847,1894
1789,1808,1851
1818,1853,1873
1837,1878,1939
1808,1847,1955
1790,1811,1851
1813,1836,1810
1855,1869,1899
1843,1858,1936
1808,1835,1867
1829,1840,1854
1831,1849,1872
1809,1856,1934
1818,1852,1903
1842,1872,1867
1838,1839,1811
1811,1819,1843
1840,1847,1893
1853,1870,1901
1837,1843,1855
1808,1828,1862
1827,1847,1872
1840,1854,1855
1840,1855,1899
1824,1837,1878
1818,1846,1886
1815,1854,1859
1815,1841,1901
1782,1803,1828
1831,1844,1829
1904,1894,1872
1905,1904,1958
1814,1831,1879
1783,1802,1822
1826,1849,1857
1859,1871,1872
1839,1872,1931
1824,1842,1892
1840,1844,1843
1844,1853,1863
1819,1838,1892
1810,1822,1872
1811,1831,1857
1829,1833,1853
1815,1813,1819
1861,1856,1890
1872,1874,1902
1822,1836,1857
1778,1787,1813
1840,1837,1842
1889,1892,1886
1847,1871,1871
1805,1838,1875
1822,1848,1931
1852,1856,1872
1827,1834,1810
1800,1825,1819
1827,1839,1870
1838,1840,1850
1813,1826,1857
1836,1847,1920
1841,1863,1907
1842,1853,1841
1838,1837,1808
1817,1830,1853
1822,1840,1887
1856,1861,1881
1866,1856,1850
1822,1837,1867
1823,1829,1842
1850,1849,1824
1870,1869,1885
1824,1840,1884
1808,1839,1851
1843,1840,1866
1842,1827,1821
1831,1828,1834
1848,1856,1856
1882,1873,1883
1868,1872,1935
1801,1814,1856
1827,1841,1884
1858,1873,1904
1855,1846,1840
1814,1811,1807
1828,1840,1877
1830,1825,1815
1804,1794,1775
1801,1808,1815
1879,1879,1917
1902,1893,1920
1861,1872,1900
1798,1808,1805
1805,1814,1794
1855,1856,1845
1856,1846,1888
1839,1821,1858
1841,1835,1866
1858,1872,1897
1840,1853,1855
1793,1795,1811
1812,1822,1870
1829,1833,1843
1815,1809,1853
1792,1791,1821
1815,1819,1833
1901,1891,1895
1879,1876,1890
1812,1809,1811
1814,1826,1831
1856,1875,1907
1859,1869,1913
1809,1810,1819
1816,1814,1790
1857,1853,1824
1862,1859,1890
1830,1840,1907
1839,1840,1904
1840,1831,1808
1831,1813,1793
1803,1791,1819
1823,1827,1851
1873,1877,1898
1869,1870,1891
1825,1823,1855
1824,1829,1873
1851,1841,1857
1822,1808,1821
1806,1802,1810
1836,1846,1872
1872,1868,1847
1894,1873,1888
1829,1830,1893
1792,1808,1819
1841,1839,1802
1840,1830,1819
1814,1821,1890
1825,1835,1920
1845,1819,1786
1854,1826,1783
1849,1825,1844
1843,1836,1855
1827,1847,1834
1854,1858,1894
1851,1856,1934
1847,1841,1869
1872,1872,1869
1844,1840,1839
1778,1778,1744
1787,1808,1777
1849,1856,1843
1857,1853,1890
1823,1817,1862
1825,1823,1887
1840,1838,1856
1851,1849,1835
1815,1808,1807
1819,1827,1833
1856,1849,1850
1846,1840,1863
1812,1806,1870
1828,1820,1855
1840,1855,1832
1862,1873,1878
1829,1834,1843
1824,1835,1858
1854,1840,1866
1826,1808,1825
1805,1798,1835
1817,1808,1823
1866,1857,1879
1861,1856,1915
1809,1813,1832
1825,1805,1786
1856,1851,1822
1850,1867,1872
1809,1822,1898
1810,1815,1871
1871,1855,1825
1845,1823,1822
1827,1814,1906
1845,1849,1936
1870,1868,1888
1853,1843,1840
1825,1804,1822
1824,1812,1808
1838,1827,1791
1847,1839,1837
1839,1831,1873
1815,1815,1873
1834,1815,1817
1856,1836,1836
1851,1830,1872
1849,1836,1871
1877,1870,1878
1846,1840,1855
1833,1818,1839
1837,1836,1857
1861,1856,1850
1851,1856,1910
1820,1810,1872
1815,1794,1790
1850,1834,1808
1856,1828,1840
1794,1769,1834
1803,1777,1823
1847,1824,1840
1875,1846,1819
1872,1856,1854
1837,1843,1848
1841,1843,1795
1841,1837,1825
1839,1833,1889
1853,1842,1889
1849,1833,1827
1845,1827,1857
1822,1809,1870
1820,1825,1840
1825,1818,1795
1818,1803,1779
1842,1831,1855
1874,1851,1896
1840,1827,1829
1835,1820,1805
1842,1839,1872
1831,1825,1867
1854,1854,1858
1863,1843,1854
1825,1803,1841
1834,1824,1852
1877,1853,1859
1872,1852,1887
1820,1798,1799
1801,1803,1778
1851,1840,1799
1877,1840,1867
1829,1803,1869
1808,1814,1869
1831,1831,1833
1872,1840,1823
1846,1829,1837
1830,1828,1848
1855,1858,1876
1831,1832,1863
1808,1808,1865
1840,1847,1873
1871,1859,1798
1841,1829,1770
1813,1799,1837
1813,1817,1870
1856,1856,1856
1858,1842,1803
1824,1825,1818
1823,1830,1880
1839,1830,1862
1841,1823,1808
1829,1824,1840
1829,1826,1826
1855,1841,1799
1846,1825,1814
1815,1797,1839
1826,1823,1865
1874,1870,1877
1862,1847,1874
1808,1797,1792
1803,1798,1766
1857,1858,1857
1872,1863,1869
1847,1823,1825
1821,1820,1788
1860,1854,1838
1830,1829,1828
1808,1808,1843
1811,1808,1840
1860,1840,1808
1871,1859,1895
1824,1815,1868
1813,1811,1805
1851,1840,1822
1858,1833,1792
1829,1809,1805
1827,1829,1883
1856,1852,1875
1847,1840,1808
1813,1812,1815
1840,1843,1893
1852,1840,1825
1867,1839,1811
1846,1823,1853
1844,1857,1929
1846,1850,1850
1819,1807,1776
1849,1839,1862
1847,1857,1886
1840,1837,1825
1841,1834,1832
1810,1808,1839
1818,1828,1846
1874,1859,1863
1877,1872,1889
1811,1811,1841
1807,1815,1864
1837,1839,1835
1843,1825,1827
1821,1805,1827
1815,1808,1803
1841,1817,1809
1861,1824,1840
1854,1839,1903
1847,1845,1894
1863,1847,1890
1847,1833,1865
1807,1787,1814
1827,1798,1795
1891,1866,1892
1863,1841,1827
1815,1808,1830
1797,1777,1805
1840,1843,1838
1856,1841,1866
1813,1808,1888
1818,1809,1840
1879,1861,1857
1874,1857,1886
1810,1809,1858
1826,1822,1859
1840,1823,1769
1847,1828,1799
1823,1813,1856
1827,1818,1870
1846,1837,1840
1887,1869,1899
1869,1835,1871
1855,1833,1834
1840,1835,1808
1830,1815,1844
1808,1797,1899
1828,1819,1826
1878,1872,1840
1861,1851,1846
1809,1793,1833
1811,1808,1845
1857,1842,1834
1872,1846,1872
1824,1795,1839
1828,1809,1797
1867,1850,1831
1872,1855,1855
1831,1827,1862
1819,1819,1869
1856,1823,1836
1878,1844,1822
1834,1817,1837
1821,1830,1881
1827,1830,1857
1851,1840,1811
1837,1825,1828
1831,1839,1809
1856,1843,1790
1847,1830,1806
1827,1815,1862
1830,1806,1833
1851,1838,1826
1867,1844,1840
1838,1821,1843
1834,1838,1871
1859,1855,1875
1865,1846,1872
1828,1809,1830
1842,1833,1822
1869,1860,1840
1847,1841,1855
1808,1796,1813
1812,1802,1761
1867,1857,1795
1856,1847,1843
1808,1817,1849
1831,1829,1858
1887,1860,1857
1872,1845,1872
1824,1808,1877
1793,1790,1806
1844,1838,1819
1873,1842,1810
1843,1813,1826
1821,1824,1847
1847,1840,1821
1838,1808,1853
1808,1798,1869
1826,1830,1865
1872,1861,1848
1859,1851,1895
1814,1806,1850
1808,1796,1776
1845,1827,1815
1853,1830,1846
1842,1839,1878
1851,1841,1919
1840,1812,1799
1830,1814,1782
1847,1825,1844
1847,1835,1872
1853,1826,1833
1841,1811,1810
1813,1819,1847
1822,1834,1872
1865,1855,1871
1873,1856,1865
1818,1808,1840
1809,1808,1834
1834,1826,1804
1840,1839,1805
1806,1793,1831
1798,1803,1862
1835,1840,1875
1857,1851,1849
1860,1846,1872
1872,1845,1885
1852,1849,1850
1830,1829,1829
1808,1802,1854
1826,1808,1826
1848,1828,1796
1861,1834,1847
1834,1813,1921
1828,1819,1898
1827,1813,1787
1850,1827,1808
1851,1842,1921
1830,1821,1881
1843,1825,1789
1857,1834,1810
1838,1814,1851
1840,1817,1849
1869,1846,1872
1851,1845,1861
1804,1793,1821
1804,1789,1812
1869,1837,1835
1871,1840,1867
1817,1811,1872
1830,1814,1851
1846,1817,1818
1838,1817,1837
1817,1798,1857
1839,1811,1850
1877,1859,1904
1856,1847,1907
1833,1821,1879
1871,1857,1877
1857,1840,1774
1834,1795,1744
1809,1783,1811
1830,1815,1843
1877,1858,1890
1885,1849,1873
1850,1840,1914
1803,1796,1808
1843,1814,1792
1869,1827,1840
1843,1818,1911
1837,1823,1874
1849,1845,1820
1870,1828,1810
1851,1808,1853
1852,1833,1886
1851,1846,1867
1840,1824,1847
1829,1808,1862
1822,1810,1838
1856,1839,1840
1850,1833,1846
1825,1808,1873
1831,1799,1856
1851,1819,1856
1861,1837,1872
1838,1814,1859
1842,1835,1869
1846,1842,1845
1856,1841,1857
1827,1814,1893
1826,1807,1867
1837,1807,1779
1846,1826,1805
1838,1835,1870
1831,1823,1863
1835,1823,1830
1838,1835,1856
1833,1824,1889
1810,1806,1833
1841,1832,1841
1842,1820,1835
1849,1841,1903
1856,1840,1873
1866,1840,1831
1834,1814,1867
1808,1791,1853
1827,1814,1815
1872,1853,1826
1861,1841,1851
1813,1802,1874
1815,1818,1903
1840,1827,1823
1853,1831,1854
1822,1805,1867
1827,1808,1814
1865,1854,1840
1855,1855,1872
1822,1815,1871
1809,1802,1823
1843,1829,1815
1847,1831,1849
1819,1828,1873
1836,1854,1894
1872,1862,1867
1849,1831,1824
1812,1808,1847
1807,1823,1862
1856,1865,1877
1859,1842,1823
1825,1825,1840
1839,1841,1872
1862,1856,1856
1835,1823,1823
1810,1791,1826
1818,1822,1855
1871,1869,1902
1875,1867,1873
1823,1810,1823
1825,1837,1839
1854,1850,1849
1841,1822,1831
1813,1802,1840
1817,1808,1872
1839,1847,1914
1856,1851,1821
1840,1833,1840
1840,1838,1872
1840,1824,1808
1831,1802,1803
1821,1794,1806
1840,1832,1821
1868,1863,1861
1845,1840,1877
1809,1805,1863
1831,1823,1861
1884,1868,1878
1862,1838,1809
1819,1807,1795
1836,1837,1858
1879,1862,1894
1855,1831,1840
1831,1817,1857
1810,1802,1808
1845,1820,1782
1865,1831,1805
1850,1822,1857
1852,1846,1866
1858,1858,1869
1839,1829,1867
1809,1807,1889
1830,1824,1835
1855,1859,1813
1855,1837,1808
1823,1808,1858
1850,1847,1904
1876,1856,1879
1831,1807,1810
1809,1790,1795
1821,1809,1786
1850,1839,1825
1855,1843,1851
1836,1823,1875
1818,1814,1861
1858,1835,1851
1840,1818,1850
1823,1809,1844
1847,1841,1838
1879,1876,1882
1872,1859,1889
1843,1825,1856
1845,1835,1885
1859,1849,1910
1861,1839,1856
1840,1811,1822
1840,1819,1815
1845,1834,1851
1838,1814,1824
1811,1805,1831
1827,1819,1827
1866,1842,1829
1867,1855,1859
1845,1849,1904
1821,1813,1839
1854,1841,1827
1855,1838,1866
1820,1806,1884
1831,1830,1859
1898,1888,1955
1840,1813,1791
1804,1777,1723
1815,1805,1786
1837,1822,1829
1841,1814,1866
1853,1834,1880
1855,1841,1860
1872,1860,1873
1858,1850,1877
1840,1831,1879
1855,1837,1872
1860,1834,1842
1852,1826,1829
1840,1823,1860
1829,1818,1838
1857,1843,1831
1873,1851,1885
1839,1830,1882
1842,1837,1841
1873,1867,1831
1847,1834,1834
1817,1797,1809
1837,1813,1822
1863,1859,1856
1865,1870,1868
1847,1838,1869
1822,1837,1868
1835,1840,1840
1841,1829,1844
1823,1814,1872
1837,1831,1840
1864,1855,1803
1875,1861,1869
1846,1856,1909
1821,1810,1799
1836,1824,1790
1863,1847,1899
