1842,1696,1814
1849,1825,1863
1830,1729,1827
1822,1796,1872
1818,1879,1905
1843,1917,1891
1840,1903,1885
1839,1754,1843
1834,1751,1844
1840,1835,1863
1839,1903,1851
1830,1840,1855
1840,1828,1847
1859,1745,1810
1835,1838,1852
1822,1884,1875
1831,1856,1883
1840,1853,1862
1844,1856,1825
1845,1796,1808
1862,1707,1771
1835,1852,1895
1803,1899,1931
1808,1851,1886
1837,1829,1857
1847,1787,1855
1835,1745,1836
1808,1834,1852
1828,1877,1865
1849,1885,1861
1826,1830,1838
1823,1810,1872
1841,1810,1872
1837,1837,1846
1849,1856,1850
1843,1774,1845
1839,1769,1825
1839,1834,1840
1827,1879,1873
1834,1866,1854
1824,1836,1884
1845,1926,1840
1834,1776,1859
1821,1811,1907
1830,1776,1886
1859,1776,1839
1840,1830,1850
1826,1842,1872
1840,1837,1870
1856,1817,1851
1847,1868,1847
1829,1853,1871
1840,1869,1886
1853,1803,1811
1865,1751,1802
1814,1859,1871
1813,1859,1903
1847,1831,1873
1828,1879,1856
1821,1889,1846
1825,1817,1872
1838,1843,1872
1825,1818,1850
1830,1825,1845
1840,1839,1861
1863,1834,1839
1867,1693,1765
1795,1857,1894
1793,1923,1935
1818,1885,1875
1840,1847,1839
1840,1819,1847
1862,1744,1811
1853,1850,1845
1824,1906,1883
1821,1877,1886
1839,1873,1872
1845,1840,1854
1847,1829,1851
1847,1947,1867
1858,1818,1821
1836,1696,1851
1821,1763,1865
1802,1819,1866
1835,1845,1863
1854,1837,1829
1821,1792,1846
1820,1833,1871
1818,1865,1873
1838,1818,1818
1840,1845,1844
1838,1854,1865
1856,1851,1872
1834,1863,1874
1844,1868,1857
1836,1827,1856
1839,1824,1855
1850,1850,1857
1854,1859,1860
1840,1835,1854
1856,1789,1830
1851,1846,1862
1843,1844,1893
1841,1834,1878
1843,1807,1854
1863,1808,1840
1868,1819,1842
1835,1830,1842
1835,1839,1851
1849,1713,1807
1847,1775,1815
1808,1942,1919
1819,1914,1923
1831,1904,1865
1834,1902,1835
1824,1776,1824
1840,1779,1841
1871,1807,1845
1839,1818,1842
1840,1833,1854
1835,1830,1857
1836,1843,1851
1831,1798,1854
1835,1769,1850
1836,1781,1853
1846,1863,1840
1842,1810,1833
1831,1782,1859
1840,1795,1873
1857,1795,1842
1849,1831,1840
1856,1803,1839
1840,1810,1887
1837,1844,1879
1837,1883,1870
1840,1834,1830
1827,1830,1853
1833,1904,1882
1839,1879,1867
1835,1840,1851
1840,1835,1855
1840,1842,1845
1846,1846,1845
1838,1829,1853
1840,1826,1856
1862,1869,1856
1851,1856,1851
1836,1804,1853
1822,1837,1855
1827,1815,1845
1853,1778,1807
1846,1856,1842
1835,1827,1879
1841,1783,1899
1833,1808,1855
1822,1840,1842
1840,1872,1863
1836,1895,1860
1826,1828,1838
1811,1827,1851
1827,1840,1862
1841,1854,1873
1835,1834,1840
1823,1806,1836
1820,1823,1845
1828,1838,1839
1853,1834,1824
1840,1927,1811
1801,1775,1863
1820,1802,1904
1829,1823,1874
1827,1822,1853
1827,1787,1840
1842,1808,1846
1843,1822,1862
1848,1861,1856
1834,1847,1853
1835,1871,1857
1837,1852,1853
1831,1833,1831
1838,1865,1852
1825,1867,1872
1824,1867,1870
1854,1808,1820
1829,1815,1864
1811,1872,1862
1827,1883,1847
1822,1808,1871
1821,1799,1859
1839,1812,1837
1847,1825,1843
1838,1790,1842
1857,1801,1849
1843,1886,1862
1840,1889,1858
1837,1845,1857
1851,1806,1855
1858,1871,1851
1846,1789,1808
1833,1793,1839
1840,1872,1904
1849,1904,1874
1865,1829,1795
1849,1931,1835
1806,1914,1858
1802,1806,1858
1806,1759,1858
1811,1776,1873
1837,1795,1855
1843,1829,1839
1846,1781,1838
1840,1810,1857
1840,1840,1861
1840,1841,1838
1845,1834,1839
1846,1827,1845
1849,1835,1856
1843,1837,1854
1850,1840,1847
1847,1764,1813
1840,1829,1841
1833,1907,1865
1856,1794,1809
1848,1850,1863
1838,1879,1895
1833,1889,1858
1853,1741,1787
1830,1778,1856
1824,1825,1843
1816,1827,1858
1839,1839,1874
1837,1813,1863
1843,1806,1845
1849,1793,1825
1843,1837,1849
1831,1861,1869
1831,1861,1867
1840,1856,1850
1853,1850,1853
1840,1835,1853
1843,1808,1856
1862,1788,1812
1855,1904,1858
1826,1893,1872
1823,1838,1869
1840,1840,1841
1856,1873,1837
1840,1844,1861
1817,1785,1846
1829,1806,1845
1830,1808,1841
1832,1793,1839
1840,1808,1847
1842,1850,1859
1818,1866,1858
1814,1843,1861
1829,1845,1854
1843,1849,1839
1851,1777,1815
1826,1855,1872
1823,1869,1881
1839,1854,1852
1836,1840,1821
1834,1808,1834
1851,1836,1840
1842,1840,1840
1807,1891,1853
1810,1821,1859
1810,1812,1855
1838,1837,1837
1838,1859,1847
1850,1840,1829
1845,1738,1837
1840,1859,1869
1818,1883,1840
1820,1860,1830
1829,1798,1826
1845,1824,1832
1840,1874,1863
1833,1845,1853
1839,1843,1849
1850,1825,1837
1854,1851,1839
1840,1856,1853
1854,1839,1853
1869,1856,1855
1841,1873,1843
1809,1874,1854
1818,1709,1805
1843,1813,1833
1833,1927,1886
1825,1847,1869
1831,1848,1842
1843,1821,1824
1857,1766,1807
1855,1764,1818
1813,1856,1863
1820,1882,1861
1835,1870,1842
1834,1824,1834
1841,1839,1835
1857,1825,1826
1847,1847,1841
1839,1825,1851
1859,1808,1845
1861,1835,1840
1829,1839,1831
1817,1783,1834
1840,1821,1836
1847,1879,1843
1838,1852,1845
1819,1853,1852
1828,1850,1842
1857,1879,1837
1849,1808,1806
1831,1840,1855
1825,1855,1858
1849,1776,1823
1837,1837,1855
1816,1840,1855
1830,1835,1850
1840,1840,1833
1852,1840,1827
1840,1808,1838
1840,1821,1843
1861,1840,1837
1853,1807,1826
1833,1803,1840
1836,1856,1841
1855,1759,1799
1823,1859,1843
1826,1849,1850
1845,1841,1842
1849,1875,1879
1843,1865,1858
1838,1863,1840
1846,1808,1840
1850,1851,1840
1838,1813,1868
1826,1791,1840
1843,1805,1838
1857,1811,1831
1840,1820,1833
1840,1815,1838
1826,1814,1847
1837,1837,1840
1856,1822,1838
1854,1779,1839
1843,1855,1829
1841,1833,1827
1830,1839,1846
1835,1826,1860
1842,1791,1831
1868,1754,1819
1830,1867,1861
1819,1861,1864
1827,1840,1850
1841,1845,1837
1860,1846,1837
1841,1833,1846
1843,1866,1846
1845,1839,1840
1840,1776,1825
1840,1814,1850
1840,1872,1860
1845,1840,1840
1858,1790,1823
1857,1778,1794
1815,1778,1826
1815,1856,1860
1835,1842,1850
1859,1806,1798
1835,1801,1841
1822,1858,1871
1824,1845,1859
1815,1825,1854
1825,1815,1842
1853,1827,1826
1855,1820,1830
1838,1820,1825
1821,1839,1856
1824,1853,1851
1837,1843,1840
1833,1831,1849
1834,1837,1853
1840,1841,1844
1856,1833,1855
1840,1810,1809
1813,1850,1839
1803,1823,1854
1813,1827,1855
1825,1811,1850
1839,1792,1843
1837,1809,1822
1839,1758,1807
1823,1863,1861
1809,1878,1873
1825,1870,1846
1838,1839,1826
1840,1822,1840
1835,1829,1855
1840,1843,1850
1840,1843,1843
1843,1829,1847
1839,1821,1843
1849,1874,1840
1861,1715,1808
1861,1852,1838
1791,1841,1872
1807,1840,1869
1818,1825,1851
1833,1809,1850
1827,1797,1857
1824,1828,1843
1841,1842,1839
1835,1828,1845
1820,1815,1842
1837,1814,1839
1840,1835,1842
1838,1825,1852
1839,1824,1863
1844,1838,1853
1847,1841,1845
1837,1815,1851
1842,1821,1852
1850,1842,1856
1847,1843,1843
1843,1825,1846
1850,1809,1841
1872,1774,1799
1842,1855,1856
1825,1883,1870
1831,1841,1866
1841,1819,1856
1852,1827,1837
1840,1869,1879
1824,1871,1873
1842,1813,1827
1847,1822,1829
1840,1811,1840
1859,1792,1850
1843,1840,1836
1835,1834,1841
1800,1840,1842
1809,1791,1854
1840,1827,1856
1841,1821,1853
1838,1778,1839
1853,1727,1794
1849,1857,1859
1832,1898,1888
1837,1857,1879
1840,1833,1857
1855,1859,1846
1844,1847,1828
1840,1791,1847
1838,1797,1847
1845,1863,1822
1826,1794,1840
1819,1806,1851
1833,1808,1856
1841,1830,1853
1851,1830,1851
1840,1838,1847
1841,1825,1845
1840,1835,1841
1856,1805,1829
1872,1750,1801
1811,1827,1849
1801,1870,1868
1815,1872,1855
1831,1840,1845
1838,1831,1854
1837,1850,1849
1844,1845,1841
1834,1852,1845
1840,1839,1857
1843,1875,1867
1840,1860,1837
1834,1778,1833
1837,1805,1847
1850,1834,1840
1847,1791,1830
1841,1819,1840
1830,1808,1847
1846,1803,1843
1858,1814,1808
1838,1829,1856
1822,1893,1892
1821,1891,1871
1827,1856,1839
1840,1830,1842
1842,1828,1856
1837,1842,1855
1847,1840,1841
1840,1824,1853
1843,1857,1845
1835,1837,1840
1825,1805,1840
1823,1828,1863
1834,1801,1861
1846,1815,1848
1863,1822,1834
1847,1769,1831
1830,1738,1831
1833,1835,1811
1815,1910,1863
1818,1841,1877
1840,1852,1897
1831,1866,1858
1831,1838,1823
1829,1814,1831
1831,1818,1858
1843,1833,1838
1851,1840,1838
1854,1818,1841
1843,1808,1859
1837,1854,1829
1823,1840,1833
1846,1839,1844
1831,1808,1854
1815,1794,1840
1821,1810,1835
1845,1778,1814
1858,1687,1759
1829,1883,1872
1818,1889,1888
1803,1841,1869
1808,1840,1859
1824,1842,1855
1839,1851,1856
1830,1805,1872
1827,1831,1862
1837,1841,1843
1853,1845,1829
1833,1807,1827
1826,1831,1842
1829,1863,1843
1830,1823,1837
1840,1757,1803
1825,1695,1783
1803,1842,1876
1810,1879,1888
1813,1861,1870
1819,1871,1840
1839,1776,1826
1836,1834,1871
1823,1852,1872
1820,1837,1846
1854,1808,1831
1830,1835,1843
1810,1835,1855
1821,1830,1856
1840,1843,1862
1851,1855,1865
1830,1829,1867
1819,1810,1842
1834,1846,1839
1841,1808,1838
1843,1712,1778
1849,1801,1857
1846,1871,1883
1814,1897,1872
1812,1865,1858
1839,1835,1850
1844,1830,1855
1840,1840,1855
1833,1791,1859
1840,1808,1855
1839,1833,1856
1845,1823,1840
1849,1838,1838
1840,1836,1844
1833,1783,1856
1826,1835,1863
1822,1861,1853
1829,1830,1856
1842,1838,1870
1851,1789,1830
1825,1724,1822
1823,1808,1854
1819,1872,1872
1830,1867,1859
1850,1834,1858
1842,1800,1854
1822,1835,1858
1836,1871,1840
1828,1808,1841
1824,1803,1862
1840,1825,1866
1847,1818,1846
1840,1815,1855
1823,1793,1853
1832,1853,1855
1843,1852,1841
1821,1840,1847
1822,1857,1840
1823,1790,1808
1818,1791,1837
1813,1826,1904
1808,1850,1918
1817,1834,1858
1815,1819,1825
1820,1825,1835
1826,1820,1856
1836,1836,1854
1840,1821,1847
1840,1817,1842
1838,1821,1840
1845,1842,1855
1835,1856,1855
1813,1840,1855
1818,1840,1857
1837,1841,1854
1835,1831,1834
1837,1788,1829
1840,1758,1794
1827,1861,1844
1803,1892,1894
1795,1872,1887
1810,1861,1883
1829,1851,1850
1833,1835,1840
1819,1835,1870
1827,1840,1871
1839,1840,1831
1841,1840,1823
1842,1847,1821
1831,1793,1856
1835,1860,1859
1829,1799,1842
1826,1798,1847
1840,1769,1809
1850,1794,1835
1821,1853,1869
1804,1842,1863
1803,1866,1871
1834,1884,1860
1839,1856,1847
1840,1806,1840
1828,1796,1862
1808,1843,1858
1808,1825,1847
1808,1814,1851
1828,1818,1850
1840,1835,1839
1835,1838,1840
1824,1817,1841
1825,1843,1847
1834,1866,1870
1841,1744,1807
1860,1729,1776
1803,1813,1858
1787,1889,1872
1795,1879,1853
1814,1835,1849
1840,1828,1851
1852,1861,1845
1824,1840,1826
1808,1818,1840
1822,1831,1849
1836,1844,1845
1840,1834,1840
1840,1883,1842
1825,1831,1831
1819,1792,1837
1825,1823,1847
1821,1818,1856
1837,1820,1860
1841,1847,1866
1854,1852,1856
1845,1806,1809
1838,1819,1810
1808,1872,1879
1815,1844,1872
1830,1799,1856
1839,1794,1840
1849,1771,1819
1850,1809,1837
1835,1865,1855
1831,1881,1862
1819,1873,1840
1824,1808,1827
1830,1766,1840
1837,1821,1856
1841,1848,1847
1840,1855,1850
1845,1837,1851
1840,1838,1844
1845,1841,1840
1843,1822,1822
1841,1731,1793
1808,1838,1875
1808,1875,1872
1813,1863,1845
1814,1840,1839
1827,1822,1857
1843,1780,1840
1830,1840,1839
1831,1767,1838
1843,1807,1856
1840,1911,1865
1826,1830,1847
1827,1795,1843
1842,1804,1838
1831,1827,1838
1840,1837,1857
1838,1762,1837
1839,1771,1813
1855,1861,1808
1834,1875,1856
1822,1869,1875
1837,1856,1881
1851,1872,1856
1839,1837,1825
1824,1793,1838
1813,1776,1840
1830,1829,1857
1839,1834,1840
1850,1857,1835
1847,1804,1865
1872,1809,1841
1837,1793,1822
1814,1806,1840
1839,1819,1863
1839,1821,1847
1839,1834,1840
1841,1823,1829
1830,1851,1850
1840,1863,1844
1840,1853,1840
1837,1826,1840
1840,1783,1825
1845,1841,1858
1839,1845,1856
1834,1858,1859
1823,1860,1863
1824,1863,1846
1826,1842,1840
1834,1845,1850
1842,1891,1826
1828,1790,1842
1827,1779,1854
1818,1813,1856
1834,1730,1840
1842,1763,1821
1834,1902,1846
1829,1842,1861
1830,1765,1821
1835,1866,1870
1845,1890,1893
1836,1835,1843
1836,1813,1823
1844,1831,1825
1852,1844,1840
1846,1840,1853
1841,1837,1850
1855,1838,1838
1852,1817,1834
1845,1799,1834
1843,1818,1847
1856,1878,1850
1852,1857,1858
1842,1846,1870
1830,1811,1847
1830,1751,1808
1823,1840,1853
1826,1785,1818
1829,1832,1866
1835,1883,1888
1826,1863,1883
1829,1874,1846
1835,1794,1831
1841,1818,1869
1840,1793,1867
1826,1791,1850
1825,1807,1853
1845,1825,1856
1841,1872,1861
1838,1813,1853
1841,1810,1866
1843,1840,1867
1846,1843,1862
1836,1816,1858
1840,1797,1865
1856,1842,1872
1840,1850,1840
1849,1778,1789
1831,1808,1856
1821,1923,1917
1822,1852,1898
1824,1754,1840
1837,1797,1850
1851,1844,1856
1835,1842,1856
1823,1841,1863
1830,1841,1843
1825,1827,1837
1840,1806,1869
1822,1810,1871
1821,1813,1840
1846,1807,1837
1856,1823,1840
1833,1744,1839
1840,1787,1856
1831,1883,1901
1824,1840,1857
1817,1840,1856
1823,1840,1856
1861,1872,1863
1841,1777,1835
1807,1838,1851
1809,1811,1866
1831,1836,1869
1826,1831,1840
1823,1808,1830
1830,1821,1866
1846,1840,1872
1855,1855,1915
1826,1797,1834
1830,1786,1818
1846,1825,1839
1851,1719,1813
1828,1823,1835
1821,1872,1872
1840,1899,1915
1872,1873,1961
1815,1831,1825
1838,1791,1761
1830,1853,1808
1848,1899,1850
1838,1810,1934
1792,1769,1905
1780,1736,1783
1796,1792,1829
1856,1862,1940
1889,1887,2006
1891,1911,1938
1919,1921,1931
1776,1745,1765
1770,1753,1776
1811,1818,1814
1840,1796,1774
1808,1782,1776
1823,1873,1861
1823,1884,1931
1819,1774,1899
1808,1665,1734
1757,1722,1765
1794,1895,1927
1817,1971,2055
1829,1893,1887
1825,1747,1738
1830,1808,1826
1871,1883,1904
1865,1863,1803
1841,1808,1797
1861,1778,1888
1859,1891,1841
1853,1822,1811
1777,1728,1774
1841,1861,1888
1852,1875,1949
1851,1857,1921
1822,1760,1747
1879,1904,1825
1811,1727,1770
1758,1718,1795
1829,1751,1814
1777,1877,1883
1883,1981,2155
1945,1876,2073
1744,1783,1651
1697,1813,1680
1769,1766,1771
1840,1847,1830
1841,1866,1942
1796,1808,1861
1809,1813,1806
1819,1758,1836
1858,1854,1884
1882,1797,1821
1837,1769,1769
1731,1770,1745
1772,1914,1937
1841,1946,2086
1761,1841,1791
1724,1763,1727
1780,1799,1844
1859,1686,1859
1902,1861,1987
1778,1857,1885
1794,1803,1723
1840,1819,1759
1726,1797,1825
1737,1872,2019
1763,1699,1796
1758,1670,1677
1764,1805,1863
1809,1931,2030
1782,1904,1901
1797,1815,1805
1792,1862,1965
1780,1818,1853
1787,1727,1791
1815,1773,1958
1792,1857,1813
1747,1856,1811
1785,1786,1815
1784,1867,1892
1713,1808,1826
1713,1774,1770
1792,1861,1942
1787,1872,2032
1828,1875,1948
1822,1703,1669
1673,1836,1744
1681,1774,1785
1741,1719,1859
1794,1767,2035
1811,1918,2064
1785,1826,1777
1728,1856,1764
1761,1840,1854
1799,1841,1975
1862,1841,2060
1755,1792,1751
1755,1794,1782
1723,1831,1773
1741,1922,1868
1787,1833,2000
1764,1730,1953
1741,1686,1696
1740,1776,1722
1808,1867,2059
1795,1806,1976
1730,1872,1967
1687,1836,1727
1759,1806,1751
1841,1843,1913
1825,1787,1856
1757,1844,1921
1742,1810,1985
1750,1769,1931
1738,1861,1890
1722,1794,1705
1778,1776,1761
1808,1927,1935
1819,1808,1873
1751,1879,1951
1788,1838,1882
1793,1835,1971
1755,1701,1845
1798,1803,1840
1776,1894,1936
1728,1808,1808
1765,1808,1904
1781,1755,1786
1803,1894,1854
1761,1819,1799
1775,1857,2042
1811,1847,1920
1819,1746,1663
1737,1840,1787
1747,1911,2015
1763,1856,1945
1808,1847,1836
1811,1855,1834
1762,1751,1882
1808,1835,1967
1789,1776,1834
1722,1810,1853
1759,1887,1987
1863,1958,2192
1791,1731,1695
1747,1776,1642
1774,1853,1962
1810,1769,1895
1839,1868,1871
1851,1908,1919
1824,1713,1777
1770,1815,1873
1744,1888,1940
1759,1853,1850
1779,1824,1810
1808,1860,1903
1853,1914,2031
1819,1839,1870
1817,1856,1831
1805,1859,1982
1795,1840,1894
1815,1712,1682
1839,1794,1899
1770,1878,1959
1771,1845,1936
1798,1860,1903
1798,1879,1858
1821,1909,1915
1831,1778,1846
1830,1827,1894
1841,1823,1936
1792,1763,1778
1803,1737,1705
1924,1775,1906
1916,1898,2059
1766,1837,1873
1717,1863,1824
1777,1947,1963
1806,1910,2035
1770,1795,1758
1799,1787,1778
1810,1833,2015
1842,1871,2139
1851,1893,1923
1827,1802,1691
1833,1792,1851
1845,1866,1957
1808,1856,1795
1774,1695,1776
1861,1667,1867
1869,1869,2005
1809,1978,1971
1755,1848,1856
1744,1808,1858
1813,1792,1984
1856,1907,1940
1842,1846,1856
1807,1892,2031
1816,1889,1958
1856,1900,1946
1840,1883,1995
1839,1840,1935
1851,1840,2025
1818,1808,1809
1794,1719,1699
1882,1847,1894
1861,1831,1975
1787,1824,1940
1845,1879,1968
1865,1876,1936
1791,1773,1841
1795,1728,1918
1767,1856,1958
1779,1863,1906
1845,1847,1899
1851,1893,2041
1819,1829,1982
1842,1862,2006
1861,1821,2095
1837,1727,1622
1824,1839,1777
1811,1917,2027
1806,1899,2096
1855,1827,2128
1852,1810,1957
1826,1813,1725
1808,1834,1795
1808,1854,1939
1840,1808,1895
1843,1867,1915
1875,1904,1977
1820,1904,1998
1811,1840,2030
1814,1827,1969
1844,1829,1947
1849,1823,1840
1858,1716,1828
1829,1805,1942
1840,1985,2092
1827,1893,2019
1830,1891,2010
1778,1857,1874
1797,1734,1770
1849,1803,1911
1851,1879,1946
1903,1919,1980
1808,1781,1904
1856,1810,1926
2032,1834,1969
1851,1904,1982
1741,1862,1856
1799,1850,1839
1814,1895,1971
1834,1856,2071
1817,1757,1840
1808,1867,1840
1814,1871,1878
1842,1903,1989
1865,1878,1979
1850,1875,1822
1904,1895,1936
1843,1690,1959
1809,1747,1881
1840,1861,1819
1845,1831,1969
1808,1857,2010
1845,1830,1898
1840,1835,1842
1842,1884,1934
1855,1737,1872
1878,1823,1953
1808,1872,1934
1780,1914,1857
1826,1886,1840
1886,1895,1981
1917,1885,2035
1830,1803,1808
1818,1791,1789
1810,1831,1890
1829,1893,1986
1853,1872,1935
1829,1775,1770
1871,1893,1998
1882,1863,1966
1872,1905,1789
1868,1634,1778
1791,1789,1831
1782,1887,1906
1863,1904,2007
1877,1814,1898
1802,1748,1808
1895,1871,1872
1823,1874,1878
1807,1851,1886
1826,1853,1947
1822,1808,1829
1872,1841,1853
1895,1853,1862
1849,1861,1993
1835,1855,1991
1824,1776,1744
1825,1780,1761
1855,1843,1867
1883,1939,2098
1862,1867,1926
1843,1761,1675
1850,1782,1773
1907,1922,1995
1923,1903,1953
1829,1828,1826
1839,1756,1839
1829,1797,1857
1837,1907,1975
1824,1858,1926
1773,1789,1743
1840,1870,1841
1904,1790,1890
1841,1827,1807
1834,1763,1840
1824,1829,1889
1857,1910,1936
1872,1796,1889
1872,1705,1729
1888,1986,2039
1811,1911,1962
1803,1859,1734
1856,1808,1840
1883,1825,1804
1858,1840,1874
1819,1830,1951
1827,1804,1867
1878,1744,1690
1918,1763,1731
1865,1847,1870
1787,1875,1883
1852,1875,1906
1941,1834,1913
1841,1845,1855
1804,1805,1844
1859,1920,1916
1856,1883,1895
1842,1830,1802
1835,1750,1755
1867,1838,1857
1883,1877,1945
1845,1809,1899
1855,1791,1846
1856,1840,1713
1932,1902,1856
1856,1791,1873
1825,1761,1841
1904,1882,1970
1955,1904,1916
1797,1761,1635
1778,1616,1591
1836,1801,1791
1872,1933,1920
1827,1923,1901
1803,1891,1899
1884,1839,1885
1868,1846,1829
1844,1812,1843
1856,1808,1878
1851,1870,1899
1852,1760,1744
1870,1773,1767
1840,1799,1815
1860,1921,1907
1856,1856,1908
1854,1808,1840
1838,1792,1744
1850,1850,1733
1835,1838,1776
1855,1795,1799
1870,1746,1810
1913,1941,1966
1872,1920,1931
1841,1836,1809
1776,1770,1766
1823,1841,1776
1854,1888,1776
1834,1803,1838
1840,1814,1846
1883,1873,1904
1872,1809,1919
1904,1749,1889
1831,1731,1675
1804,1887,1807
1821,1836,1751
1863,1808,1740
1853,1848,1870
1859,1888,1939
1879,1879,1881
1867,1828,1772
1873,1790,1758
1907,1841,1726
1783,1797,1808
1822,1811,1917
1840,1860,1897
1869,1805,1773
1852,1850,1808
1826,1840,1808
1831,1856,1840
1917,1894,1874
1895,1759,1737
1830,1653,1695
1822,1735,1819
1865,1996,1968
1835,1936,1789
1823,1894,1767
1840,1868,1873
1897,1905,2083
1842,1792,1790
1839,1731,1621
1831,1787,1730
1840,1835,1825
1855,1851,1801
1887,1840,1790
1887,1839,1843
1865,1863,1866
1878,1917,1942
1874,1803,1713
1833,1741,1714
1821,1827,1872
1861,1759,1802
1852,1775,1778
1833,1859,1847
1837,1831,1849
1875,1841,1884
1856,1822,1814
1815,1886,1856
1815,1951,1871
1817,1793,1751
1857,1840,1838
1883,1739,1783
1901,1702,1709
1852,1854,1821
1873,1865,1846
1821,1841,1915
1867,1685,1738
1834,1821,1740
1808,1904,1840
1835,1838,1842
1891,1863,1834
1840,1895,1846
1831,1821,1829
1854,1829,1876
1916,1867,1919
1842,1821,1728
1827,1798,1659
1823,1787,1807
1856,1843,1889
1899,1797,1839
1878,1744,1758
1855,1846,1887
1813,1863,1855
1855,1854,1777
1831,1809,1743
1825,1786,1761
1894,1758,1818
1879,1916,1867
1822,1813,1825
1783,1795,1794
1856,1895,1953
1861,1871,1918
1797,1779,1744
1825,1776,1711
1888,1744,1711
1874,1899,1862
1831,1862,1951
1875,1872,1987
1883,1866,1859
1840,1712,1645
1798,1781,1744
1809,1766,1776
1818,1808,1789
1872,1911,1907
1823,1856,1815
1840,1838,1840
1853,1840,1893
1858,1779,1753
1858,1828,1736
1833,1954,1841
1809,1830,1870
1856,1794,1847
1859,1807,1817
1831,1813,1761
1824,1874,1823
1953,1930,2156
1883,1774,1839
1821,1744,1674
1823,1889,1726
1808,1776,1685
1804,1817,1808
1856,1872,1984
1857,1802,1881
1847,1859,1819
1886,1859,1791
1855,1764,1729
1874,1825,1735
1905,1923,1825
1854,1841,1817
1757,1751,1778
1761,1826,1867
1840,1886,1910
1875,1921,1986
1845,1766,1841
1826,1712,1763
1839,1881,1885
1823,1875,1839
1842,1850,1855
1840,1845,1773
1875,1905,1949
1851,1841,1820
1852,1840,1712
1901,1827,1764
1901,1773,1806
1877,1775,1857
1871,1754,1840
1787,1776,1789
1781,1922,1919
1785,1834,1808
1840,1838,1793
1853,1862,1904
1818,1837,1809
1838,1813,1783
1869,1835,1807
1845,1879,1888
1851,1798,1949
1870,1771,1822
1840,1827,1884
1814,1803,1780
1843,1814,1735
1875,1799,1790
1887,1770,1920
1884,1879,2023
1808,1895,1877
1759,1774,1682
1797,1776,1693
1871,1851,1773
1865,1872,1887
1834,1857,1943
1815,1827,1876
1909,1837,1809
1899,1852,1795
1789,1790,1823
1776,1709,1840
1815,1831,1824
1847,1878,1813
1875,1890,1914
1889,1827,1878
1867,1730,1885
1839,1779,1693
1827,1851,1761
1841,1867,1874
1851,1876,1840
1894,1840,1903
1968,1872,2000
1856,1782,1789
1759,1767,1759
1785,1837,1802
1853,1836,1857
1839,1828,1900
1827,1818,1904
1855,1823,1791
1847,1776,1728
1848,1698,1783
1888,1900,1840
1893,1898,1953
1840,1835,1922
1803,1840,1856
1855,1842,1947
1856,1868,1893
1873,1776,1646
1798,1739,1685
1772,1833,1821
1838,1936,1958
1919,1856,2033
1875,1766,1707
1824,1823,1707
1887,1749,1854
1797,1667,1819
1757,1849,1889
1789,1947,1998
1883,1915,1898
1859,1820,1742
1795,1776,1728
1808,1829,1862
1903,1934,2109
1904,1894,2098
1835,1712,1671
1807,1744,1517
1819,1845,1728
1879,1910,2013
1922,1853,1925
1892,1827,1753
1840,1670,1683
1871,1872,1946
1871,1989,2019
1758,1654,1686
1755,1710,1682
1789,1855,1872
1831,1908,2014
1867,1871,1913
1827,1750,1741
1853,1840,1907
1839,1840,1935
1840,1802,1741
1871,1868,1872
1934,1829,1940
1873,1840,1840
1808,1842,1783
1840,1836,1835
1874,1776,1699
1901,1650,1712
1850,1796,1870
1783,1892,1859
1801,1849,1893
1806,1824,1867
1808,1867,1975
1839,1871,1911
1839,1805,1759
1836,1745,1665
1822,1839,1808
1852,1879,1973
1889,1872,2054
1916,1833,1921
1807,1827,1742
1763,1809,1590
1823,1763,1703
1846,1793,1908
1840,1915,2001
1874,1875,1847
1842,1727,1761
1842,1797,1799
1808,1859,1861
1804,1838,1826
1809,1799,1787
1823,1830,1877
1909,1881,1983
1872,1873,1941
1862,1872,1873
1808,1758,1703
1829,1727,1706
1814,1796,1917
1823,1759,1839
1810,1810,1744
1840,1874,1790
1904,1963,1991
1821,1792,1903
1769,1788,1767
1825,1904,1778
1917,1819,1809
1840,1783,2034
1788,1793,1840
1841,1842,1757
1811,1839,1810
1808,1819,1847
1795,1823,1845
1843,1853,1887
1898,1851,1845
1892,1808,1858
1883,1870,1866
1862,1779,1861
1789,1843,1855
1813,1913,1975
1840,1819,1821
1873,1653,1750
1840,1807,1765
1794,1902,1851
1788,1905,1904
1835,1810,1881
1874,1808,1814
1841,1838,1851
1895,1887,2086
1855,1813,1904
1769,1808,1783
1762,1744,1712
1814,1793,1772
1868,1777,1847
1927,1889,1948
1897,1875,1984
1850,1859,1792
1747,1813,1695
1798,1869,1844
1847,1786,1885
1865,1743,1916
1819,1824,1795
1889,1932,1813
1854,1853,1918
1774,1859,1927
1779,1829,1844
1834,1840,1866
1875,1826,1858
1907,1826,1925
1841,1786,1819
1839,1846,1776
1795,1746,1763
1803,1824,1901
1821,1889,1905
1875,1886,1869
1855,1841,1861
1847,1863,1976
1861,1877,1878
1917,1817,1776
1808,1765,1771
1739,1774,1789
1792,1802,1903
1895,1849,1984
1906,1803,1840
1890,1872,1919
1843,1849,1899
1762,1771,1785
1799,1789,1751
1846,1862,1858
1854,1873,1914
1841,1875,1898
1877,1839,1835
1837,1824,1834
1808,1794,1794
1845,1855,1827
1834,1877,1902
1824,1861,1903
1845,1856,1872
1875,1879,1965
1867,1894,1845
1882,1770,1829
1863,1749,1858
1779,1789,1795
1747,1869,1743
1825,1885,1847
1870,1919,1982
1869,1840,1869
1856,1858,1983
1829,1778,1925
1811,1757,1668
1850,1808,1699
1810,1814,1838
1837,1853,1899
1918,1857,1885
1853,1869,1849
1809,1874,1830
1825,1813,1849
1840,1827,1873
1867,1899,1901
1872,1775,1861
1878,1777,1916
1840,1872,1955
1790,1846,1753
1808,1863,1745
1867,1877,1872
1904,1893,1969
1869,1774,1968
1856,1879,1890
1829,1761,1680
1795,1744,1677
1797,1850,1813
1849,1861,1861
1891,1829,1913
1813,1847,1938
1809,1829,1829
1883,1840,1888
1903,1783,1951
1889,1889,1918
1786,1883,1757
1783,1857,1767
1840,1874,1870
1873,1899,1942
1856,1808,1864
1870,1772,1855
