1862,1856,1901
1871,1957,1904
1853,1809,1889
1851,1837,1885
1856,1796,1889
1835,1791,1903
1827,1808,1889
1835,1807,1888
1849,1829,1885
1872,1877,1886
1882,1835,1877
1901,1792,1795
1793,1728,1903
1792,1807,1941
1895,1913,1957
1927,1925,1925
1840,1687,1854
1746,1724,1841
1744,1735,1883
1786,1792,1888
1812,1841,1884
1814,1799,1880
1808,1770,1893
1804,1785,1904
1806,1771,1856
1817,1768,1850
1809,1777,1856
1822,1782,1850
1834,1722,1834
1787,1839,1891
1764,1837,1895
1776,1797,1875
1824,1764,1850
1801,1745,1843
1774,1754,1872
1788,1739,1863
1787,1839,1858
1799,1790,1876
1827,1728,1859
1793,1751,1849
1783,1856,1889
1808,1878,1905
1809,1814,1863
1805,1763,1830
1815,1735,1815
1797,1813,1879
1792,1840,1893
1806,1850,1867
1802,1793,1865
1811,1775,1858
1809,1777,1856
1802,1766,1853
1805,1775,1843
1834,1739,1847
1813,1829,1872
1793,1821,1841
1802,1761,1861
1808,1811,1871
1851,1823,1863
1842,1741,1823
1803,1785,1845
1819,1823,1868
1825,1809,1849
1825,1840,1844
1833,1920,1863
1808,1786,1872
1840,1805,1872
1818,1809,1869
1799,1757,1840
1828,1811,1819
1831,1797,1831
1833,1827,1851
1842,1837,1861
1856,1879,1849
1838,1865,1826
1834,1791,1826
1827,1771,1868
1858,1829,1861
1855,1786,1841
1855,1736,1782
1840,1797,1831
1835,1890,1865
1851,1936,1850
1856,1824,1834
1856,1734,1835
1821,1821,1857
1831,1842,1854
1854,1835,1854
1886,1901,1868
1872,1813,1837
1841,1769,1803
1808,1803,1840
1836,1887,1856
1853,1839,1845
1889,1824,1818
1851,1708,1776
1818,1792,1856
1824,1911,1875
1827,1810,1857
1847,1819,1854
1867,1805,1849
1886,1823,1858
1856,1830,1839
1842,1829,1838
1854,1835,1846
1871,1847,1845
1873,1840,1837
1868,1827,1842
1885,1837,1839
1872,1840,1864
1855,1838,1854
1886,1789,1815
1866,1854,1807
1904,1869,1783
1840,1781,1864
1805,1853,1877
1798,1761,1847
1837,1761,1847
1851,1798,1845
1870,1809,1850
1871,1829,1865
1878,1840,1843
1878,1842,1835
1871,1840,1841
1867,1820,1850
1892,1835,1841
1894,1829,1831
1865,1841,1840
1870,1873,1883
1888,1805,1811
1899,1737,1738
1840,1813,1848
1841,1876,1893
1869,1901,1871
1872,1856,1841
1872,1814,1831
1901,1910,1826
1897,1867,1808
1841,1775,1840
1826,1732,1840
1829,1753,1853
1865,1792,1840
1870,1829,1838
1858,1823,1827
1870,1830,1843
1889,1841,1840
1890,1841,1829
1904,1786,1799
1894,1856,1867
1873,1837,1845
1915,1773,1772
1875,1864,1838
1827,1840,1873
1850,1867,1846
1865,1835,1829
1871,1810,1830
1869,1818,1840
1882,1824,1840
1873,1854,1839
1867,1806,1823
1883,1831,1837
1915,1827,1824
1879,1786,1833
1872,1825,1847
1879,1750,1790
1863,1796,1818
1851,1879,1865
1872,1828,1856
1871,1840,1838
1879,1801,1840
1903,1840,1815
1856,1866,1837
1851,1840,1845
1856,1925,1819
1856,1793,1817
1856,1776,1840
1853,1805,1828
1875,1783,1772
1867,1793,1838
1850,1779,1855
1870,1808,1856
1885,1805,1819
1895,1826,1815
1899,1888,1840
1858,1824,1840
1841,1823,1837
1866,1835,1839
1872,1829,1836
1877,1791,1835
1890,1847,1847
1856,1904,1808
1855,1817,1799
1855,1889,1840
1873,1850,1841
1887,1821,1830
1872,1856,1818
1879,1835,1789
1845,1837,1840
1850,1810,1849
1861,1808,1843
1872,1824,1837
1881,1852,1829
1885,1853,1826
1877,1829,1824
1890,1813,1811
1881,1856,1836
1867,1873,1840
1872,1840,1831
1890,1915,1840
1883,1840,1795
1850,1798,1830
1853,1794,1831
1868,1818,1829
1903,1865,1827
1917,1861,1774
1869,1769,1797
1812,1806,1874
1821,1793,1840
1870,1856,1821
1892,1835,1809
1840,1821,1808
1825,1791,1835
1851,1810,1839
1868,1795,1823
1874,1830,1825
1885,1857,1825
1886,1854,1825
1885,1836,1825
1883,1838,1837
1885,1856,1836
1890,1859,1829
1887,1837,1808
1878,1808,1816
1872,1897,1850
1872,1846,1808
1890,1801,1811
1858,1840,1867
1856,1884,1839
1851,1797,1824
1844,1776,1808
1829,1760,1816
1847,1835,1840
1869,1848,1838
1871,1851,1835
1872,1823,1838
1872,1840,1838
1903,1840,1835
1871,1823,1831
1879,1834,1815
1868,1847,1829
1853,1895,1856
1866,1865,1856
1872,1878,1854
1903,1866,1806
1855,1786,1823
1843,1793,1787
1837,1791,1847
1846,1840,1867
1872,1850,1845
1854,1826,1836
1878,1915,1837
1884,1829,1814
1845,1763,1812
1840,1797,1836
1841,1813,1856
1865,1853,1847
1873,1831,1809
1894,1762,1810
1890,1830,1855
1833,1843,1840
1821,1855,1825
1840,1869,1842
1872,1889,1850
1870,1835,1829
1855,1810,1811
1856,1790,1811
1839,1794,1837
1861,1815,1819
1872,1821,1811
1857,1840,1845
1861,1809,1852
1885,1825,1835
1894,1813,1809
1872,1850,1823
1866,1874,1831
1893,1859,1792
1853,1810,1841
1824,1766,1856
1840,1776,1851
1885,1843,1840
1870,1851,1826
1840,1868,1826
1846,1819,1833
1862,1791,1840
1869,1787,1841
1859,1807,1842
1883,1829,1825
1877,1900,1818
1838,1783,1808
1845,1712,1812
1861,1786,1837
1888,1803,1799
1855,1807,1822
1834,1861,1872
1856,1833,1849
1857,1840,1840
1818,1817,1842
1833,1799,1845
1840,1805,1840
1854,1859,1840
1857,1846,1840
1853,1834,1840
1856,1855,1830
1860,1821,1824
1869,1808,1833
1856,1796,1835
1855,1827,1843
1882,1849,1849
1898,1781,1772
1842,1760,1791
1808,1788,1837
1829,1895,1893
1841,1884,1881
1841,1874,1857
1853,1830,1838
1853,1856,1838
1857,1797,1830
1847,1794,1840
1872,1850,1840
1875,1865,1846
1837,1845,1841
1836,1774,1861
1845,1799,1853
1846,1890,1825
1841,1855,1811
1839,1740,1823
1853,1648,1782
1840,1839,1853
1847,1862,1854
1839,1858,1866
1842,1819,1845
1830,1808,1841
1858,1823,1837
1855,1771,1808
1853,1825,1863
1853,1833,1854
1855,1842,1840
1850,1839,1840
1855,1827,1847
1857,1843,1839
1863,1860,1840
1849,1845,1823
1872,1796,1840
1871,1883,1846
1861,1840,1786
1856,1710,1793
1827,1794,1888
1822,1901,1877
1816,1758,1850
1837,1759,1843
1856,1813,1851
1837,1812,1845
1829,1813,1840
1830,1809,1837
1854,1775,1807
1866,1796,1840
1846,1862,1867
1839,1856,1851
1841,1819,1839
1854,1837,1840
1853,1858,1836
1847,1805,1839
1859,1820,1847
1852,1811,1840
1847,1811,1834
1855,1811,1841
1859,1839,1844
1907,1822,1767
1867,1791,1852
1807,1808,1881
1799,1856,1859
1805,1795,1842
1814,1775,1806
1823,1746,1812
1814,1799,1871
1839,1835,1869
1853,1838,1846
1851,1808,1841
1850,1812,1845
1871,1825,1840
1862,1841,1837
1840,1840,1838
1831,1793,1838
1841,1803,1835
1849,1796,1813
1862,1800,1803
1870,1808,1842
1809,1819,1862
1804,1811,1856
1818,1805,1854
1843,1808,1854
1856,1779,1849
1835,1805,1839
1845,1790,1835
1833,1795,1831
1829,1859,1858
1873,1857,1826
1856,1818,1813
1815,1836,1847
1811,1831,1869
1835,1821,1857
1843,1819,1839
1837,1776,1837
1857,1733,1790
1843,1895,1866
1823,1842,1860
1838,1826,1851
1851,1885,1863
1840,1810,1840
1846,1730,1841
1838,1792,1859
1819,1808,1855
1806,1794,1840
1827,1745,1835
1830,1808,1855
1845,1872,1856
1833,1857,1834
1823,1824,1823
1840,1779,1842
1838,1781,1824
1840,1839,1842
1829,1780,1827
1851,1776,1831
1841,1871,1879
1845,1878,1884
1821,1824,1856
1821,1818,1845
1840,1836,1835
1843,1793,1849
1821,1781,1844
1820,1781,1853
1840,1903,1839
1851,1805,1827
1851,1758,1840
1845,1821,1846
1831,1799,1840
1834,1778,1853
1809,1796,1850
1819,1829,1843
1839,1837,1843
1858,1823,1824
1849,1781,1807
1831,1815,1827
1839,1855,1873
1829,1822,1856
1840,1791,1840
1826,1838,1870
1817,1833,1871
1856,1915,1845
1843,1751,1821
1825,1750,1870
1803,1808,1883
1809,1809,1850
1830,1830,1840
1842,1787,1839
1841,1827,1844
1850,1808,1847
1830,1819,1862
1851,1807,1807
1845,1801,1808
1808,1854,1866
1811,1782,1872
1840,1776,1861
1846,1814,1847
1851,1829,1831
1827,1791,1846
1840,1744,1823
1840,1845,1856
1845,1865,1873
1842,1815,1842
1824,1794,1851
1837,1824,1862
1847,1853,1858
1872,1842,1862
1838,1803,1837
1840,1753,1824
1842,1739,1808
1823,1840,1877
1831,1883,1885
1851,1856,1871
1857,1825,1860
1847,1771,1839
1835,1779,1851
1826,1802,1845
1835,1818,1849
1854,1779,1840
1841,1808,1865
1847,1877,1867
1847,1840,1846
1833,1769,1819
1846,1733,1827
1839,1841,1872
1856,1844,1840
1839,1835,1856
1808,1821,1872
1840,1861,1853
1841,1845,1855
1823,1843,1856
1840,1853,1854
1859,1820,1849
1826,1816,1840
1829,1856,1846
1841,1811,1843
1834,1760,1853
1843,1779,1847
1847,1808,1853
1856,1828,1856
1842,1840,1851
1843,1840,1840
1840,1826,1846
1845,1808,1853
1853,1811,1855
1857,1837,1846
1843,1744,1819
1872,1695,1773
1831,1808,1867
1815,1889,1905
1823,1861,1877
1841,1869,1856
1845,1865,1836
1842,1819,1840
1826,1764,1852
1828,1808,1850
1821,1838,1840
1814,1795,1841
1825,1788,1838
1847,1798,1844
1849,1843,1841
1840,1818,1843
1845,1872,1835
1837,1785,1838
1830,1823,1842
1838,1791,1836
1855,1751,1789
1840,1799,1855
1809,1851,1889
1822,1857,1872
1829,1829,1854
1850,1824,1855
1863,1859,1853
1844,1791,1804
1822,1799,1855
1842,1793,1863
1853,1825,1838
1835,1841,1843
1844,1821,1854
1841,1840,1855
1835,1838,1843
1847,1820,1843
1849,1811,1854
1835,1826,1846
1841,1869,1841
1837,1770,1809
1841,1782,1834
1829,1840,1870
1823,1822,1855
1855,1816,1829
1837,1802,1862
1815,1793,1857
1826,1926,1844
1835,1787,1829
1840,1746,1840
1847,1789,1850
1860,1808,1827
1842,1831,1853
1837,1826,1843
1844,1834,1838
1887,1808,1838
1862,1856,1831
1815,1838,1839
1810,1810,1844
1840,1755,1812
1837,1774,1821
1821,1792,1847
1824,1827,1863
1845,1861,1863
1863,1847,1840
1855,1840,1839
1862,1914,1824
1833,1765,1839
1841,1776,1856
1840,1810,1845
1839,1878,1838
1835,1823,1850
1839,1855,1858
1839,1864,1840
1839,1799,1835
1855,1805,1831
1856,1824,1840
1856,1785,1808
1837,1754,1816
1856,1754,1794
1841,1915,1860
1853,1936,1889
1822,1823,1871
1808,1758,1853
1813,1770,1843
1854,1814,1841
1861,1802,1840
1808,1767,1840
1833,1823,1840
1828,1878,1837
1827,1825,1846
1837,1853,1856
1835,1842,1846
1821,1821,1841
1831,1827,1856
1856,1841,1859
1870,1788,1824
1869,1808,1804
1844,1799,1883
1837,1884,1894
1839,1893,1873
1838,1815,1840
1830,1793,1825
1855,1824,1834
1873,1903,1807
1818,1761,1808
1799,1776,1900
1824,1866,1904
1852,1823,1802
1833,1768,1810
1811,1814,1841
1823,1852,1842
1814,1831,1837
1819,1802,1855
1840,1791,1874
1853,1799,1844
1858,1773,1792
1844,1881,1858
1829,1856,1888
1833,1857,1876
1839,1841,1833
1811,1814,1841
1838,1931,1859
1839,1766,1808
1809,1782,1835
1762,1765,1839
1771,1750,1810
1810,1754,1793
1817,1838,1840
1808,1835,1858
1819,1801,1868
1866,1808,1887
1841,1904,1883
1793,1817,1786
1825,1739,1751
1835,1808,1813
1806,1871,1872
1794,1821,1862
1818,1831,1856
1855,1843,1872
1840,1819,1823
1794,1808,1826
1795,1795,1839
1820,1831,1844
1825,1868,1840
1796,1811,1815
1834,1837,1831
1834,1854,1840
1815,1785,1823
1813,1747,1839
1819,1746,1803
1821,1824,1821
1840,1819,1842
1813,1888,1871
1783,1872,1820
1840,1803,1823
1818,1807,1838
1787,1807,1812
1793,1778,1828
1822,1810,1851
1853,1882,1858
1847,1872,1845
1823,1760,1822
1802,1776,1802
1819,1839,1853
1841,1847,1895
1818,1862,1846
1817,1858,1795
1840,1850,1810
1861,1786,1840
1849,1867,1900
1816,1808,1855
1795,1773,1781
1818,1729,1775
1853,1840,1878
1871,1886,1879
1795,1797,1807
1777,1807,1795
1774,1791,1830
1783,1795,1851
1823,1744,1830
1806,1826,1849
1795,1834,1856
1815,1847,1863
1822,1861,1840
1813,1838,1851
1874,1813,1850
1851,1856,1867
1808,1822,1857
1786,1834,1827
1802,1806,1830
1849,1835,1847
1860,1742,1847
1856,1855,1863
1806,1778,1879
1753,1808,1877
1799,1760,1914
1805,1746,1855
1817,1761,1762
1820,1833,1778
1815,1831,1808
1822,1817,1840
1867,1867,1887
1867,1826,1907
1813,1817,1808
1790,1767,1799
1808,1843,1851
1801,1845,1842
1810,1838,1807
1867,1845,1827
1882,1835,1818
1849,1822,1830
1838,1762,1847
1793,1717,1871
1814,1734,1882
1901,1744,1795
1882,1889,1839
1791,1882,1902
1759,1846,1927
1795,1808,1790
1827,1728,1747
1819,1826,1869
1789,1839,1881
1792,1776,1835
1872,1968,1959
1840,1822,1858
1757,1728,1701
1797,1759,1728
1891,1808,1799
1905,1874,1810
1808,1791,1808
1797,1714,1797
1813,1765,1803
1802,1812,1811
1794,1825,1819
1805,1807,1802
1827,1791,1789
1811,1825,1810
1824,1830,1825
1857,1791,1780
1856,1910,1813
1827,1843,1829
1839,1814,1830
1845,1836,1838
1853,1814,1814
1853,1891,1779
1874,1762,1771
1829,1826,1826
1797,1796,1869
1792,1808,1843
1808,1805,1797
1831,1808,1738
1850,1821,1792
1878,1914,1906
1863,1783,1824
1811,1758,1703
1834,1795,1692
1826,1799,1726
1840,1758,1794
1927,1904,2026
1972,1927,2047
1790,1757,1648
1776,1777,1594
1794,1781,1695
1813,1770,1799
1842,1819,1925
1921,1877,2082
1851,1795,1759
1825,1776,1641
1843,1771,1735
1859,1904,2017
1825,1858,1805
1825,1808,1696
1840,1783,1744
1835,1744,1791
1842,1783,1833
1871,1825,1847
1951,1843,1856
1909,1803,1757
1862,1760,1773
1795,1761,1790
1815,1825,1840
1872,1815,1808
1903,1806,1778
1806,1840,1747
1796,1743,1745
1861,1904,1959
1876,1874,2000
1844,1775,1725
1850,1734,1653
1840,1806,1806
1872,1875,1877
1854,1808,1776
1841,1782,1767
1899,1807,1904
1930,1808,1881
1837,1736,1753
1840,1741,1701
1808,1803,1862
1817,1803,1765
1860,1759,1782
1902,1879,1830
1863,1861,1805
1837,1854,1886
1857,1794,1813
1939,1766,1785
1860,1779,1817
1783,1776,1788
1840,1822,1728
1912,1815,1823
1894,1814,1962
1767,1789,1873
1788,1791,1736
1818,1791,1725
1897,1685,1711
1855,1726,1743
1869,1873,1838
1878,1917,1987
1826,1770,1872
1808,1729,1679
1831,1776,1716
1921,1814,1856
1908,1808,1857
1876,1886,1840
1856,1808,1886
1825,1768,1819
1847,1759,1689
1886,1790,1766
1814,1777,1840
1827,1763,1834
1812,1731,1771
1843,1845,1774
1895,1747,1837
1868,1801,1920
1827,1850,1957
1825,1872,1825
1839,1795,1727
1809,1747,1741
1808,1776,1834
1863,1840,1845
1919,1814,1995
1819,1803,1791
1759,1751,1664
1802,1776,1747
1873,1834,1886
1891,1831,1955
1906,1766,1898
1900,1801,1751
1854,1874,1785
1765,1791,1776
1742,1712,1767
1788,1741,1793
1893,1872,1952
1899,1875,1958
1795,1877,1760
1777,1731,1713
1840,1671,1754
1805,1776,1847
1783,1838,1862
1899,1843,1925
1970,1876,2123
1744,1786,1784
1707,1712,1633
1806,1772,1713
1882,1841,1843
1893,1885,1907
1808,1818,1872
1833,1862,1879
1861,1822,1890
1809,1744,1826
1794,1711,1674
1840,1741,1787
1871,1840,1917
1821,1755,1839
1747,1815,1789
1794,1854,1901
1845,1872,1963
1857,1773,1833
1853,1786,1806
1833,1822,1814
1795,1829,1783
1840,1845,1907
1889,1874,1970
1874,1811,1895
1862,1802,1756
1843,1808,1790
1807,1836,1891
1808,1728,1791
1859,1685,1742
1872,1721,1790
1776,1876,1886
1791,1853,1875
1825,1855,1926
1904,1894,2113
1843,1805,1920
1740,1728,1597
1766,1809,1677
1860,1824,1867
1893,1873,1966
1877,1837,1930
1824,1813,1905
1776,1852,1840
1839,1778,1790
1808,1766,1726
1825,1707,1712
1785,1763,1856
1835,1921,2113
1844,1904,1951
1831,1755,1717
1817,1790,1782
1875,1776,1901
1905,1825,1920
1859,1873,1899
1794,1826,1814
1795,1817,1872
1810,1815,1905
1806,1842,1890
1795,1868,1856
1815,1795,1781
1872,1802,1866
1840,1809,1830
1845,1803,1873
1849,1755,1872
1875,1876,1883
1786,1968,1807
1767,1808,1807
1791,1743,1874
1900,1824,2045
1894,1811,1921
1818,1776,1680
1840,1793,1758
1769,1806,1838
1803,1840,1936
1868,1821,1968
1847,1834,1898
1802,1845,1815
1814,1879,1872
1855,1838,1855
1845,1873,1796
1805,1790,1781
1847,1792,1887
1879,1841,1955
1938,1886,2051
1787,1763,1761
1730,1723,1735
1800,1794,1857
1790,1805,1859
1808,1839,1880
1872,1850,1890
1862,1767,1732
1832,1792,1851
1787,1935,1977
1779,1872,1876
1811,1825,1835
1857,1849,1872
1959,1903,1998
1897,1841,1853
1826,1792,1736
1820,1808,1927
1840,1872,1910
1781,1808,1762
1806,1946,1904
1822,1796,1856
1795,1716,1771
1811,1735,1797
1830,1840,1947
1809,1866,1947
1834,1791,1803
1865,1874,1914
1807,1841,1885
1782,1828,1758
1811,1823,1840
1913,1872,1961
1900,1862,1971
1808,1769,1769
1776,1776,1731
1834,1918,1861
1872,1872,1970
1866,1867,1949
1908,1879,1919
1876,1803,1718
1721,1790,1716
1776,1749,1851
1879,1946,1923
1908,1871,1900
1769,1745,1830
1755,1758,1865
1833,1872,1911
1838,1782,1831
1813,1791,1845
1870,1894,2034
1867,1855,1902
1806,1820,1753
1777,1859,1831
1851,1859,1939
1937,1808,1805
1875,1817,1763
1773,1799,1792
1778,1765,1856
1847,1840,1922
1852,1936,1907
1863,1890,1821
1837,1856,1856
1815,1733,1840
1810,1792,1952
1767,1872,1869
1813,1876,1867
1835,1798,1829
1913,1840,1899
1904,1837,1987
1862,1762,1739
1762,1765,1756
1808,1793,1861
1872,1843,1907
1793,1831,1830
1791,1857,1952
1883,1913,1951
1842,1818,1724
1776,1795,1701
1839,1863,1776
1872,1889,1872
1890,1870,1987
1898,1871,2085
1767,1712,1746
1756,1721,1637
1823,1866,1861
1904,1886,1969
1853,1744,1775
1785,1715,1746
1789,1823,1867
1847,1906,2130
1929,1840,1902
1847,1781,1664
1779,1765,1733
1821,1886,1961
1890,1941,2033
1886,1867,1882
1793,1790,1677
1826,1791,1755
1918,1906,1952
1854,1867,1930
1808,1802,1794
1826,1744,1686
1835,1755,1797
1813,1905,1941
1797,1875,1910
1819,1753,1851
1839,1809,1823
1847,1929,1872
1874,1835,1898
1922,1773,1835
1874,1828,1839
1777,1765,1840
1809,1783,1792
1824,1854,1874
1802,1893,2000
1779,1814,1798
1824,1793,1762
1839,1793,1775
1881,1899,1910
1902,1856,1868
1852,1770,1779
1808,1853,1941
1873,1827,1891
1867,1830,1857
1823,1776,1791
1807,1749,1779
1793,1785,1871
1818,1913,1903
1862,1891,1936
1856,1834,1823
1884,1835,1879
1818,1802,1842
1785,1817,1808
1883,1846,1837
1840,1776,1785
1829,1795,1809
1890,1819,1901
1895,1842,1934
1985,2015,1977
1807,1827,1791
1684,1815,1721
1782,1794,1872
1815,1712,1813
1815,1791,1796
1850,1858,1874
1863,1818,1854
1904,1803,1825
1838,1774,1835
1823,1892,1940
1835,1850,1867
1825,1846,1872
1839,1830,1874
1897,1858,1851
1838,1755,1773
1793,1794,1773
1867,1835,1872
1902,1861,2001
1837,1808,1790
1790,1799,1741
1784,1875,1814
1851,1840,1961
1874,1795,1827
1785,1817,1767
1763,1822,1818
1808,1835,1871
1877,1790,1914
1895,1780,1839
1857,1863,1951
1806,1871,1808
1817,1795,1712
1817,1830,1837
1853,1902,1936
1856,1871,1891
1923,1836,1891
1852,1815,1796
1831,1793,1799
1834,1801,1834
1801,1807,1810
1774,1805,1818
1834,1840,1954
1856,1798,1877
1846,1789,1819
1875,1795,1776
1851,1907,1810
1840,1856,1867
1888,1814,1909
1881,1783,1808
1808,1680,1719
1817,1917,1915
1789,1923,2112
1819,1895,1931
1869,1829,1769
1840,1797,1738
1891,1794,1785
1875,1831,1904
1802,1852,1840
1807,1732,1729
1894,1842,1901
1894,1967,2034
1791,1810,1872
1767,1775,1739
1805,1771,1809
1872,1805,1835
1845,1809,1834
1839,1763,1819
1868,1872,1957
1853,1851,1869
1821,1841,1834
1872,1872,1933
1871,1840,1908
1809,1878,1845
1841,1788,1738
1850,1735,1813
1767,1826,1897
1847,1853,1839
1920,1946,1904
1815,1810,1899
1781,1744,1771
1864,1839,1890
1920,1890,1957
1840,1759,1707
1823,1813,1793
1910,1856,1895
1829,1803,1898
1808,1758,1905
1836,1895,1904
1807,1854,1737
1796,1791,1738
1866,1783,1783
1879,1748,1861
1887,1936,2104
1875,1881,1921
1811,1860,1747
1799,1814,1808
1857,1870,2014
1884,1795,1874
1833,1777,1722
1856,1801,1808
1897,1904,2089
1872,1840,1968
1776,1730,1625
1802,1776,1702
1831,1871,1811
1887,1838,1915
1922,1731,1834
1810,1794,1871
1781,1906,1947
1849,1857,1911
1857,1809,1861
1834,1846,1920
1829,1872,1888
1861,1853,1888
1856,1794,1787
1827,1775,1772
1838,1859,1930
1866,1904,1993
1853,1834,1840
1847,1782,1714
1830,1845,1769
1891,1860,1841
1927,1838,1835
1936,1846,1867
1901,1741,1879
1818,1764,1886
1716,1808,1886
1777,1839,1887
1843,1823,1856
1873,1872,1878
1867,1798,1813
1843,1750,1799
1810,1856,1903
1863,1863,1915
1921,1882,1951
1861,1820,1843
1823,1793,1734
1876,1830,1788
1915,1879,1924
1881,1835,1941
1859,1817,1808
1857,1887,1855
1823,1851,1913
1859,1779,1778
1843,1808,1790
1859,1920,1825
1909,1762,1810
1793,1725,1882
1760,1797,1870
1855,1861,1855
1841,1807,1871
1888,1819,1886
1965,1810,1895
1883,1794,1801
1746,1861,1862
1803,1871,1904
1898,1857,1911
1949,1869,1889
1799,1773,1750
1776,1717,1712
1809,1859,1872
1858,1936,1930
1925,1901,1845
1961,1827,1799
1813,1730,1776
1763,1778,1840
1772,1794,1893
1877,1822,1891
1911,1843,1942
1904,1843,1858
1802,1820,1781
1773,1781,1775
1833,1808,1838
1887,1819,1887
1870,1825,1879
1867,1824,1881
1889,1887,1972
1856,1830,1837
1849,1685,1587
1840,1773,1727
1857,1907,1926
1871,1855,1929
1856,1843,1855
1842,1814,1774
1863,1869,1947
1857,1831,1888
1811,1884,1875
1782,1741,1737
1807,1766,1790
1856,1835,1867
1883,1869,1871
1819,1767,1797
1859,1793,1797
1905,1861,1920
1963,1887,1947
1907,1794,1840
1802,1813,1841
1798,1808,1755
1767,1744,1721
1849,1850,1892
1855,1863,1913
1831,1798,1759
1828,1746,1741
1893,1882,1914
1887,1933,1991
1823,1776,1755
1856,1774,1719
1820,1858,1850
1819,1857,1898
1847,1829,1902
1922,1869,2035
1846,1774,1763
1809,1765,1678
1801,1757,1701
1842,1827,1831
1882,1882,1951
1883,1854,1859
1871,1862,1835
1813,1805,1805
1814,1750,1773
1861,1857,1795
1907,1805,1897
1897,1799,1861
1835,1807,1756
1841,1786,1819
1855,1861,1904
1833,1886,1922
1799,1814,1781
1904,1837,1855
1900,1840,1883
1792,1754,1808
1798,1827,1818
1865,1794,1799
1855,1839,1849
1846,1873,1921
1817,1801,1799
1819,1776,1763
1846,1792,1803
1893,1872,1891
1851,1849,1919
1841,1774,1770
1872,1898,1775
1904,1835,1872
1805,1774,1877
1855,1734,1756
1886,1803,1777
1809,1879,1895
1767,1839,1824
1798,1811,1853
1884,1841,1859
1904,1867,1857
1936,1885,2042
1830,1840,1954
1750,1728,1587
1762,1745,1606
1826,1805,1785
1932,1857,1899
1942,1897,1917
1841,1878,1925
1839,1831,1885
1906,1782,1853
1870,1845,1861
1787,1743,1681
1781,1811,1744
1826,1808,1953
1846,1776,1931
1838,1819,1711
1807,1829,1776
1828,1840,1936
1873,1795,1824
1916,1808,1770
1849,1814,1812
1917,1865,1886
1841,1840,1883
1813,1792,1823
1834,1875,1904
1840,1862,1934
1847,1809,1714
1838,1818,1739
1843,1796,1824
1872,1817,1823
1935,1856,1892
1954,1814,1885
1819,1808,1813
1718,1826,1792
1715,1797,1905
1825,1817,1925
1862,1762,1844
1851,1750,1751
1861,1838,1809
1872,1885,1872
1854,1853,1995
1836,1809,1846
1869,1794,1728
1926,1774,1716
1925,1854,1887
1841,1889,1977
1811,1866,1866
1870,1794,1739
1809,1762,1745
1820,1869,1882
1829,1846,1887
1833,1765,1827
1794,1770,1834
1831,1819,1882
1844,1779,1872
1838,1805,1803
1835,1823,1831
2000,1901,1984
1885,1845,1878
1741,1778,1725
1798,1804,1818
1859,1847,1930
1859,1873,1891
1837,1806,1773
1859,1806,1824
1920,1850,1893
1874,1711,1696
1841,1786,1825
1863,1904,1895
1861,1840,1920
1845,1823,1891
1776,1770,1797
1806,1767,1817
1899,1821,1914
1855,1894,1984
1850,1745,1842
1822,1778,1767
1807,1811,1770
1824,1859,1872
1830,1843,1894
1882,1857,1953
1886,1815,1841
1902,1810,1725
1878,1850,1808
1815,1787,1808
1856,1808,1847
1887,1782,1842
1819,1867,1867
1839,1817,1789
1930,1826,1831
1798,1793,1855
1779,1760,1966
1860,1863,2081
1813,1773,1763
1785,1769,1667
1840,1814,1799
1911,1872,1995
1894,1882,1904
1872,1755,1742
1833,1813,1843
1834,1856,1931
1841,1790,1809
1819,1785,1765
1917,1761,1781
1834,1798,1827
1809,1871,1899
1840,1851,1849
1841,1855,1813
1802,1829,1831
1869,1872,1945
1920,1807,1900
1858,1767,1757
1775,1810,1751
1797,1841,1843
1906,1872,1926
1959,1727,1911
1858,1793,1804
1783,1792,1755
1796,1867,1883
1810,1870,1853
1855,1786,1773
1812,1759,1841
1808,1840,1898
1835,1811,1815
1875,1794,1827
1872,1839,1903
1858,1833,1858
1865,1838,1869
1793,1821,1805
1911,1795,1782
1856,1798,1809
1842,1858,1925
1791,1872,1908
1859,1813,1894
1907,1790,1840
1908,1755,1723
1778,1813,1824
1779,1847,1837
1823,1770,1887
1839,1781,1867
1791,1806,1872
1803,1761,1799
1810,1807,1789
1935,1851,1860
1889,1807,1872
1749,1806,1808
1794,1834,1838
1898,1851,1852
1860,1847,1931
1858,1789,1792
1880,1843,1775
1823,1775,1834
1851,1760,1822
1885,1861,1947
1863,1904,1873
1778,1753,1810
1785,1750,1767
1827,1795,1792
1936,1891,1874
1893,1913,2059
1757,1782,1847
1774,1705,1678
1866,1787,1802
1889,1833,1899
1843,1771,1796
1840,1803,1818
1840,1810,1825
1829,1853,1844
1867,1902,1995
1826,1838,1890
1793,1783,1712
1811,1801,1806
1831,1797,1875
1883,1826,1792
1949,1843,1783
1904,1798,1827
1915,1843,2027
1732,1761,1869
1707,1759,1679
1794,1840,1777
1860,1846,1926
1869,1792,1895
1879,1771,1895
1830,1845,1749
1838,1774,1791
1830,1837,1930
1789,1806,1796
1794,1807,1776
1925,1862,1949
1925,1852,1932
1851,1823,1815
1819,1796,1767
1806,1791,1744
1840,1854,1825
1917,1847,2062
1826,1719,1759
1775,1833,1714
1910,1834,1913
1899,1833,1954
1693,1779,1763
1741,1778,1741
1813,1761,1821
1854,1825,1859
1936,1922,1916
2015,1836,2035
1763,1789,1907
1716,1779,1746
1761,1767,1671
1820,1791,1758
1865,1829,1864
1932,1856,1978
1946,1904,2019
1798,1807,1783
1759,1774,1629
1829,1802,1737
1849,1851,1853
1949,1904,1840
1909,1803,1921
1817,1787,1917
1750,1695,1778
1776,1787,1829
1901,1886,1936
1834,1840,1975
1771,1790,1840
1774,1792,1712
1846,1770,1760
1939,1832,1868
1844,1815,1861
1798,1815,1857
1835,1841,1850
1899,1865,1895
1853,1831,1895
1883,1775,1845
1894,1822,1757
1778,1840,1776
1819,1773,1770
1837,1840,1861
1846,1827,1890
1833,1819,1869
1869,1903,1982
1890,1936,2148
1811,1757,1725
1806,1722,1600
1793,1751,1764
1815,1743,1829
1855,1819,1883
1883,1903,1914
1908,1886,2064
