1859,1815,1819
1851,1808,1779
1861,1815,1783
1883,1827,1822
1887,1821,1875
1865,1791,1786
1840,1805,1770
1847,1820,1811
1857,1807,1829
1853,1796,1811
1873,1850,1887
1879,1851,1929
1829,1766,1745
1822,1759,1712
1840,1792,1766
1855,1810,1808
1845,1789,1817
1813,1759,1804
1829,1771,1797
1879,1821,1818
1904,1840,1850
1888,1827,1852
1873,1827,1830
1862,1808,1837
1847,1776,1812
1856,1791,1824
1866,1808,1838
1871,1808,1849
1855,1783,1854
1851,1781,1840
1854,1795,1829
1862,1793,1821
1854,1776,1829
1857,1783,1850
1872,1813,1852
1870,1811,1846
1857,1792,1845
1865,1793,1854
1859,1785,1847
1825,1757,1831
1816,1743,1831
1872,1781,1856
1915,1831,1867
1898,1818,1856
1871,1795,1847
1863,1785,1857
1869,1787,1859
1861,1782,1845
1860,1764,1853
1867,1750,1859
1874,1763,1851
1865,1766,1841
1854,1751,1846
1856,1745,1858
1857,1758,1857
1855,1749,1847
1854,1731,1840
1873,1755,1850
1884,1782,1857
1877,1785,1851
1862,1755,1851
1856,1751,1872
1862,1763,1859
1863,1751,1832
1861,1738,1834
1841,1728,1847
1809,1713,1826
1801,1706,1814
1849,1731,1841
1940,1808,1904
1936,1823,1894
1879,1797,1863
1849,1770,1845
1867,1754,1867
1879,1761,1856
1846,1746,1839
1819,1744,1837
1855,1762,1846
1873,1787,1863
1869,1789,1871
1838,1751,1862
1827,1738,1851
1859,1761,1826
1872,1787,1835
1874,1773,1851
1888,1773,1895
1915,1776,1946
1879,1693,1776
1877,1665,1741
1902,1782,1840
1859,1802,1898
1829,1811,1983
1743,1729,1823
1795,1708,1715
1806,1775,1763
1791,1741,1808
1802,1712,1837
1824,1713,1829
1874,1728,1746
1830,1712,1813
1798,1711,1849
1810,1723,1845
1841,1761,1863
1840,1766,1843
1825,1734,1801
1835,1744,1819
1854,1743,1807
1855,1877,1833
1837,1728,1819
1802,1643,1766
1808,1742,1833
1773,1792,1862
1798,1798,1862
1799,1718,1858
1768,1710,1818
1789,1744,1802
1807,1751,1814
1818,1762,1833
1826,1783,1847
1825,1797,1858
1825,1781,1857
1819,1776,1831
1827,1808,1838
1837,1809,1834
1829,1783,1836
1821,1783,1815
1850,1851,1793
1840,1792,1818
1779,1741,1877
1782,1777,1865
1809,1775,1840
1872,1808,1815
1811,1719,1841
1776,1748,1872
1807,1831,1904
1797,1894,1835
1809,1763,1834
1807,1749,1830
1810,1817,1842
1834,1829,1840
1829,1815,1845
1808,1840,1871
1836,1869,1861
1833,1799,1834
1826,1840,1827
1857,1737,1836
1815,1778,1874
1811,1751,1815
1808,1812,1839
1808,1842,1865
1825,1858,1874
1831,1905,1855
1809,1836,1842
1827,1810,1862
1834,1815,1846
1840,1782,1791
1808,1865,1856
1802,1856,1872
1825,1869,1872
1839,1878,1854
1844,1869,1849
1839,1859,1893
1803,1805,1825
1797,1799,1789
1824,1757,1805
1799,1807,1872
1817,1840,1856
1847,1771,1813
1804,1846,1877
1793,1917,1936
1819,1963,1848
1809,1824,1793
1808,1776,1814
1821,1792,1840
1808,1829,1838
1823,1853,1861
1825,1891,1881
1833,1866,1809
1830,1811,1811
1838,1849,1822
1829,1775,1795
1811,1719,1793
1791,1803,1872
1825,1807,1821
1833,1847,1850
1808,1872,1863
1807,1868,1838
1813,1873,1840
1840,1879,1858
1813,1855,1899
1842,1873,1769
1825,1791,1789
1802,1825,1845
1831,1872,1823
1806,1826,1870
1818,1863,1903
1842,1819,1872
1857,1856,1840
1825,1830,1777
1808,1780,1783
1787,1819,1856
1805,1849,1858
1818,1859,1840
1837,1897,1858
1860,1893,1887
1865,1853,1855
1822,1843,1827
1808,1863,1790
1831,1858,1825
1871,1858,1839
1812,1796,1808
1757,1794,1827
1769,1820,1824
1814,1794,1838
1874,1810,1872
1867,1787,1814
1851,1778,1797
1863,1852,1871
1841,1886,1910
1868,1865,1977
1831,1846,1815
1790,1830,1744
1850,1847,1755
1882,1850,1852
1873,1834,1904
1825,1783,1856
1829,1887,1862
1843,1899,1840
1926,1937,1953
1935,1867,2011
1904,1872,1779
1808,1831,1723
1776,1719,1765
1807,1730,1810
1862,1846,1874
1854,1829,1866
1839,1713,1776
1849,1819,1840
1860,1941,1947
1893,1938,1935
1873,1859,1835
1874,1878,1808
1859,1856,1823
1885,1835,1821
1887,1833,1863
1846,1856,1826
1862,1856,1877
1904,1934,1883
1874,1791,1803
1856,1760,1809
1881,1777,1843
1910,1815,1994
1915,1875,2097
1779,1754,1803
1761,1793,1757
1901,2000,2173
1904,1985,2195
1887,1807,1785
1842,1759,1646
1854,1877,1936
1856,1911,2014
1840,1795,1592
1781,1678,1639
1840,1771,1881
1872,1857,2026
1820,1717,1808
1840,1811,1946
1881,1922,2158
1808,1795,1724
1822,1762,1688
1891,1840,1871
1840,1811,1776
1809,1831,1782
1823,1843,1850
1887,1850,2039
1906,1835,1904
1818,1718,1702
1815,1909,1737
1917,1798,1846
1926,1729,1843
1873,1763,1856
1842,1734,1848
1770,1840,1875
1807,1869,1920
1840,1837,1843
1804,1806,1841
1793,1830,1885
1818,1758,1807
1811,1758,1831
1835,1783,1861
1893,1791,1813
1894,1915,1871
1872,1842,1856
1819,1833,1815
1803,1699,1795
1840,1790,1845
1843,1695,1829
1817,1840,1920
1795,1867,1863
1814,1842,1815
1795,1813,1824
1825,1810,1861
1847,1868,1861
1829,1851,1857
1806,1791,1833
1800,1771,1840
1845,1821,1889
1861,1831,1844
1814,1802,1878
1791,1774,1873
1861,1872,1891
1855,1826,1887
1808,1764,1825
1833,1818,1873
1824,1735,1778
1825,1809,1867
1767,1762,1857
1776,1835,1892
1870,1863,2005
1895,1821,1915
1779,1744,1711
1744,1722,1727
1776,1795,1819
1829,1825,1885
1866,1973,2130
1831,1884,1999
1807,1712,1600
1802,1750,1648
1794,1776,1840
1824,1821,1935
1855,1762,1843
1813,1783,1817
1827,1765,1815
1890,1808,1838
1902,1904,1951
1898,1902,1979
1843,1854,1783
1770,1784,1744
1783,1771,1762
1826,1759,1825
1873,1883,1881
1877,1927,1900
1839,1905,1857
1927,2085,1895
1901,1889,1850
1738,1619,1808
1743,1709,1819
1820,1839,1831
1843,1709,1767
1793,1659,1843
1799,1783,1874
1808,1829,1855
1810,1836,1838
1806,1853,1853
1797,1838,1853
1814,1827,1855
1862,1877,1857
1840,1809,1827
1792,1782,1827
1790,1833,1843
1825,1860,1847
1859,1871,1813
1834,1719,1809
1759,1744,1838
1770,1785,1869
1842,1859,1975
1812,1814,1921
1814,1804,1763
1829,1871,1886
1891,1951,2256
1825,1834,1835
1791,1783,1582
1794,1728,1629
1805,1728,1776
1818,1843,1835
1807,1971,1871
1808,1834,1911
1770,1789,1830
1789,1793,1766
1833,1711,1856
1875,1761,1844
1814,1808,1825
1761,1810,1831
1809,1837,1866
1829,1808,1842
1812,1767,1797
1825,1857,1837
1990,1945,1824
2033,1770,1823
1741,1794,1887
1680,1840,1879
1797,1826,1845
1846,1824,1856
1808,1815,1843
1783,1819,1827
1805,1843,1821
1834,1877,1788
1869,1733,1839
1827,1783,1876
1799,1797,1861
1808,1792,1856
1837,1833,1846
1834,1847,1840
1834,1857,1819
1862,1840,1765
1856,1775,1873
1797,1834,1903
1793,1847,1872
1827,1824,1875
1845,1841,1905
1918,1906,1961
1858,1839,1808
1853,1789,1882
1843,1739,1954
1799,1744,1747
1815,1793,1819
1902,1904,2097
1885,1805,1922
1795,1790,1681
1884,1855,1938
1840,1829,1840
1753,1810,1747
1837,1927,2023
1850,1855,1935
1842,1807,1759
1892,1876,1979
1872,1872,1840
1815,1796,1632
1814,1726,1728
1851,1812,1869
1870,1731,1850
1872,1744,1795
1885,1715,1733
1837,1811,1866
1822,1866,1922
1851,1892,1898
1840,1859,1872
1840,1821,1854
1871,1833,1851
1899,1866,1850
1871,1870,1847
1840,1808,1849
1847,1840,1841
1873,1891,1851
1867,1814,1850
1851,1754,1845
1872,1815,1851
1981,1744,1851
1957,1745,1778
1828,1950,1877
1834,1910,1887
1851,1846,1845
1829,1827,1869
1810,1793,1927
1824,1821,1879
1826,1829,1808
1878,1859,1831
1900,1877,1871
1959,1893,1872
1895,1894,1958
1787,1807,1919
1755,1745,1791
1799,1743,1726
1898,1808,1755
2019,1847,1808
1989,1910,1933
1818,1933,1998
1765,1892,1989
1877,1762,1834
1878,1776,1716
1821,1877,1939
1865,1968,1989
1904,1795,1835
1735,1731,1696
1825,1865,1986
1891,1829,1914
1797,1663,1599
1765,1806,1664
1781,1854,1766
1824,1898,1830
1842,1903,1813
1879,1742,1767
1915,1835,1904
1847,1846,1903
1807,1889,1753
1803,1776,1654
1839,1810,1770
1885,1735,1771
1841,1756,1730
1800,1840,1791
1806,1877,1853
1875,1863,1934
1840,1881,1873
1782,1843,1669
1808,1775,1706
1850,1808,1834
1826,1799,1777
1843,1805,1748
1929,1761,1791
1997,1859,1855
1894,1890,1874
1767,1827,1800
1739,1786,1701
1822,1824,1758
1859,1827,1748
1834,1818,1821
1838,1900,1872
1878,1846,1805
1843,1822,1795
1809,1874,1776
1859,1811,1904
1872,1781,1907
1847,1781,1753
1831,1771,1699
1831,1785,1796
1861,1797,1835
1895,1727,1766
1897,1810,1838
1872,1913,1828
1791,1902,1826
1790,1830,1785
1856,1841,1802
1887,1890,1823
1865,1794,1806
1850,1849,1875
1840,1791,1810
1840,1915,1790
1842,1829,1758
1845,1758,1826
1855,1797,1891
1889,1822,1851
1911,1709,1777
1857,1772,1766
1829,1902,1879
1836,1905,1869
1836,1858,1845
1859,1807,1738
1839,1809,1762
1856,1949,1831
1920,1881,1878
1815,1762,1905
1822,1726,1833
1833,1786,1823
1853,1835,1776
1871,1819,1806
1873,1809,1856
1937,1754,1809
1929,1835,1870
1845,1854,1839
1778,1856,1825
1823,1827,1835
1847,1808,1837
1886,1823,1894
1872,1866,1937
1846,1837,1808
1856,1840,1769
1869,1864,1808
1872,1842,1843
1840,1735,1811
1840,1770,1826
1838,1755,1818
1844,1738,1834
1849,1834,1871
1865,1873,1861
1878,1840,1868
1879,1837,1887
1893,1822,1808
1901,1898,1850
1872,1811,1904
1869,1792,1958
1862,1783,1741
1834,1808,1751
1851,1872,1887
1851,1776,1919
1936,1794,1843
1909,1904,1857
1837,1861,1925
1820,1847,1873
1857,1746,1776
1826,1863,1801
1829,1872,1831
1869,1779,1835
1968,1807,1826
1889,1816,1840
1814,1829,1904
1795,1822,1903
1840,1789,1843
1935,1861,1854
2013,2023,2037
1951,1977,1936
1811,1746,1738
1829,1782,1808
1883,1866,1894
1780,1815,1778
1790,1731,1786
1855,1803,1936
1829,1819,1936
1807,1795,1824
1813,1809,1867
1862,1892,2135
1856,1771,1763
1838,1766,1645
1819,1855,1834
1814,1719,1811
1791,1794,1773
1857,1839,1873
1872,1850,1965
1817,1893,2001
1773,1820,1759
1825,1769,1717
1881,1804,1764
1841,1811,1835
1831,1893,1911
1927,1895,1959
1858,1830,1885
1754,1765,1777
1795,1819,1946
1873,1791,1962
1841,1805,1888
1757,1774,1759
1773,1792,1785
1858,1802,1839
1854,1811,1791
1797,1888,1803
1793,1782,1774
1840,1759,1829
1851,1739,1909
1803,1817,1810
1802,1839,1795
1789,1847,1900
1788,1809,1904
1834,1805,1856
1876,1859,1925
1850,1821,1851
1795,1765,1779
1861,1792,1825
1809,1815,1806
1773,1781,1870
1810,1824,1923
1885,1805,1895
1872,1789,1808
1885,1803,1835
1879,1731,1721
1785,1853,1808
1775,1872,1953
1801,1773,1883
1875,1776,1823
1915,1810,1835
1872,1871,1927
1861,1849,1935
1808,1789,1780
1808,1802,1768
1840,1697,1817
1842,1777,1931
1842,1829,1888
1883,1790,1834
1851,1808,1855
1872,1833,1888
1885,1835,1904
1840,1872,1792
1818,1726,1791
1845,1859,1956
1865,1815,1881
1853,1750,1785
1831,1774,1850
1823,1797,1899
1856,1799,1825
1886,1853,1799
1905,1826,1897
1843,1798,1936
1843,1725,1878
1843,1776,1751
1877,1808,1751
1815,1827,1840
1890,1782,1892
1906,1837,1907
1869,1984,1840
1814,1750,1803
1904,1807,1973
1872,1761,1872
1878,1756,1841
1840,1747,1857
1797,1810,1778
1872,1827,1844
1906,1828,1875
1888,1918,1851
1872,1778,1802
1823,1781,1792
1797,1769,1795
1821,1776,1834
1840,1776,1898
1888,1737,1763
1859,1783,1779
1826,1799,1862
1904,1884,1961
1921,1791,1861
1863,1783,1842
1931,1872,1895
1849,1823,1845
1814,1808,1929
1833,1744,1755
1808,1818,1723
1824,1917,1812
1824,1870,1865
1840,1790,1887
1919,1777,2000
1841,1760,1727
1805,1745,1693
1859,1766,1888
1924,1800,1869
1895,1849,1851
1786,1826,1857
1801,1795,1847
1840,1779,1851
1846,1811,1814
1947,1853,1858
1933,1753,1861
1790,1807,1844
1754,1881,1815
1866,1930,1787
1921,1947,1827
1794,1744,1854
1811,1718,1931
1829,1753,1838
1877,1854,1890
1869,1810,1785
1853,1699,1686
1840,1803,1826
1815,1809,1843
1811,1781,1854
1921,1851,1874
1903,1875,1872
1811,1840,1840
1824,1836,1905
1836,1825,1840
1840,1840,1750
1841,1824,1754
1860,1824,1831
1879,1851,1883
1867,1781,1875
1925,1844,1872
1831,1766,1821
1803,1766,1789
1833,1894,1895
1791,1781,1833
1844,1744,1789
1863,1770,1780
1863,1767,1787
1857,1824,1840
1840,1835,1843
1825,1843,1849
1898,1840,1895
1867,1883,1911
1822,1770,1826
1821,1845,1901
1846,1824,1751
1821,1744,1745
1812,1826,1844
1859,1886,1958
1858,1875,1889
1893,1849,1943
1872,1715,1791
1808,1723,1719
1808,1791,1790
1824,1808,1829
1855,1826,1872
1891,1819,1872
1923,1810,1872
1875,1899,1851
1829,1833,1725
1849,1859,1948
1847,1853,1934
1917,1808,1925
1866,1801,1776
1795,1792,1755
1813,1776,1795
1827,1818,1887
1867,1903,1936
1906,1840,1825
1926,1841,1766
1901,1787,1805
1841,1766,1821
1808,1837,1857
1840,1865,1862
1789,1753,1810
1903,1791,1937
1897,1889,1991
1815,1769,1733
1802,1777,1744
1832,1840,1869
1947,1881,1941
1924,1871,1968
1763,1774,1745
1807,1803,1743
1878,1846,1803
1856,1822,1853
1845,1849,1871
1862,1907,1882
1878,1799,1840
1911,1712,1774
1873,1803,1882
1834,1964,1959
1792,1868,1887
1808,1858,1875
1797,1846,1793
1794,1624,1712
1806,1762,1780
1856,1869,1843
1870,1856,1847
1843,1819,1838
1841,1830,1836
1856,1853,1857
1867,1831,1824
1874,1808,1817
1914,1828,1869
1878,1897,1939
1829,1926,2005
1785,1856,1767
1840,1847,1733
1799,1779,1759
1808,1781,1787
1842,1815,1825
1872,1867,1844
1897,1942,1841
1866,1826,1805
1833,1687,1823
1837,1807,1872
1855,1858,1872
1897,1808,1938
1869,1788,1878
1823,1846,1769
1835,1909,1789
1853,1861,1824
1871,1803,1834
1883,1868,1870
1868,1883,1846
1837,1878,1860
1836,1904,1870
1860,1840,1866
1875,1936,1885
1854,1825,1934
1834,1757,1906
1853,1847,1891
1911,1904,1842
1906,1905,1840
1843,1835,1840
1861,1877,1847
1905,1782,1840
1838,1770,1878
1789,1783,1885
1831,1840,1879
1872,1831,1854
1898,1797,1840
1923,1943,1981
2029,2082,2113
1936,2073,1936
1759,1790,1719
1744,1693,1732
1811,1805,1873
1950,1871,1902
1953,1822,1919
1872,1703,1859
1751,1795,1824
1712,1826,1878
1770,1811,1895
1818,1843,1807
1872,1661,1771
1871,1904,1979
1869,1935,2032
1893,1915,1881
1867,1814,1797
1763,1855,1854
1712,1851,1893
1761,1834,1846
1849,1873,1855
1872,1791,1933
1890,1840,1949
1918,1883,1848
1826,1788,1791
1734,1779,1835
1757,1840,1937
1898,1965,2152
1964,1900,2001
1817,1648,1650
1712,1781,1718
1744,1839,1770
1795,1744,1777
1766,1798,1849
1798,1778,1835
1815,1818,1863
1879,1855,1929
1847,1831,1841
1766,1840,1825
1791,1871,1952
1881,1872,1959
1837,1807,1766
1810,1789,1739
1813,1810,1795
1827,1874,1840
1840,1904,1841
1841,1766,1823
1846,1776,1938
1858,1826,2000
1845,1867,1811
1818,1760,1744
1824,1744,1849
1843,1819,1968
1841,1840,1887
1819,1828,1821
1792,1750,1803
1815,1805,1836
1839,1862,1859
1842,1834,1853
1898,1829,1879
1894,1812,1882
1831,1847,1878
1808,1859,1855
1847,1907,1847
1859,1815,1862
1843,1788,1874
1873,1815,1894
1857,1831,1885
1869,1852,1833
1856,1829,1818
1855,1782,1900
1882,1785,1870
1867,1802,1863
1856,1779,1814
1859,1781,1776
1826,1759,1798
1844,1791,1875
1851,1890,1948
1819,1862,1845
1847,1847,1839
1899,1888,1967
1879,1822,1868
1871,1785,1703
1855,1776,1776
1895,1885,1936
1941,1923,1876
1834,1789,1779
1794,1746,1789
1849,1840,1935
1905,1873,1874
1871,1684,1712
1808,1792,1834
1820,1838,1850
1869,1794,1874
1973,1884,2107
2002,1806,1838
1828,1750,1682
1745,1744,1709
1798,1744,1754
1834,1897,1878
1890,1909,1938
1927,1947,2027
1883,1799,1828
1803,1681,1648
1840,1730,1763
1909,1843,1938
1862,1792,1788
1853,1766,1774
1904,1852,1904
1967,1837,1830
1874,1814,1815
1810,1724,1843
1837,1826,1995
1859,1834,1758
1843,1840,1729
1851,1767,1761
1874,1798,1823
1894,1811,1922
1923,1845,1982
1843,1877,1871
1792,1775,1677
1841,1747,1778
1875,1741,1846
1842,1807,1778
1844,1789,1829
1918,1845,1958
1969,1849,1922
1826,1773,1774
1773,1820,1717
1856,1809,1776
1886,1823,1890
1867,1811,1844
1888,1853,1890
1879,1803,1904
1825,1712,1645
1828,1854,1810
1840,1906,1862
1862,1757,1830
1863,1792,1847
1851,1818,1904
1826,1785,1811
1808,1728,1744
1801,1787,1779
1899,1749,1849
1900,1734,1824
1848,1889,1977
1789,1819,1840
1823,1791,1737
1808,1803,1745
1839,1857,1840
1871,1799,1914
2000,1792,1790
1901,1835,1856
1776,1933,1891
1822,1915,1902
1839,1689,1695
1750,1624,1636
1831,1717,1739
1907,1805,1897
1844,1840,1938
1779,1809,1831
1808,1872,1807
1862,1798,1770
1801,1761,1810
1809,1749,1753
1925,1841,1951
1889,1853,1808
1896,1856,1744
1805,1836,1834
1785,1828,1907
1797,1872,1874
1802,1884,1735
1914,1722,1738
1868,1695,1749
1749,1797,1909
1820,1843,1981
1819,1770,1758
1792,1860,1757
1823,1807,1818
1895,1775,1761
1838,1850,1835
1861,1907,2015
1843,1826,1844
1786,1814,1797
1794,1808,1777
1865,1857,1805
1889,1879,1885
1776,1771,1729
1810,1737,1700
1958,1936,1948
1879,1889,1905
1722,1749,1733
1722,1727,1715
1806,1739,1767
1888,1792,1922
1914,1940,1921
1758,1847,1819
1761,1858,1847
1821,1831,1873
1875,1808,1903
1855,1790,1759
1781,1855,1712
1803,1812,1790
1844,1801,1901
1895,1750,1806
1830,1829,1761
1767,1857,1783
1799,1837,1872
1900,1879,1936
1869,1856,1886
1791,1789,1751
1770,1712,1702
1776,1803,1773
1840,1914,1923
1866,1936,2057
1853,1839,1863
1829,1792,1808
1814,1824,1812
1851,1815,1772
1839,1792,1754
1849,1735,1747
1809,1841,1909
1814,1935,1874
1803,1825,1850
1811,1805,1808
1841,1838,1839
1858,1821,1869
1886,1791,1810
1858,1838,1867
1787,1852,1841
1775,1840,1862
1825,1859,2003
1846,1792,1803
1864,1866,1730
1886,1807,1871
1813,1718,1831
1794,1770,1916
1827,1882,1894
1845,1808,1727
1834,1789,1727
1911,1835,1832
1840,1827,1870
1797,1807,1897
1840,1789,1895
1936,1840,1843
1883,1857,1862
1777,1801,1845
1771,1873,1878
1818,1872,1872
1819,1757,1759
1841,1765,1765
1904,1797,1895
1871,1808,1974
1802,1845,1903
1775,1838,1840
1839,1797,1766
1833,1735,1737
1872,1819,1919
1887,1888,1963
1829,1777,1818
1825,1808,1807
1839,1859,1888
1857,1837,1919
1851,1787,1778
1834,1810,1809
1851,1826,1809
1872,1831,1838
1813,1840,1871
1840,1776,1861
1856,1923,1970
1840,1906,1904
1808,1919,1785
1755,1689,1755
1813,1743,1824
1872,1783,1922
1860,1808,2013
1819,1733,1773
1819,1741,1729
1850,1840,1856
1889,1834,1893
1819,1843,1890
1807,1817,1806
1840,1822,1861
1894,1837,1919
1909,1825,1891
1936,1823,1822
1915,1813,1813
1814,1883,1871
1736,1778,1856
1829,1733,1831
1777,1799,1821
1803,1917,1939
1854,1829,1920
1842,1744,1859
1792,1763,1849
1805,1761,1751
1905,1872,1865
1898,1815,1920
1904,1855,1945
1908,1849,1903
1797,1735,1706
1761,1790,1777
1790,1882,1917
1885,1840,1979
1911,1844,1941
1817,1926,1781
1727,1770,1712
1796,1775,1856
1920,1824,1987
1958,1847,1826
1806,1757,1837
1814,1777,1858
1872,1827,1889
1779,1786,1840
1841,1750,1841
1847,1716,1775
1829,1812,1869
1851,1892,2013
1840,1843,1883
1840,1811,1894
1838,1812,1829
1844,1840,1797
1840,1815,1819
1876,1837,1939
1863,1825,1909
1871,1792,1819
1857,1922,1792
1877,1861,1798
1864,1728,1846
1994,1654,1839
1799,1779,1872
1712,1817,1842
1757,1779,1842
1861,1821,1927
1853,1815,1895
1841,1778,1805
1883,1774,1829
1875,1872,1827
1867,1904,1968
1861,1856,2013
1879,1797,1778
1819,1756,1749
1786,1754,1796
1813,1898,1856
1902,1843,1906
1869,1779,1950
1815,1691,1757
1819,1745,1825
1840,1844,1876
1875,1933,1936
1838,1749,1847
1844,1750,1823
1862,1865,1879
1966,1825,1890
1955,1799,1862
1799,1815,1895
1712,1777,1765
1791,1779,1724
1825,1798,1793
1856,1833,1919
1889,1870,1882
1882,1871,1882
1808,1754,1852
1801,1698,1833
1882,1744,1839
1899,1853,1898
1805,1863,1968
1853,1824,1854
1872,1807,1725
1847,1780,1772
1798,1776,1909
1857,1875,1988
1856,1814,1844
1845,1808,1787
1833,1779,1765
1896,1785,1810
1843,1803,1856
1827,1821,1882
1853,1876,1889
1844,1841,1894
1863,1795,1807
1841,1715,1815
1808,1695,1821
1805,1812,1895
1898,1833,1931
1923,1808,1834
1863,1819,1869
1774,1827,1815
1824,1845,1799
1888,1927,1872
1898,1776,1874
1816,1765,1870
1845,1834,1891
1825,1826,1802
1825,1818,1799
1842,1809,1835
1929,1861,1918
1872,1893,1873
1850,1904,1968
1857,1775,1749
1840,1753,1719
1830,1698,1802
1822,1738,1854
1840,1791,1909
1862,1894,1986
1879,1951,1891
1872,1921,1792
1909,1763,1860
1808,1757,1909
1810,1823,1806
1845,1856,1850
1866,1821,1840
1850,1840,1774
1871,1840,1808
1885,1876,1921
1836,1810,1961
1808,1877,1801
1840,1793,1780
1879,1779,1847
1883,1747,1900
1895,1759,1879
1872,1800,1854
1878,1792,1835
1867,1776,1806
1814,1820,1843
1813,1891,1881
1872,1922,1971
1889,1916,1941
1799,1763,1728
1799,1771,1734
1868,1813,1860
1943,1810,1885
1892,1819,1860
1828,1868,1836
1840,1863,1854
1895,1855,2054
1844,1771,1840
1846,1633,1679
1803,1730,1734
1847,1890,1978
1918,1964,2006
1879,1827,1934
1834,1789,1823
1827,1749,1701
1885,1845,1803
1936,1855,1922
1850,1840,1879
1831,1777,1842
1826,1788,1810
1856,1831,1834
1941,1874,1875
1869,1811,1873
1818,1743,1799
1805,1808,1828
1825,1872,1860
1875,1867,1882
1903,1793,1791
1857,1755,1851
1787,1819,1875
1807,1841,1835
1858,1840,1814
1885,1818,1858
1855,1795,1834
1858,1830,1870
1900,1791,1882
1866,1840,1931
1840,1801,1839
1840,1791,1805
1839,1789,1823
1890,1839,1872
1871,1858,1909
1843,1856,1845
1839,1852,1847
1904,1907,2041
1825,1718,1776
1808,1758,1714
1866,1867,1805
1895,1762,1823
1872,1801,1894
1867,1847,1878
1890,1854,1781
1794,1811,1884
1821,1806,2033
1878,1751,1838
1898,1815,1764
1863,1881,1933
1872,1856,1957
1821,1770,1738
1831,1794,1745
1919,1882,1922
1901,1843,1981
1845,1840,1747
1850,1845,1778
1854,1739,1827
1884,1752,1914
1842,1792,1872
1829,1885,1797
1909,1910,1809
1907,1798,1986
1782,1749,1873
1821,1822,1809
1857,1822,1769
1822,1790,1811
1845,1818,1905
1875,1843,1856
1901,1818,1861
1827,1760,1776
1819,1761,1839
1854,1872,1949
1869,1859,1870
1841,1842,1773
1842,1776,1861
1905,1885,1862
1850,1773,1799
1833,1808,1968
1821,1751,1840
1939,1773,1776
1862,1823,1798
1838,1817,1873
1835,1858,1984
1809,1838,1808
1851,1872,1739
1891,1825,1881
1867,1813,1941
1835,1785,1828
1858,1799,1799
1906,1809,1808
1850,1778,1772
1802,1898,1963
1828,1834,1939
1854,1825,1787
1851,1642,1735
1859,1795,1836
1904,1871,1887
1843,1823,1840
1884,1843,1894
1888,1861,1914
1858,1790,1772
1835,1825,1856
1837,1783,1818
1874,1837,1794
1855,1891,1813
1840,1814,1821
1827,1879,1872
1873,1827,1938
1887,1780,1815
1869,1871,1830
1813,1793,1878
1871,1753,1779
1839,1665,1781
1802,1821,1936
1799,1808,1825
1876,1845,1773
1915,1850,1869
1853,1735,1771
1814,1791,1775
1886,1891,1919
1924,1936,2031
1872,1851,1901
1877,1807,1747
1802,1809,1723
1825,1818,1820
1792,1823,1810
1837,1828,1822
1907,1839,1856
1904,1773,1932
1783,1774,1883
1803,1766,1825
1834,1811,1787
1886,1837,1791
1897,1823,1791
1872,1750,1792
1867,1803,1802
1836,1936,1939
1835,1954,2006
1806,1843,1995
1810,1789,1744
1873,1839,1654
1919,1782,1743
1809,1828,1841
1828,1902,1922
1890,1904,1839
1836,1680,1812
1843,1746,1869
1881,1795,1851
1902,1808,1792
1824,1790,1808
1776,1881,1861
1829,1897,1847
1832,1809,1837
1841,1823,1871
1860,1868,1979
1878,1859,1863
1857,1805,1730
1827,1833,1787
1855,1840,1845
1929,1947,1861
1879,1962,1859
1822,1698,1761
1806,1668,1770
1853,1752,1826
1930,1820,1812
1855,1823,1891
1815,1850,1931
1811,1840,1865
1842,1856,1810
1847,1811,1871
1836,1808,1810
1861,1850,1829
1893,1873,1872
1934,1857,1928
1840,1853,1811
1823,1877,1808
1876,1872,1775
1823,1713,1729
1810,1835,1858
1843,1840,1846
1856,1711,1830
1805,1783,1808
1810,1829,1890
1845,1832,1890
1911,1842,1827
1902,1856,1905
1872,1829,1909
1784,1809,1808
1843,1850,1850
1856,1840,1808
1808,1815,1734
1922,1774,1760
1882,1871,1895
1824,1904,1872
1817,1899,1862
1853,1839,1959
1838,1751,1742
1810,1635,1679
1841,1817,1875
1904,1926,1936
1904,1826,1833
1878,1798,1851
1795,1798,1820
1834,1897,1954
1881,1877,1878
1819,1823,1771
1837,1826,1893
1857,1838,1878
1904,1840,1764
1933,1815,1744
1819,1776,1755
1819,1917,1904
1852,1904,1835
1840,1877,1867
1830,1730,1791
1827,1692,1749
1782,1822,1823
1814,1870,1918
1857,1855,1947
1872,1845,1840
1856,1840,1761
1863,1842,1808
1865,1917,2032
1893,1807,1858
1865,1791,1730
1828,1795,1776
1879,1889,1870
1857,1850,1874
1868,1856,1839
1840,1865,1887
1871,1903,1870
1827,1787,1809
1840,1771,1760
1856,1745,1735
1851,1885,1855
1776,1790,1888
1781,1841,1843
1819,1821,1849
1871,1778,1845
1886,1803,1818
1890,1924,1985
1902,1919,1984
1871,1858,1724
1842,1776,1665
1785,1847,1798
1826,1813,1920
1827,1715,1903
1842,1852,1883
1840,1855,1749
1887,1813,1790
1906,1818,1862
1849,1836,1895
1829,1819,1763
1795,1839,1779
1935,1906,1936
1946,1755,1857
1779,1763,1774
1765,1820,1820
1842,1787,1842
1872,1925,1898
1847,1790,1862
1843,1870,1824
1808,1827,1783
1843,1828,1872
1893,1879,1909
1872,1824,1827
1872,1787,1803
1815,1773,1794
1877,1851,1889
1807,1824,1776
1760,1794,1806
1841,1869,1922
1917,1808,1744
1869,1762,1761
1775,1829,1900
1809,1857,1872
1824,1871,1799
1816,1856,1825
1878,1829,1937
1887,1847,1968
1821,1790,1745
1841,1789,1844
1824,1807,1883
1829,1798,1789
1821,1878,1841
1850,1879,1792
1894,1845,1889
1797,1733,1808
1791,1787,1718
1824,1858,1921
1867,1857,2000
1826,1823,1796
1868,1827,1712
1904,1794,1781
1849,1822,1843
1812,1855,1917
1867,1907,1909
1853,1755,1766
1742,1775,1776
1783,1890,1977
1853,1953,2002
1839,1792,1725
1798,1719,1709
1843,1823,1913
1867,1786,1895
1931,1890,1938
1893,1852,1849
1820,1809,1703
1840,1869,1840
