1852,1856,1840
1835,1791,1839
1851,1839,1847
1853,1837,1847
1840,1819,1846
1839,1824,1840
1852,1874,1821
1856,1742,1790
1846,1770,1856
1819,1856,1883
1841,1904,1849
1846,1774,1788
1806,1776,1850
1827,1878,1857
1845,1751,1823
1847,1802,1838
1835,1837,1877
1829,1829,1867
1836,1814,1844
1840,1819,1835
1840,1811,1838
1855,1821,1850
1851,1855,1842
1838,1834,1840
1840,1815,1843
1841,1823,1846
1872,1872,1849
1857,1859,1828
1834,1743,1793
1808,1799,1857
1853,1870,1883
1853,1843,1852
1823,1727,1835
1820,1738,1840
1808,1848,1840
1818,1843,1827
1831,1877,1855
1840,1813,1856
1840,1827,1852
1843,1818,1840
1841,1808,1844
1845,1811,1840
1847,1831,1838
1851,1826,1840
1856,1785,1811
1842,1781,1827
1858,1813,1810
1859,1855,1872
1844,1909,1885
1805,1794,1850
1830,1792,1841
1820,1806,1856
1840,1744,1834
1827,1740,1838
1824,1869,1859
1824,1913,1841
1829,1796,1842
1827,1801,1854
1842,1898,1830
1840,1832,1850
1840,1821,1867
1846,1806,1845
1868,1782,1799
1853,1861,1862
1827,1855,1869
1844,1823,1856
1850,1805,1840
1850,1799,1834
1853,1839,1850
1857,1856,1862
1846,1872,1833
1837,1761,1776
1821,1740,1824
1826,1791,1872
1825,1811,1863
1831,1815,1840
1840,1807,1841
1850,1825,1846
1846,1858,1855
1846,1802,1814
1850,1795,1819
1856,1867,1851
1847,1887,1843
1861,1791,1794
1845,1794,1841
1839,1857,1863
1847,1863,1840
1856,1855,1840
1857,1887,1866
1851,1787,1840
1808,1755,1835
1825,1775,1840
1822,1817,1841
1830,1818,1838
1840,1802,1837
1873,1801,1822
1856,1802,1834
1840,1823,1857
1863,1866,1857
1845,1830,1845
1840,1792,1850
1847,1810,1840
1850,1831,1835
1848,1821,1831
1870,1739,1797
1888,1834,1826
1883,1917,1854
1800,1903,1878
1794,1840,1865
1807,1776,1845
1842,1840,1842
1845,1830,1796
1827,1750,1818
1845,1776,1856
1844,1831,1855
1840,1840,1845
1839,1806,1841
1847,1792,1842
1867,1823,1841
1856,1821,1839
1859,1815,1847
1855,1823,1842
1859,1837,1835
1867,1835,1840
1884,1755,1803
1847,1823,1839
1851,1872,1861
1806,1840,1853
1787,1767,1819
1818,1779,1839
1858,1818,1831
1829,1891,1871
1827,1886,1857
1851,1851,1841
1847,1814,1810
1842,1762,1842
1838,1776,1856
1840,1814,1846
1857,1840,1833
1865,1842,1840
1850,1836,1845
1843,1816,1850
1842,1834,1840
1857,1842,1840
1872,1809,1825
1856,1815,1815
1834,1873,1856
1814,1812,1862
1830,1755,1814
1808,1767,1847
1818,1834,1850
1834,1872,1843
1827,1847,1850
1829,1850,1875
1845,1863,1849
1843,1824,1839
1855,1828,1830
1856,1812,1840
1866,1820,1842
1841,1795,1838
1846,1839,1821
1830,1776,1840
1840,1783,1849
1859,1805,1857
1846,1785,1770
1844,1798,1840
1835,1838,1885
1811,1781,1847
1821,1825,1856
1820,1825,1843
1844,1819,1835
1825,1862,1849
1814,1845,1849
1839,1839,1841
1854,1840,1835
1884,1877,1810
1859,1797,1833
1831,1781,1850
1838,1813,1850
1838,1825,1842
1838,1821,1853
1853,1849,1860
1874,1850,1853
1863,1809,1792
1827,1774,1841
1824,1819,1872
1849,1830,1855
1854,1787,1810
1854,1776,1840
1822,1847,1882
1827,1839,1867
1847,1810,1840
1845,1787,1847
1840,1790,1845
1863,1838,1844
1843,1869,1850
1840,1854,1855
1841,1835,1853
1863,1850,1851
1856,1850,1841
1853,1775,1833
1861,1882,1812
1858,1808,1810
1826,1841,1821
1795,1823,1889
1798,1739,1891
1812,1801,1862
1826,1837,1844
1840,1821,1841
1841,1826,1846
1863,1872,1855
1847,1835,1847
1825,1806,1842
1825,1817,1848
1845,1845,1841
1853,1840,1815
1838,1804,1840
1843,1838,1863
1840,1840,1857
1838,1805,1840
1845,1822,1843
1851,1899,1853
1845,1887,1855
1829,1827,1833
1841,1788,1823
1861,1754,1814
1840,1844,1842
1818,1872,1871
1808,1811,1866
1811,1776,1855
1829,1822,1840
1845,1812,1831
1865,1738,1807
1831,1811,1874
1822,1885,1882
1824,1856,1847
1830,1811,1835
1845,1809,1835
1842,1840,1842
1840,1840,1842
1831,1830,1851
1842,1835,1850
1849,1856,1851
1858,1877,1835
1840,1806,1815
1841,1676,1767
1822,1742,1844
1824,1857,1902
1815,1840,1882
1842,1839,1866
1843,1872,1851
1851,1819,1846
1877,1767,1843
1797,1781,1840
1792,1823,1835
1843,1835,1837
1827,1822,1840
1853,1872,1847
1845,1830,1849
1831,1776,1821
1831,1818,1835
1829,1841,1855
1843,1854,1842
1855,1779,1838
1829,1794,1854
1847,1765,1825
1871,1803,1831
1842,1787,1818
1810,1863,1898
1824,1824,1897
1840,1835,1863
1857,1857,1850
1829,1760,1845
1818,1801,1849
1850,1834,1856
1843,1834,1862
1834,1793,1841
1840,1835,1840
1841,1856,1846
1835,1841,1840
1831,1840,1846
1843,1871,1851
1839,1831,1843
1840,1831,1845
1856,1837,1847
1853,1805,1840
1842,1794,1840
1853,1725,1795
1841,1861,1867
1849,1851,1885
1838,1827,1865
1849,1836,1847
1856,1867,1835
1856,1808,1789
1810,1810,1879
1805,1808,1885
1813,1863,1877
1840,1826,1856
1856,1778,1853
1851,1820,1843
1834,1825,1854
1840,1840,1875
1840,1853,1855
1853,1797,1826
1843,1818,1834
1842,1834,1826
1873,1753,1803
1834,1846,1862
1802,1838,1872
1815,1870,1859
1839,1851,1853
1858,1799,1840
1830,1809,1843
1831,1872,1851
1846,1846,1861
1841,1810,1828
1840,1817,1825
1840,1825,1854
1837,1848,1825
1872,1814,1778
1840,1717,1839
1791,1805,1903
1808,1845,1886
1845,1823,1840
1856,1827,1822
1859,1731,1782
1841,1851,1853
1815,1885,1891
1811,1859,1866
1839,1840,1833
1867,1843,1830
1855,1782,1838
1823,1786,1840
1805,1825,1853
1821,1845,1850
1843,1842,1839
1861,1850,1856
1836,1842,1845
1818,1805,1830
1823,1778,1826
1845,1802,1808
1847,1777,1831
1869,1843,1815
1840,1803,1830
1819,1759,1847
1826,1829,1897
1835,1872,1877
1851,1854,1854
1828,1897,1850
1841,1817,1843
1835,1794,1847
1827,1809,1846
1835,1813,1837
1850,1809,1827
1872,1808,1831
1836,1865,1849
1834,1842,1840
1812,1813,1856
1810,1802,1837
1826,1767,1795
1843,1751,1799
1834,1885,1872
1840,1924,1872
1842,1888,1835
1851,1822,1823
1851,1792,1855
1851,1819,1855
1856,1840,1858
1872,1805,1841
1851,1823,1829
1850,1798,1818
1829,1791,1824
1851,1763,1826
1809,1848,1870
1805,1857,1868
1838,1789,1841
1833,1790,1840
1879,1821,1854
1867,1852,1844
1844,1729,1769
1810,1809,1830
1814,1877,1888
1856,1918,1874
1857,1841,1843
1841,1811,1851
1854,1863,1840
1861,1798,1822
1840,1787,1838
1831,1802,1850
1845,1819,1859
1870,1840,1841
1860,1862,1828
1845,1813,1811
1859,1808,1849
1853,1739,1837
1833,1823,1840
1862,1808,1776
1876,1762,1819
1824,1853,1895
1803,1863,1883
1818,1856,1867
1840,1854,1860
1866,1863,1840
1840,1856,1836
1818,1785,1856
1814,1779,1840
1840,1817,1851
1856,1855,1842
1858,1814,1824
1829,1777,1837
1833,1815,1841
1840,1837,1845
1849,1824,1835
1863,1813,1849
1856,1813,1851
1849,1811,1821
1857,1727,1785
1819,1787,1840
1808,1867,1874
1840,1879,1847
1834,1839,1843
1843,1829,1853
1844,1855,1838
1861,1786,1795
1814,1805,1857
1837,1869,1871
1830,1810,1861
1840,1803,1835
1851,1801,1831
1868,1833,1840
1840,1821,1834
1844,1872,1834
1834,1838,1853
1847,1769,1839
1834,1781,1809
1840,1741,1774
1834,1794,1843
1840,1871,1882
1872,1880,1865
1843,1857,1837
1821,1789,1840
1824,1749,1833
1871,1820,1842
1867,1922,1974
1839,1891,1943
1809,1783,1744
1837,1830,1729
1853,1762,1780
1843,1746,1838
1824,1823,1867
1849,1840,1836
1872,1799,1797
1858,1827,1840
1828,1793,1852
1845,1779,1807
1840,1826,1840
1822,1830,1897
1823,1839,1871
1843,1815,1841
1872,1827,1840
1846,1792,1842
1840,1801,1839
1845,1833,1846
1846,1819,1837
1847,1814,1851
1886,1826,1833
1819,1783,1847
1808,1821,1863
1830,1804,1865
1847,1797,1853
1852,1845,1855
1855,1845,1851
1855,1825,1834
1874,1808,1837
1835,1841,1858
1827,1828,1835
1873,1883,1830
1871,1817,1859
1808,1776,1867
1808,1783,1854
1818,1783,1846
1842,1791,1853
1867,1776,1840
1872,1863,1858
1834,1839,1863
1842,1872,1840
1833,1786,1841
1823,1795,1859
1838,1803,1861
1862,1792,1851
1872,1851,1840
1856,1899,1844
1853,1770,1798
1840,1747,1841
1827,1859,1887
1841,1888,1874
1831,1839,1856
1853,1840,1855
1851,1841,1852
1848,1845,1843
1846,1825,1845
1852,1821,1840
1853,1843,1840
1853,1845,1828
1840,1776,1840
1822,1811,1857
1823,1778,1855
1849,1793,1841
1850,1811,1840
1853,1830,1872
1867,1799,1801
1866,1775,1775
1830,1819,1839
1822,1846,1888
1840,1858,1891
1839,1856,1851
1839,1879,1840
1837,1823,1843
1835,1806,1841
1839,1821,1840
1856,1815,1847
1856,1834,1858
1846,1854,1849
1831,1833,1859
1840,1804,1845
1848,1794,1835
1840,1842,1839
1824,1813,1842
1827,1806,1854
1840,1819,1844
1877,1888,1857
1851,1853,1820
1846,1723,1799
1815,1797,1865
1830,1808,1845
1855,1833,1859
1881,1770,1853
1829,1823,1870
1818,1882,1862
1825,1858,1849
1830,1838,1850
1839,1840,1857
1856,1861,1852
1858,1843,1842
1842,1820,1843
1850,1824,1846
1855,1851,1846
1853,1855,1841
1853,1836,1839
1857,1823,1855
1869,1787,1834
1889,1771,1813
1842,1794,1839
1815,1766,1799
1806,1867,1871
1829,1920,1877
1808,1809,1855
1812,1786,1851
1840,1823,1857
1852,1826,1856
1856,1827,1844
1845,1825,1845
1867,1861,1844
1856,1833,1837
1846,1787,1835
1850,1838,1829
1851,1845,1846
1849,1826,1840
1843,1808,1867
1863,1811,1856
1907,1808,1846
1823,1792,1831
1804,1782,1823
1824,1776,1818
1863,1770,1794
1847,1854,1852
1841,1866,1884
1840,1852,1871
1840,1807,1840
1839,1824,1856
1833,1786,1834
1846,1764,1819
1856,1861,1859
1859,1794,1857
1840,1793,1841
1818,1834,1840
1853,1845,1830
1839,1834,1826
1842,1757,1809
1840,1790,1840
1839,1827,1867
1840,1822,1842
1837,1817,1842
1847,1764,1828
1867,1735,1811
1846,1894,1872
1826,1883,1865
1835,1815,1859
1872,1840,1847
1863,1835,1828
1825,1835,1826
1803,1781,1857
1833,1807,1850
1846,1793,1843
1853,1797,1850
1844,1853,1840
1841,1741,1806
1863,1758,1828
1801,1793,1858
1803,1825,1868
1830,1813,1843
1855,1793,1833
1845,1843,1852
1841,1839,1861
1870,1806,1807
1878,1791,1809
1830,1840,1889
1841,1817,1888
1849,1867,1862
1838,1872,1821
1827,1795,1853
1839,1798,1872
1871,1843,1843
1851,1805,1831
1865,1817,1844
1831,1819,1840
1837,1786,1849
1842,1830,1854
1839,1773,1839
1846,1754,1831
1842,1857,1840
1833,1816,1840
1871,1664,1760
1865,1686,1826
1819,1895,1903
1826,1894,1891
1854,1858,1861
1855,1837,1845
1851,1842,1835
1855,1889,1827
1855,1741,1838
1839,1790,1856
1841,1833,1856
1843,1842,1843
1867,1898,1837
1850,1744,1819
1821,1787,1835
1823,1782,1840
1840,1776,1843
1845,1791,1851
1850,1810,1843
1858,1796,1815
1845,1773,1813
1828,1777,1878
1822,1855,1873
1840,1842,1848
1853,1811,1843
1840,1857,1857
1840,1847,1850
1840,1762,1801
1846,1797,1808
1835,1855,1860
1855,1904,1873
1842,1835,1845
1834,1780,1858
1829,1797,1853
1850,1838,1831
1840,1840,1800
1837,1707,1807
1819,1758,1833
1838,1869,1872
1830,1850,1875
1838,1822,1859
1853,1863,1863
1834,1805,1840
1840,1815,1841
1867,1822,1853
1869,1833,1843
1838,1813,1840
1851,1819,1840
1840,1807,1843
1849,1818,1843
1877,1803,1822
1851,1860,1903
1855,1841,1856
1814,1724,1788
1824,1806,1833
1856,1825,1836
1820,1843,1859
1837,1889,1850
1853,1818,1837
1846,1804,1870
1846,1843,1874
1840,1827,1869
1858,1818,1846
1840,1824,1830
1861,1861,1833
1850,1765,1840
1840,1841,1859
1841,1830,1847
1857,1775,1822
1863,1829,1834
1826,1859,1856
1841,1834,1854
1846,1799,1838
1840,1775,1839
1846,1811,1808
1859,1821,1869
1845,1840,1865
1804,1847,1840
1809,1850,1827
1830,1904,1840
1841,1869,1841
1851,1824,1851
1854,1872,1870
1859,1877,1846
1826,1748,1825
1827,1758,1830
1836,1787,1835
1869,1813,1816
1837,1818,1869
1836,1855,1893
1835,1831,1859
1842,1824,1835
1851,1806,1830
1872,1808,1838
1857,1828,1837
1835,1840,1862
1835,1818,1841
1842,1807,1817
1858,1791,1847
1825,1886,1904
1815,1863,1817
1808,1807,1804
1841,1881,1814
1842,1749,1779
1819,1782,1843
1823,1808,1872
1840,1815,1862
1847,1823,1840
1847,1898,1842
1840,1797,1838
1859,1790,1846
1863,1808,1845
1863,1776,1827
1872,1817,1835
1859,1873,1851
1847,1821,1866
1818,1791,1838
1841,1831,1820
1872,1879,1850
1830,1851,1827
1829,1745,1770
1829,1825,1850
1807,1839,1883
1808,1841,1858
1819,1809,1842
1856,1838,1840
1855,1842,1840
1863,1827,1843
1856,1872,1808
1827,1757,1840
1852,1787,1857
1855,1773,1823
1843,1806,1837
1848,1840,1856
1881,1840,1846
1844,1835,1851
1831,1785,1815
1856,1827,1851
1857,1870,1873
1813,1808,1837
1820,1790,1829
1814,1798,1845
1824,1892,1856
1853,1834,1815
1866,1722,1806
1823,1871,1873
1808,1872,1877
1841,1879,1857
1842,1795,1839
1851,1819,1836
1855,1809,1846
1861,1818,1853
1872,1827,1829
1878,1809,1840
1870,1776,1803
1844,1883,1840
1818,1855,1856
1839,1865,1853
1862,1874,1847
1845,1783,1830
1873,1735,1824
1849,1776,1840
1826,1847,1872
1837,1903,1850
1840,1808,1806
1843,1849,1841
1831,1815,1842
1843,1840,1855
1830,1791,1833
1847,1760,1810
1849,1850,1857
1840,1862,1847
1840,1809,1840
1847,1854,1842
1870,1905,1849
1850,1773,1809
1855,1792,1841
1837,1799,1855
1847,1870,1840
1853,1808,1832
1835,1808,1840
1844,1821,1856
1856,1827,1823
1854,1842,1837
1854,1855,1853
1853,1821,1840
1879,1793,1842
1846,1745,1813
1817,1798,1840
1837,1895,1825
1819,1782,1822
1837,1808,1860
1820,1776,1855
1833,1819,1860
1853,1853,1841
1850,1827,1840
1859,1843,1831
1849,1810,1809
1830,1782,1851
1830,1775,1827
1840,1840,1867
1841,1858,1867
1858,1856,1840
1875,1840,1835
1871,1829,1791
1863,1856,1830
1824,1808,1853
1819,1771,1855
1830,1794,1856
1834,1796,1858
1866,1886,1853
1834,1786,1814
1815,1810,1840
1841,1851,1831
1855,1840,1829
1840,1801,1836
1853,1822,1850
1856,1827,1845
1893,1806,1795
1872,1808,1794
1838,1824,1819
1833,1836,1829
1831,1888,1877
1851,1888,1891
1840,1856,1870
1851,1852,1840
1837,1865,1818
1835,1784,1808
1833,1781,1833
1874,1839,1827
1883,1845,1831
1805,1795,1834
1805,1776,1839
1827,1857,1847
1847,1875,1850
1856,1833,1826
1843,1719,1776
1829,1835,1845
1858,1904,1858
1861,1835,1853
1842,1787,1849
1888,1781,1827
1850,1815,1804
1807,1799,1809
1791,1826,1841
1821,1826,1862
1847,1855,1855
1866,1855,1836
1846,1792,1827
1846,1744,1810
1829,1841,1837
1839,1854,1842
1846,1851,1836
1863,1854,1818
1844,1805,1789
1808,1785,1851
1807,1821,1883
1823,1827,1862
1850,1859,1851
1878,1877,1850
1834,1844,1852
1839,1791,1839
1851,1783,1825
1836,1820,1825
1819,1818,1831
1825,1794,1836
1856,1824,1840
1895,1854,1840
1856,1823,1825
1841,1744,1794
1822,1734,1803
1819,1862,1893
1829,1897,1901
1842,1872,1837
1872,1846,1808
1857,1829,1837
1842,1810,1833
1855,1807,1827
1862,1837,1803
1846,1875,1827
1841,1872,1846
1809,1775,1855
1811,1776,1854
1840,1803,1842
1859,1787,1838
1857,1810,1837
1836,1857,1851
1842,1903,1837
1859,1787,1825
1857,1744,1795
1859,1837,1856
1869,1853,1872
1863,1809,1855
1825,1854,1855
1905,1913,2053
1911,1936,2033
1823,1721,1648
1806,1729,1635
1793,1839,1774
1871,1861,1936
1936,1886,2105
1841,1856,1785
1767,1739,1607
1766,1762,1718
1803,1792,1827
1840,1819,1857
1862,1839,1847
1868,1841,1840
1872,1827,1840
1857,1824,1842
1871,1841,1841
1872,1857,1840
1861,1839,1819
1903,1776,1805
1861,1817,1858
1854,1854,1840
1845,1783,1849
1859,1767,1838
1820,1797,1872
1822,1831,1858
1837,1820,1847
1872,1840,1882
1931,1835,1825
1858,1746,1765
1798,1792,1852
1830,1840,1879
1851,1847,1870
1872,1846,1857
1859,1818,1846
1882,1791,1826
1859,1853,1856
1843,1854,1852
1840,1825,1839
1864,1863,1853
1889,1837,1856
1871,1819,1848
1864,1777,1872
1857,1898,1951
1856,1910,1872
1807,1749,1729
1811,1743,1787
1906,1889,2054
1933,1926,2093
1842,1761,1682
1786,1712,1605
1839,1803,1802
1979,1895,2015
1837,1824,1862
1753,1778,1701
1845,1729,1791
2327,2000,2256
1897,1847,1870
1645,1840,1626
1710,1840,1899
1871,1922,2300
1795,1744,1742
1818,1728,1579
1963,1889,1987
1884,1919,2065
1805,1823,1770
1851,1842,1607
1901,1697,1735
1841,1818,1885
1920,1917,2043
1909,1984,2097
1744,1698,1606
1737,1693,1601
1863,1770,1835
1936,1953,2139
1902,1904,1978
1870,1763,1610
1863,1786,1517
1840,1887,1777
1996,1808,1971
1904,1835,1918
1776,1914,1847
1750,1698,1671
1793,1694,1803
1767,1845,2045
1738,1657,1648
1842,1733,1535
1782,1861,1731
1782,1901,1995
1889,1879,1954
1874,1861,1753
1779,1797,1733
1777,1825,1908
1819,1746,1744
1791,1744,1659
1712,1755,1664
1842,1854,1919
1818,1750,1763
1785,1759,1731
1830,1847,1854
1810,1894,1854
1764,1781,1715
1776,1715,1675
1806,1792,1840
1888,1965,2065
1766,1856,1866
1738,1811,1677
1759,1863,1701
1791,1856,1794
1744,1794,1936
1732,1619,1583
1831,1927,1968
1785,1808,1971
1737,1703,1558
1788,1817,1621
1895,1853,1744
1810,1871,1904
1731,1855,1920
1849,1823,1979
1840,1807,1759
1728,1804,1667
1646,1777,1681
1709,1794,1735
1808,1779,1856
1817,1895,2058
1762,1877,1873
1847,1853,1712
1770,1819,1701
1751,1835,1872
1726,1806,1895
1731,1818,1777
1797,1888,1991
1802,1931,1790
1815,1856,1909
1857,1815,1798
1847,1839,1781
1723,1659,1704
1744,1716,1729
1856,1853,1859
1923,1910,2069
1788,1932,1813
1687,1911,1727
1718,1773,1822
1779,1680,1759
1796,1847,1899
1731,1905,1904
1824,1954,2081
1840,1792,1891
1781,1731,1563
1793,1872,1929
1776,1836,1898
1833,1841,1827
1786,1840,1902
1717,1741,1650
1807,1765,1714
1872,1776,1834
1801,1850,1867
1807,1849,1895
1811,1806,1891
1747,1920,2027
1693,1795,1811
1777,1804,1778
1804,1854,1809
1770,1818,1881
1801,1888,1871
1786,1785,1715
1808,1776,1831
1824,1880,1994
1840,1877,1987
1856,1911,1863
1882,1818,1904
1842,1787,1711
1789,1773,1730
1759,1781,1767
1729,1791,1907
1887,1870,2087
1875,1834,2093
1717,1767,1635
1687,1797,1589
1793,1863,1904
1879,1790,1934
1824,1841,1811
1823,1877,1791
1862,1900,1947
1825,1901,2045
1779,1724,1810
1774,1808,1941
1810,1904,1950
1807,1819,1695
1787,1731,1739
1745,1729,1792
1775,1795,1883
1894,1950,2206
2003,1872,2352
1808,1670,1473
1732,1786,1389
1674,1838,1685
1750,1893,1938
1839,1896,2064
1835,1836,1806
1851,1797,1757
1859,1779,1847
1837,1786,1909
1771,1856,1856
1770,1853,1931
1787,1872,1938
1787,1777,1904
1856,1876,2054
1857,1856,2015
1744,1719,1605
1725,1713,1622
1834,1806,2033
1877,1845,1935
1865,1840,1845
1783,1856,1754
1897,1904,1914
1831,1808,1836
1803,1809,1766
1839,1825,1838
1886,1874,1984
1794,1839,1995
1773,1742,1791
1782,1814,1889
1727,1770,1727
1770,1757,1735
1892,1933,2086
1856,1822,2060
1810,1746,1729
1786,1804,1701
1899,1920,2031
1861,1840,1995
1825,1823,1872
1825,1745,1720
1850,1808,1823
1802,1796,1799
1819,1835,1821
1821,1904,1869
1862,1927,2097
1847,1811,2003
1807,1632,1621
1776,1808,1670
1805,1897,1868
1803,1859,1902
1870,1902,1882
1901,1811,1995
1857,1802,2143
1795,1801,1843
1808,1890,1709
1799,1802,1785
1866,1874,2112
1842,1811,1957
1808,1730,1708
1808,1813,1798
1821,1795,1858
1842,1805,1822
1933,1839,1901
1969,1829,1867
1809,1795,1861
1744,1853,1862
1759,1911,1858
1840,1840,1875
1877,1838,1847
1840,1782,1856
1775,1795,1860
1839,1829,1916
1842,1797,1941
1859,1872,2029
1855,1878,1937
1785,1757,1703
1818,1837,1782
1872,1808,1960
1931,1734,1935
1853,1841,1855
1837,1883,1781
1879,1869,1968
1872,1767,1915
1878,1777,1712
1798,1854,1776
1812,1877,2013
1838,1923,2114
1769,1824,1723
1851,1808,1650
1847,1769,1818
1841,1922,1989
1851,1936,2000
1819,1740,1745
1855,1717,1907
1846,1808,1974
1826,1835,1870
1851,1873,1921
1899,1865,1899
1853,1839,1761
1795,1761,1842
1863,1888,2077
1866,1857,1907
1893,1795,1747
1907,1843,1747
1872,1854,1883
1840,1776,1948
1744,1755,1735
1853,1886,1782
1854,1810,1849
1889,1774,1906
1841,1821,1920
1863,1872,1824
1855,1903,1973
1829,1803,1967
1806,1814,1893
1845,1835,1875
1886,1823,1872
1862,1825,1904
1828,1811,1873
1840,1789,1713
1946,1856,1791
1892,1733,2002
1802,1781,1951
1825,1904,1867
1837,1850,1840
1855,1808,1753
1839,1786,1814
1872,1792,1872
1873,1846,1919
1886,1696,1813
1877,1824,1975
1805,1899,1824
1820,1931,1818
1860,1859,1961
1878,1773,2000
1898,1869,1965
1860,1935,1843
1808,1671,1755
1855,1828,1963
1920,1857,1821
1839,1857,1843
1795,1770,1859
1889,1761,1826
1904,1822,1787
1871,1774,1811
1824,1830,1936
1786,1824,1903
1808,1782,1790
1862,1827,1846
1919,1843,1920
1879,1831,1923
1913,1835,1888
1897,1795,1859
1811,1854,1934
1789,1840,1808
1851,1808,1770
1905,1876,1936
1875,1831,1894
1831,1840,1829
1848,1778,1813
1911,1783,1802
1904,1829,1939
1885,1859,1977
1762,1815,1822
1741,1766,1732
1815,1794,1786
1885,1845,1907
1916,1879,1916
1891,1838,1869
1819,1807,1779
1840,1840,1904
1904,1863,2041
1935,1948,2017
1858,1778,1790
1792,1741,1578
1808,1802,1750
1893,1807,1903
1906,1795,1907
1836,1818,1867
1804,1891,1841
1866,1860,1888
1910,1838,1866
1866,1834,1910
1827,1823,1821
1856,1891,1806
1863,1792,1920
1840,1744,1840
1821,1783,1791
1818,1839,1839
1863,1834,1894
1899,1805,1871
1936,1881,2038
1856,1842,1971
1813,1820,1703
1866,1792,1795
1904,1771,1858
1847,1872,1899
1840,1823,1867
1877,1856,1822
1899,1813,1866
1840,1741,1826
1919,1783,1759
1941,1899,1898
1858,1897,1903
1733,1799,1868
1758,1795,1819
1849,1769,1889
1870,1762,1857
1860,1887,1856
1849,1866,1834
1840,1808,1851
1876,1872,1940
1877,1876,1950
1843,1755,1877
1842,1809,1763
1859,1905,1808
1853,1855,1828
1835,1762,1808
1895,1840,1932
1935,1795,1967
1826,1790,1757
1827,1795,1703
1825,1838,1812
1846,1870,1943
1853,1825,1856
1855,1840,1813
1842,1743,1822
1872,1837,1888
1835,1867,1914
1868,1911,1922
1875,1808,1840
1878,1808,1817
1813,1837,1840
1809,1838,1859
1851,1833,1849
1881,1779,1894
1871,1855,1879
1862,1850,1886
1873,1858,1815
1911,1982,1844
1871,1685,1776
1859,1807,1792
1869,1853,1856
1917,1897,1878
1905,1890,1887
1774,1650,1809
1744,1771,1812
1839,1904,2031
1815,1843,1852
1851,1834,1804
1865,1887,1914
1837,1741,1763
1851,1749,1712
1855,1849,1856
1838,1918,1945
1863,1839,1842
1859,1857,1803
1853,1889,1954
1882,1847,1872
1847,1727,1671
1789,1824,1781
1782,1840,1911
1829,1784,1874
1886,1845,1884
1918,1918,1926
1808,1807,1743
1791,1739,1744
1810,1810,1938
1862,1846,1959
1887,1789,1826
1837,1790,1786
1901,1894,1936
1864,1900,1936
1819,1795,1731
1831,1810,1782
1919,1856,1914
1843,1841,1813
1771,1786,1746
1858,1847,1826
1883,1904,1842
1867,1872,1903
1805,1777,1823
1817,1825,1840
1871,1840,1811
1900,1885,1838
1859,1743,1869
1781,1763,1868
1782,1805,1807
1829,1841,1890
1847,1850,1883
1853,1791,1874
1872,1793,1787
1892,1849,1890
1891,1857,1815
1834,1870,1744
1842,1808,1830
1910,1913,1947
1850,1875,1829
1840,1746,1797
1857,1814,1840
1795,1833,1829
1804,1842,1905
1817,1835,1903
1838,1816,1809
1871,1858,1871
1855,1783,1733
1850,1787,1750
1910,1840,1935
1895,1851,1952
1833,1713,1828
1852,1907,1887
1825,1862,1744
1798,1776,1773
1840,1772,1827
1856,1838,1920
1914,1856,1945
1857,1856,1826
1793,1796,1785
1786,1789,1808
1840,1776,1809
1903,1867,1901
1853,1874,1919
1852,1835,1883
1840,1750,1702
1844,1858,1829
1895,1883,1906
1909,1790,1806
1825,1791,1785
1765,1763,1765
1840,1841,1855
1849,1821,1909
1841,1808,1891
1890,1832,1878
1838,1813,1741
1787,1778,1790
1840,1770,1853
1874,1835,1844
1873,1888,1914
1904,1862,1899
1884,1847,1903
1837,1790,1748
1799,1794,1792
1842,1857,1808
1871,1778,1744
1914,1844,1811
1886,1827,1878
1870,1907,1967
1811,1889,1840
1848,1797,1796
1813,1726,1820
1840,1757,1831
1821,1785,1799
1808,1781,1817
1871,1814,1869
1902,1879,2023
1874,1838,1842
1839,1808,1714
1788,1807,1697
1909,1878,1906
1926,1902,2015
1805,1808,1901
1763,1765,1677
1799,1777,1723
1881,1815,1899
1904,1932,1834
1789,1815,1747
1764,1774,1808
1814,1731,1862
1904,1714,2000
1877,1824,1899
1823,1861,1735
1799,1872,1885
1847,1838,1891
1906,1851,1891
1840,1827,1786
1818,1840,1791
1856,1899,1968
1819,1813,1872
1842,1691,1666
1885,1754,1749
1866,1904,1995
1874,1959,2001
1842,1671,1739
1807,1877,1803
1759,1799,1714
1810,1799,1744
1856,1802,1840
1903,1814,1902
1866,1838,1926
1857,1744,1864
1786,1747,1737
1821,1840,1808
1882,1905,2031
1849,1814,1856
1823,1771,1723
1869,1806,1729
1872,1841,1841
1889,1904,2006
1921,1807,1961
1877,1746,1711
1823,1691,1611
1763,1869,1785
1823,1901,1919
1872,1905,2007
1878,1887,1939
1837,1775,1674
1817,1778,1705
1813,1807,1787
1824,1839,1915
1809,1852,1862
1895,1878,1881
1904,1805,1854
1859,1817,1732
1830,1759,1803
1811,1799,1894
1846,1856,1889
1887,1868,1784
1807,1745,1778
1795,1707,1768
1872,1808,1866
1872,1904,1961
1825,1727,1710
1863,1770,1729
1872,1845,1873
1862,1855,2005
1825,1872,1904
1808,1843,1755
1832,1904,1908
1843,1857,1815
1840,1856,1874
1876,1881,1907
1843,1780,1683
1825,1799,1797
1830,1753,1861
1836,1751,1933
1822,1811,1892
1872,1830,1802
1853,1748,1712
1837,1746,1697
1845,1795,1808
1881,1824,1887
1862,1847,1949
1790,1870,1885
1819,1850,1872
1829,1819,1821
1840,1830,1899
1851,1821,1877
1895,1887,1885
1843,1791,1756
1815,1797,1772
1839,1826,1827
1864,1865,1882
1888,1825,1778
1850,1744,1763
1840,1773,1869
1840,1849,1872
1824,1791,1858
1897,1788,1871
1845,1805,1787
1790,1855,1906
1808,1847,1900
1837,1840,1867
1910,1840,1866
1871,1789,1729
1819,1767,1761
1831,1883,2018
1851,1854,2038
1823,1805,1755
1831,1779,1648
1845,1799,1772
1890,1776,1788
1938,1775,1805
1925,1919,1883
1875,1995,1961
1850,1821,1999
1746,1814,1853
1769,1801,1695
1832,1797,1779
1828,1744,1851
1857,1791,1871
1898,1879,1937
