1867,1866,1862
1861,1775,1840
1824,1728,1842
1836,1798,1850
1845,1872,1858
1840,1860,1866
1830,1793,1872
1840,1813,1868
1846,1856,1867
1851,1856,1863
1849,1830,1859
1845,1862,1858
1855,1840,1859
1856,1790,1870
1854,1812,1869
1857,1853,1871
1879,1840,1840
1887,1748,1813
1803,1799,1884
1812,1842,1903
1841,1839,1865
1838,1816,1846
1841,1791,1853
1845,1736,1831
1846,1858,1862
1838,1881,1867
1839,1840,1856
1857,1787,1858
1870,1819,1871
1870,1845,1865
1850,1838,1853
1831,1787,1854
1840,1824,1850
1851,1827,1846
1854,1823,1850
1858,1866,1843
1873,1789,1815
1894,1797,1833
1842,1851,1879
1834,1872,1889
1840,1856,1857
1841,1821,1834
1838,1781,1854
1870,1733,1824
1872,1851,1839
1853,1870,1840
1850,1741,1801
1840,1871,1872
1853,1898,1851
1860,1889,1837
1858,1757,1833
1822,1776,1845
1828,1815,1842
1840,1837,1844
1840,1818,1844
1844,1821,1843
1859,1839,1837
1855,1827,1840
1847,1792,1815
1855,1802,1827
1851,1876,1856
1871,1874,1863
1858,1840,1857
1830,1906,1826
1824,1795,1818
1846,1759,1838
1851,1770,1838
1871,1783,1794
1836,1815,1852
1824,1847,1853
1846,1833,1811
1845,1808,1829
1841,1808,1865
1849,1812,1853
1859,1806,1835
1856,1831,1837
1854,1823,1828
1857,1823,1834
1853,1817,1839
1863,1825,1840
1889,1799,1799
1854,1877,1838
1829,1871,1843
1831,1785,1854
1831,1785,1858
1827,1825,1830
1840,1778,1808
1838,1813,1841
1846,1817,1840
1855,1853,1847
1848,1838,1843
1856,1849,1838
1838,1843,1842
1843,1840,1851
1831,1794,1850
1841,1832,1841
1858,1904,1837
1867,1853,1840
1865,1784,1872
1850,1750,1814
1895,1757,1772
1826,1830,1842
1777,1821,1868
1797,1814,1873
1845,1835,1861
1870,1829,1827
1829,1811,1819
1829,1826,1840
1843,1776,1821
1847,1786,1822
1839,1850,1854
1841,1849,1867
1856,1815,1834
1855,1829,1818
1844,1840,1826
1863,1841,1870
1863,1872,1875
1840,1808,1822
1831,1744,1782
1855,1833,1846
1825,1841,1853
1815,1809,1822
1818,1712,1837
1813,1785,1860
1840,1847,1888
1860,1835,1869
1840,1808,1783
1837,1744,1745
1840,1776,1799
1833,1871,1870
1839,1870,1877
1840,1846,1865
1850,1839,1823
1856,1845,1821
1874,1834,1824
1859,1795,1830
1840,1873,1870
1839,1836,1857
1857,1839,1869
1872,1823,1882
1870,1793,1843
1886,1809,1744
1790,1743,1782
1746,1756,1846
1804,1776,1857
1837,1827,1870
1862,1834,1876
1849,1813,1849
1856,1742,1796
1843,1821,1797
1845,1865,1852
1872,1847,1875
1869,1805,1839
1851,1808,1808
1833,1822,1829
1853,1835,1830
1857,1873,1843
1840,1791,1827
1830,1795,1841
1842,1825,1851
1872,1874,1813
1857,1776,1815
1839,1810,1870
1821,1778,1840
1823,1791,1825
1845,1776,1852
1852,1824,1851
1847,1787,1861
1816,1811,1862
1819,1810,1856
1853,1803,1904
1853,1773,1850
1840,1817,1802
1852,1835,1806
1868,1790,1819
1861,1791,1844
1856,1851,1860
1851,1870,1869
1870,1869,1873
1872,1767,1797
1840,1805,1839
1844,1853,1873
1856,1821,1853
1870,1773,1807
1824,1806,1813
1819,1854,1836
1860,1955,1840
1808,1744,1825
1799,1712,1853
1831,1771,1862
1934,1840,1879
1945,1872,1886
1825,1819,1840
1781,1788,1824
1830,1829,1933
1841,1786,1795
1830,1764,1757
1854,1745,1785
1853,1823,1842
1841,1854,1842
1811,1837,1841
1825,1827,1822
1825,1828,1814
1861,1824,1837
1862,1806,1840
1831,1767,1805
1841,1826,1863
1838,1872,1856
1829,1872,1808
1821,1839,1819
1817,1796,1839
1826,1796,1861
1842,1831,1845
1856,1837,1808
1850,1771,1810
1848,1808,1867
1853,1824,1840
1853,1822,1825
1823,1825,1843
1833,1843,1852
1852,1850,1874
1856,1833,1824
1854,1827,1813
1854,1830,1877
1827,1827,1856
1823,1815,1826
1815,1798,1818
1840,1776,1827
1856,1857,1857
1877,1885,1904
1857,1809,1827
1830,1809,1771
1830,1813,1802
1824,1879,1914
1872,1906,2096
1808,1795,1792
1805,1774,1646
1830,1803,1720
1840,1808,1811
1855,1845,1859
1885,1872,1827
1847,1775,1754
1799,1739,1823
1811,1872,1869
1836,1849,1863
1835,1835,1853
1834,1770,1856
1823,1766,1833
1840,1799,1808
1843,1807,1808
1837,1808,1831
1857,1839,1874
1906,1808,1932
1857,1824,1831
1793,1817,1762
1795,1822,1791
1834,1839,1823
1861,1870,1911
1881,1831,1831
1872,1889,1804
1852,1835,1808
1801,1734,1792
1794,1761,1821
1830,1798,1853
1876,1828,1839
1872,1872,1831
1818,1783,1827
1861,1857,1837
2187,2128,1933
2185,2113,1907
1712,1745,1869
1611,1645,1902
1761,1788,2064
1815,1741,1833
1883,1755,1610
1975,1909,1931
1882,1821,1998
1818,1718,1683
1803,1810,1744
1731,1802,1712
2007,1732,1738
1919,1703,1765
1715,1807,1952
1732,1839,1881
1775,1894,1759
1739,1755,1744
1758,1770,1801
1858,1817,1961
1845,1840,2028
1798,1761,1767
1775,1776,1662
1803,1754,1743
1833,1840,1909
1837,1819,1840
1886,1873,1999
1904,2005,2341
1762,1773,1639
1785,1690,1408
1793,1738,1647
1841,1823,1823
1939,1900,2006
1884,1909,1984
1757,1743,1786
1725,1727,1674
1803,1767,1753
1808,1840,1839
1780,1779,1838
1829,1807,1844
1855,1756,1823
1815,1820,1862
1787,1793,1777
1798,1803,1814
1875,1875,1978
1922,1907,2015
1773,1793,1754
1762,1767,1681
1838,1898,1773
1847,1850,1852
1813,1756,1871
1901,1795,1924
1815,1816,1797
1754,1833,1744
1825,1875,1798
1915,1793,1881
1840,1725,1859
1742,1817,1809
1759,1793,1770
1830,1808,1792
1846,1855,1877
1856,1854,1929
1872,1866,1937
1866,1808,1805
1807,1788,1743
1821,1823,1811
1823,1815,1863
1823,1791,1815
1885,1809,1799
1962,1959,1936
1856,1817,1883
1767,1794,1783
1785,1834,1837
1825,1843,1840
1863,1843,1808
1911,1841,1844
1865,1841,1968
1837,1772,1769
1776,1763,1712
1838,1872,1863
1871,1913,1964
1786,1779,1795
1751,1776,1738
1775,1771,1802
1891,1819,1934
1951,1840,1942
1781,1741,1757
1749,1775,1759
1813,1840,1838
1870,1879,1895
1901,1898,2023
1867,1821,1814
1824,1814,1749
1857,1846,1810
1842,1805,1779
1776,1717,1728
1822,1831,1829
1855,1891,1872
1885,1872,1879
1858,1819,1920
1840,1824,1834
1794,1749,1709
1789,1647,1727
1810,1849,1903
1835,1840,1929
1835,1823,1863
1853,1790,1829
1839,1788,1801
1847,1838,1897
1827,1835,1862
1819,1809,1808
1877,1857,1911
1900,1838,1823
1846,1809,1761
1851,1829,1840
1838,1756,1793
1850,1872,1948
1867,1874,1952
1827,1760,1712
1840,1810,1725
1776,1827,1806
1796,1822,1872
1840,1818,1920
1839,1735,1793
1837,1798,1802
1891,1939,1967
1840,1785,1813
1765,1684,1719
1823,1769,1834
1890,1825,1883
1872,1840,1893
1808,1779,1831
1783,1783,1805
1826,1826,1840
1831,1831,1913
1844,1839,1892
1866,1808,1819
1861,1854,1845
1851,1790,1792
1826,1808,1787
1842,1809,1808
1877,1858,1879
1862,1834,1856
1867,1851,1864
1858,1819,1885
1791,1823,1776
1787,1787,1759
1833,1792,1808
1835,1815,1827
1840,1828,1837
1863,1851,1833
1874,1837,1883
1845,1856,1927
1833,1826,1933
1792,1759,1789
1811,1714,1750
1843,1787,1812
1856,1858,1873
1846,1929,1971
1891,1846,1937
1873,1715,1727
1807,1821,1722
1787,1838,1786
1808,1849,1849
1843,1846,1885
1866,1842,1919
1867,1829,1984
1824,1744,1772
1803,1814,1723
1851,1867,1850
1856,1835,1949
1854,1829,1918
1841,1834,1851
1839,1785,1711
1839,1802,1758
1869,1850,1902
1849,1811,1840
1826,1807,1806
1865,1952,2033
1883,1845,1959
1795,1743,1642
1809,1712,1650
1910,2000,1986
1973,1969,2293
1812,1810,1760
1712,1664,1577
1788,1710,1711
1821,1791,1831
1852,1829,1843
1808,1731,1797
1826,1888,2033
1920,1904,2086
1878,1806,1712
1781,1797,1697
1801,1857,1895
1792,1822,1855
1845,1822,1822
1840,1830,1861
1824,1850,1878
1833,1796,1813
1863,1830,1914
1885,1903,1954
1829,1727,1766
1799,1808,1698
1852,1776,1769
1869,1845,1945
1847,1795,1884
1823,1803,1907
1783,1818,1854
1777,1805,1808
1839,1805,1877
1871,1859,1965
1963,1861,1851
1890,1823,1725
1799,1777,1744
1822,1819,1748
1809,1786,1861
1809,1905,2130
1796,1833,1903
1758,1712,1598
1806,1736,1637
1855,1850,1822
1872,1931,1984
1840,1797,2038
1834,1833,1878
1744,1721,1686
1742,1712,1682
1795,1699,1786
1862,1872,2005
1925,1920,1995
1897,1826,1781
1823,1845,1728
1794,1789,1813
1797,1773,1808
1804,1815,1861
1818,1847,1968
1808,1819,1808
1790,1766,1648
1799,1777,1766
1817,1808,1874
1874,1840,1776
1863,1795,1872
1850,1904,2035
1795,1730,1714
1820,1819,1755
1825,1926,1919
1749,1747,1763
1790,1773,1781
1804,1808,1849
1817,1872,1875
1821,1793,1879
1849,1839,1781
1886,1756,1751
1826,1797,1773
1757,1843,1833
1782,1845,1885
1855,1826,1927
1921,1881,1983
1870,1820,1773
1781,1808,1703
1771,1808,1783
1836,1771,1759
1809,1811,1808
1863,1844,1933
1874,1921,1945
1789,1849,1773
1837,1817,1840
1822,1795,1910
1834,1873,1824
1851,1751,1712
1791,1739,1761
1767,1781,1840
1799,1825,1859
1834,1855,1869
1867,1879,1981
1855,1856,1906
1873,1855,1853
1853,1806,1807
1821,1776,1714
1840,1760,1714
1875,1902,1917
1841,1905,1947
1849,1890,1935
1846,1835,1813
1811,1808,1714
1794,1816,1769
1806,1820,1833
1840,1870,1868
1901,1863,1887
1902,1770,1986
1865,1899,1830
1803,1813,1745
1779,1783,1824
1813,1806,1883
1835,1827,1947
1853,1840,1903
1885,1847,1817
1893,1858,1770
1830,1808,1781
1873,1794,1952
1917,1881,2078
1840,1877,1789
1802,1835,1713
1815,1808,1779
1863,1840,1872
1875,1861,1921
1873,1856,1873
1840,1859,1910
1818,1801,1840
1829,1789,1776
1827,1779,1776
1871,1887,1842
1897,1838,1858
1884,1875,2033
1831,1773,1930
1775,1777,1778
1797,1797,1776
1845,1836,1874
1859,1819,1872
1880,1865,1871
1937,1892,2034
1873,1842,1888
1770,1787,1730
1777,1777,1770
1824,1843,1826
1870,1904,1877
1904,1871,1936
1886,1833,1985
1840,1773,1808
1887,1811,1806
1840,1879,1931
1805,1823,1836
1823,1853,1763
1855,1793,1754
1841,1815,1872
1845,1883,1931
1885,1872,1909
1905,1821,1883
1857,1813,1901
1856,1799,1842
1867,1842,1840
1808,1827,1919
1762,1770,1825
1805,1822,1825
1830,1840,1803
1835,1844,1829
1847,1825,1883
1855,1840,1907
1856,1851,1879
1897,1874,1954
1872,1856,1939
1901,1810,1787
1970,1953,1963
1837,1850,1955
1721,1730,1731
1740,1735,1705
1837,1815,1873
1861,1857,1957
1824,1821,1840
1818,1802,1807
1856,1831,1840
1862,1843,1830
1872,1815,1794
1885,1862,1840
1840,1824,1950
1971,1968,2226
1975,1829,2016
1786,1694,1535
1698,1749,1606
1795,1821,1827
1853,1881,2015
1815,1887,2032
1795,1843,1888
1793,1800,1714
1815,1786,1763
1847,1799,1865
1838,1802,1824
1843,1813,1817
1839,1815,1846
1867,1827,1875
1870,1835,1859
1841,1840,1851
1840,1845,1852
1875,1839,1851
1916,1895,1945
1876,1811,2066
1831,1825,1778
1802,1712,1680
1822,1776,1794
1835,1825,1872
1841,1827,1889
1863,1839,1881
1895,1840,1891
1864,1872,1861
1840,1824,1863
1853,1804,1903
1884,1869,1967
1883,1866,1914
1856,1743,1775
1881,1815,1843
1869,1843,1787
1827,1826,1783
1822,1800,1842
1858,1814,1874
1887,1867,1852
1904,1823,1824
1872,1840,1839
1822,1815,1941
1821,1851,1937
1873,1882,2093
1831,1785,1888
1810,1745,1671
1834,1783,1717
1856,1831,1820
1855,1831,1895
1847,1834,1911
1851,1837,1865
1860,1841,1851
1863,1833,1869
1901,1845,1874
1946,1867,1989
1941,1890,2032
1805,1775,1720
1771,1847,1728
1808,1838,1833
1871,1890,1925
1936,1970,2081
1840,1711,1817
1775,1722,1728
1798,1819,1793
1814,1839,1841
1840,1833,1863
1872,1851,1858
1872,1865,1856
1856,1845,1849
1863,1825,1862
1861,1796,1907
1857,1749,1879
1872,1879,1913
1859,1866,1885
1849,1860,1874
1814,1783,1841
1823,1773,1793
1859,1795,1809
1893,1806,1852
1847,1827,1839
1808,1804,1867
1822,1841,1932
1819,1843,1856
1857,1770,1770
1839,1724,1837
1825,1856,1930
1840,1911,1905
1826,1836,1787
1840,1751,1851
1823,1778,1869
1866,1893,1879
1871,1853,1856
1823,1829,1898
1840,1847,1815
1825,1783,1753
1836,1750,1791
1840,1839,1851
1856,1805,1969
1851,1824,1872
1856,1849,1860
1840,1792,1776
1867,1856,1904
1916,1888,1893
1824,1741,1761
1757,1752,1795
1804,1786,1814
1853,1767,1803
1879,1778,1835
1872,1840,1877
1841,1883,1958
1851,1889,1911
1840,1863,1845
1828,1807,1815
1843,1840,1894
1840,1849,1781
1860,1795,1821
1843,1786,1840
1830,1809,1890
1875,1874,1863
1873,1835,1815
1821,1699,1760
1835,1769,1835
1833,1811,1901
1873,1831,1854
1870,1757,1815
1856,1745,1834
1814,1872,1858
1771,1844,1826
1839,1879,1893
1877,1841,1935
1899,1882,1908
1825,1779,1829
1795,1775,1729
1840,1795,1808
1918,1827,1886
1858,1821,1904
1796,1861,1837
1791,1808,1851
1846,1799,1920
1873,1763,1767
1808,1755,1747
1827,1747,1853
1857,1806,1712
1842,1808,1765
1855,1829,1919
1851,1826,1936
1888,1815,1818
1806,1791,1727
1830,1831,1808
1892,1808,1954
1850,1833,1991
1818,1825,1664
1742,1747,1683
1795,1717,1898
1873,1758,2010
1888,1841,1983
1810,1780,1644
1756,1831,1746
1798,1937,1920
1881,1881,1926
1856,1695,1813
1778,1697,1703
1847,1776,1750
1847,1797,1774
1802,1858,1764
1867,1733,1805
1850,1805,1951
1857,1949,2003
1795,1803,1775
1794,1738,1705
1843,1734,1785
1870,1863,2017
1933,1993,2160
1778,1778,1622
1767,1822,1766
1850,1849,2151
1745,1664,1619
1762,1706,1576
1813,1794,1643
1832,1877,1923
1815,1921,2021
1856,1821,1783
1885,1680,1730
1916,1851,2091
1712,1799,1787
1744,1728,1499
1853,1786,1657
1829,1892,2011
1825,1792,1879
1821,1765,1680
1841,1813,1776
1861,1922,1875
1799,1751,1850
1750,1714,1844
1727,1779,1663
1775,1830,1670
1863,1914,1949
1850,1793,1829
1820,1789,1674
1919,1859,1887
1775,1753,1766
1721,1778,1733
1803,1782,1805
1895,1797,1797
1826,1851,1967
1751,1764,1728
1792,1699,1658
1887,1879,1831
1841,1873,1823
1847,1840,1875
1883,1939,1920
1840,1905,1807
1751,1808,1648
1811,1749,1875
1873,1664,1808
1941,1904,1947
1786,1872,1789
1711,1813,1744
1741,1679,1654
1791,1786,1744
1815,1802,1801
1799,1808,1829
1826,1813,1857
1872,1847,1840
1839,1867,1877
1853,1878,1853
1798,1850,1748
1811,1828,1738
1856,1821,1840
1871,1841,1827
1863,1861,1846
1873,1903,1907
1799,1821,1869
1808,1767,1652
1834,1707,1735
1820,1825,1794
1855,1827,1822
1828,1866,1904
1767,1727,1763
1823,1759,1769
1886,1855,1973
1809,1794,1799
1809,1841,1791
1844,1901,1904
1803,1808,1744
1814,1820,1774
1835,1827,1811
1900,1793,1830
1869,1867,1905
1815,1928,1966
1802,1903,1968
1846,1874,1715
1871,1907,1776
1795,1789,1728
1822,1682,1778
1817,1775,1795
1824,1839,1927
1840,1754,1878
1876,1772,1761
1914,1823,1776
1848,1851,1856
1835,1894,1840
1840,1826,1813
1856,1809,1853
1815,1863,1931
1805,1839,1886
1914,1850,1901
1873,1810,1771
1743,1781,1680
1748,1875,1815
1824,1962,1993
1855,1870,1909
1851,1792,1790
1923,1818,1830
1917,1872,1891
1915,1703,1805
1750,1729,1726
1776,1837,1757
1911,1839,1765
1895,1796,1877
1795,1835,1862
1760,1837,1841
1820,1871,1838
1860,1858,1862
1895,1898,2016
1925,1790,1927
1836,1744,1776
1790,1808,1803
1872,1815,1778
1837,1852,1782
1886,1937,1959
1831,1868,1903
1857,1824,1850
1835,1792,1822
1878,1792,1770
1808,1806,1743
1812,1826,1806
1840,1845,1862
1841,1882,1875
1841,1843,1879
1861,1842,1873
1872,1929,1955
1911,1837,1903
1888,1840,1847
1845,1746,1705
1808,1690,1744
1906,1909,1968
1861,1898,1921
1811,1849,1845
1872,1907,1996
1808,1761,1776
1800,1799,1743
1827,1831,1856
1864,1854,2046
1869,1849,1945
1927,1829,1684
1943,1807,1723
1846,1903,1983
1763,1887,1983
1812,1792,1695
1877,1798,1744
1833,1836,1921
1883,1866,1917
1935,1902,2016
1868,1830,1872
1840,1815,1630
1855,1806,1712
1871,1843,2112
1885,1861,2088
1750,1744,1635
1793,1811,1708
1931,1987,2101
1914,1806,1866
1803,1686,1616
1735,1815,1828
1890,2007,2425
1938,1861,2058
1826,1711,1357
1778,1776,1474
1830,1850,1807
1843,1869,2006
1827,1785,1935
1863,1795,1750
1867,1879,1750
1856,1840,1828
1833,1771,1871
1859,1770,1874
1858,1803,1878
1834,1863,2005
1815,1936,1962
1782,1791,1766
1819,1731,1814
1856,1810,1936
1908,1856,1895
1889,1902,1926
1850,1840,1759
1753,1769,1744
1779,1811,1843
1866,1777,1815
1897,1840,1874
1943,1920,1808
1849,1830,1799
1841,1795,1838
1729,1777,1764
1825,1858,1934
1920,1903,1852
1856,1821,1824
1744,1744,1808
1775,1782,1789
1838,1840,1913
1922,1886,2099
1885,1866,1938
1798,1780,1706
1838,1808,1655
1893,1803,1755
1815,1899,2016
1774,1856,2112
1798,1754,1722
1904,1818,1744
1840,1845,1780
1779,1788,1804
1791,1791,1823
1879,1866,1971
1915,1798,1827
1819,1765,1646
1783,1825,1737
1801,1840,1862
1841,1946,2011
1865,1904,2000
1840,1846,1872
1763,1620,1606
1815,1671,1685
1871,1806,1847
1873,1825,1890
1903,1919,2001
1864,1900,2000
1726,1808,1858
1754,1782,1789
1805,1773,1759
1859,1781,1755
1922,1800,1822
1866,1840,1913
1839,1859,1851
1872,1850,1845
1882,1886,1985
1847,1872,1959
1813,1769,1623
1895,1861,1751
1815,1835,1885
1765,1760,1876
1857,1766,1834
1943,1808,1856
1812,1768,1871
1718,1773,1842
1798,1870,2047
1879,1809,1941
1872,1803,1808
1771,1807,1638
1755,1803,1755
1840,1820,1879
1886,1818,1887
1833,1840,1925
1823,1842,1905
1840,1841,1840
1903,1862,1924
1920,1886,2021
1891,1895,1919
1861,1801,1809
1771,1698,1600
1794,1767,1694
1863,1776,1840
1964,1878,2112
1977,1790,1936
1828,1831,1804
1702,1826,1771
1744,1806,1875
1763,1776,1817
1821,1801,1798
1891,1856,1849
1911,1863,1901
1891,1836,1920
1854,1763,1774
1837,1761,1826
1825,1843,1855
1891,1856,1831
1874,1839,1801
1879,1885,1902
1841,1889,1904
1841,1904,1807
1857,1686,1778
1914,1839,2045
1920,1843,2199
1794,1779,1664
1775,1727,1521
1808,1770,1765
1825,1886,1975
1803,1787,1890
1805,1775,1775
1913,1853,1857
1950,1921,2070
1877,1854,1997
1814,1806,1778
1905,1808,1702
1897,1890,1917
1830,1821,1840
1799,1821,1823
1937,1838,1840
1815,1756,1789
1754,1782,1755
1813,1823,1841
1942,1837,1907
1929,1834,1984
1872,1914,1940
1857,1917,2000
1926,1847,1951
1870,1734,1648
1714,1728,1676
1776,1824,1823
1999,1873,2017
1838,1783,1846
1711,1690,1643
1770,1775,1772
1903,1870,1949
1914,1893,1930
1930,1818,1835
1904,1748,1793
1764,1771,1840
1800,1938,2055
1866,1872,1936
1856,1772,1737
1817,1776,1712
1797,1847,1901
1842,1917,2083
1840,1845,1776
1872,1847,1670
1863,1793,1923
1858,1801,1872
1889,1890,1795
1969,1746,1846
1867,1664,1841
1744,1790,1878
1778,1866,1863
1820,1843,1868
1874,1855,1891
1789,1808,1821
1819,1829,1909
1872,1823,1873
1883,1867,1806
1863,1794,1776
1819,1750,1818
1895,1834,1977
2003,1874,2021
1968,1814,1883
1778,1817,1794
1793,1843,1730
1837,1899,1804
1776,1707,1758
1731,1713,1811
1823,1822,2009
1904,1875,2119
1842,1751,1722
1786,1729,1603
1922,1855,1909
1922,1969,2225
1754,1767,1708
1759,1730,1581
1813,1824,1810
1900,1901,1961
1907,1860,1889
1805,1742,1809
1881,1875,2096
1877,1872,1920
1776,1682,1589
1825,1677,1744
1893,2001,2192
1896,1951,2016
1851,1810,1602
1827,1714,1604
1758,1806,1774
1927,1950,2108
1927,1931,2073
1814,1711,1749
1805,1669,1578
1751,1754,1744
1776,1790,1895
1826,1851,1909
1819,1820,1821
1929,1787,1786
1911,1777,1866
1813,1862,1910
1833,1871,1926
1877,1898,2083
1811,1777,1770
1821,1752,1698
1875,1823,1785
1899,1873,1870
1838,1826,1900
1843,1854,1939
1887,1920,1962
1840,1772,1697
1857,1810,1795
1877,1775,1803
1843,1813,1813
1751,1739,1823
1783,1665,1779
1845,1831,1893
1931,1939,2047
1905,1846,1844
1825,1777,1739
1790,1767,1805
1837,1890,1905
1894,1870,1932
1830,1835,1904
1791,1795,1842
1887,1811,1865
1907,1810,1803
1838,1818,1778
1820,1868,1879
1831,1840,1844
1871,1827,1761
1918,1903,1829
1879,1940,2017
1891,1754,1923
1864,1810,1712
1767,1728,1776
1774,1791,1856
1846,1874,1935
1894,1792,1827
1883,1815,2037
1798,1789,1794
1856,1791,1683
1846,1809,1741
1855,1878,1964
1975,1871,2121
1869,1820,1744
1814,1792,1685
1844,1840,1895
1789,1904,2011
1811,1776,1744
1834,1840,1817
1835,1840,1869
1840,1856,1954
1901,1904,1955
1888,1805,1695
1818,1767,1666
1808,1786,1856
1898,1872,1943
1921,1814,1955
1904,1797,1946
1799,1777,1728
1865,1847,1755
1968,1931,2078
1926,1791,1926
1765,1721,1625
1717,1830,1730
1811,1863,1995
1832,1858,2033
1830,1805,1808
1840,1808,1745
1897,1840,1860
1861,1836,1907
1914,1837,1873
1883,1793,1725
1826,1853,1822
1890,1927,1959
1942,1943,2170
1834,1762,1674
1830,1731,1535
1821,1767,1756
1827,1814,1968
1874,1814,1937
1857,1850,1886
1779,1859,1794
1854,1950,1949
1895,1934,2079
1882,1846,1767
1830,1706,1578
1827,1764,1836
1877,1838,2047
1811,1810,1858
1903,1805,1698
1917,1817,1803
1838,1836,1922
1791,1836,1827
1814,1761,1731
1870,1808,1975
1855,1837,1866
1916,1757,1645
1872,1875,1753
1821,1851,1951
1823,1801,1940
1847,1766,1835
1865,1861,1805
1817,1913,1943
1879,2037,2223
1878,1811,1793
1830,1745,1553
1788,1712,1655
1777,1785,1830
1877,1895,1996
1867,1823,1874
1866,1879,1904
1915,1793,1911
1931,1754,1767
1854,1819,1840
1874,1904,1891
1819,1819,1853
1815,1756,1680
1797,1808,1723
1770,1829,1819
1849,1853,1882
1968,1858,1917
1935,1962,2302
1767,1801,1936
1717,1725,1456
1805,1792,1606
1887,1843,1832
1898,1859,1957
1885,1828,1846
1882,1844,1840
1923,1885,2038
1878,1856,1980
1851,1747,1637
1887,1835,1705
1794,1827,1794
1765,1806,1875
1798,1810,1898
1839,1785,1790
1855,1794,1808
1983,1977,2251
1922,1873,2078
1809,1731,1535
1802,1781,1529
1819,1798,1777
1904,1837,1910
1919,1791,1837
1949,1865,2082
1847,1936,2128
1712,1810,1747
1719,1781,1623
1787,1759,1699
1889,1809,1827
1904,1894,1876
1913,1904,1924
1859,1904,1886
1871,1808,1949
1845,1791,1905
1790,1763,1808
1827,1809,1841
1838,1806,1778
1899,1829,1762
1968,1913,1856
1874,1837,1883
1775,1779,1898
1894,1902,2114
1806,1831,1901
1747,1747,1603
1809,1789,1660
1886,1851,1810
1871,1903,1881
1840,1798,1855
1898,1852,1872
1904,1792,1867
1923,1799,1874
1876,1858,1955
1818,1904,2073
1781,1840,1795
1773,1783,1683
1794,1777,1735
1861,1786,1803
1975,1786,1855
1854,1904,1936
1869,2006,2080
1851,1872,2010
1853,1791,1825
1815,1757,1609
1790,1769,1675
1798,1809,1837
1863,1846,1922
1927,1878,1889
1936,1801,1879
1914,1982,1904
1867,1810,1855
1749,1701,1806
1751,1711,1782
1807,1793,1847
1871,1871,1936
1925,1819,1815
1911,1779,1841
1878,1837,2065
1834,1940,2039
1780,1867,1814
1791,1821,1717
1835,1809,1713
1867,1830,1840
1919,1890,1946
1891,1863,1993
1772,1755,1744
1792,1780,1730
1858,1809,1808
1885,1855,1908
1914,1856,1917
1858,1853,1872
1791,1787,1841
1800,1808,1879
1842,1830,1952
1889,1862,1958
1936,1872,1791
1926,1810,1815
1850,1767,1809
1775,1709,1727
1776,1824,1805
1825,1865,1869
1885,1811,1873
1883,1866,1897
1949,1846,1900
1840,1791,1873
1770,1810,1843
1807,1807,1775
1854,1798,1825
1890,1854,1936
1930,1911,2065
1881,1847,1861
1856,1781,1696
1812,1869,1778
1933,1919,2139
1963,1890,2229
1767,1714,1616
1746,1696,1493
1805,1809,1859
1852,1822,1855
1907,1857,1783
1883,1690,1747
1808,1797,1850
1808,1872,1914
1840,1869,1904
1847,1836,1865
1858,1738,1840
1854,1749,1829
1846,1868,1897
1852,1885,1890
1853,1858,1900
1851,1840,1855
1885,1878,1873
1871,1813,1888
1899,1856,1895
1872,1797,1873
1845,1821,1856
1831,1795,1767
1847,1875,1810
1883,1867,1827
1885,1775,1891
1881,1792,1920
1852,1776,1859
1870,1813,1845
1830,1936,1874
1823,1791,1870
1835,1755,1879
1863,1827,1893
1856,1850,1893
1847,1835,1872
1846,1789,1863
1863,1860,1879
1863,1844,1885
1863,1830,1886
1849,1806,1881
1877,1829,1821
1872,1818,1839
1821,1881,1938
1805,1847,1939
1869,1871,1906
1846,1840,1874
1815,1776,1875
1812,1743,1878
1845,1783,1892
1875,1856,1891
1881,1856,1892
1828,1815,1935
1825,1789,1869
1833,1809,1817
1824,1813,1856
1811,1805,1872
1830,1808,1872
1849,1809,1864
1847,1770,1833
1828,1817,1890
1840,1841,1916
1853,1808,1869
1846,1851,1826
1805,1789,1858
1823,1855,1887
1809,1885,1878
1816,1758,1863
1808,1741,1872
1808,1785,1879
1833,1821,1857
1845,1865,1861
1821,1761,1872
1808,1751,1850
1824,1788,1856
1827,1818,1862
1831,1728,1809
1831,1789,1851
1817,1831,1873
1829,1829,1856
1856,1774,1872
1822,1794,1853
1809,1809,1849
1795,1829,1853
1800,1840,1916
1809,1839,1873
1808,1750,1823
1811,1744,1825
1845,1771,1840
1837,1798,1844
1835,1822,1840
1825,1806,1846
1851,1797,1843
1858,1762,1813
1827,1877,1878
1785,1784,1883
1815,1717,1810
1838,1795,1849
1825,1857,1876
1827,1838,1855
1820,1807,1843
1853,1872,1847
1827,1752,1791
1788,1694,1869
1782,1763,1904
1818,1814,1872
1834,1817,1843
1826,1808,1837
1835,1806,1846
1843,1805,1849
1856,1829,1840
1865,1847,1842
1830,1795,1837
1840,1763,1808
1850,1767,1821
1831,1821,1854
1839,1818,1867
1876,1859,1850
1888,1771,1808
1814,1755,1845
1808,1811,1873
1821,1825,1856
1827,1826,1813
1841,1786,1799
1828,1808,1819
1840,1798,1846
1859,1817,1840
1856,1808,1831
1859,1805,1840
1862,1840,1840
1881,1839,1824
1870,1781,1814
1856,1782,1827
1856,1761,1803
1857,1826,1823
1841,1859,1851
1846,1840,1843
1869,1827,1840
1897,1873,1827
1847,1796,1833
1829,1757,1809
1846,1829,1847
1889,1905,1818
1858,1825,1796
1838,1794,1829
1890,1876,1815
1875,1712,1770
1830,1744,1826
1833,1779,1843
1863,1808,1826
1866,1811,1805
1863,1807,1797
1879,1756,1770
1883,1813,1813
1884,1872,1836
1899,1871,1813
1845,1800,1815
1827,1805,1818
1843,1845,1829
1847,1810,1808
1842,1764,1782
1859,1827,1808
1884,1869,1826
1893,1822,1821
1842,1867,1787
1831,1783,1806
1843,1813,1826
1861,1802,1830
1872,1763,1776
1862,1792,1744
1842,1850,1814
1846,1829,1846
1843,1821,1841
1854,1809,1819
1872,1823,1808
1872,1821,1808
1872,1817,1813
1885,1838,1826
1883,1849,1817
1875,1828,1815
1877,1802,1801
1889,1808,1803
