1833,1808,1856
1839,1786,1874
1840,1836,1861
1821,1834,1856
1815,1808,1856
1845,1787,1851
1833,1817,1840
1821,1779,1829
1814,1823,1867
1841,1833,1869
1828,1872,1861
1775,1977,1872
1751,1825,1850
1776,1649,1856
1808,1680,1866
1793,1738,1854
1794,1776,1844
1833,1808,1844
1822,1797,1832
1797,1794,1828
1787,1778,1833
1806,1814,1839
1818,1859,1842
1815,1797,1808
1826,1726,1785
1828,1798,1835
1808,1901,1878
1809,1850,1851
1809,1845,1853
1850,1853,1822
1790,1857,1808
1775,1759,1804
1797,1744,1783
1806,1789,1805
1805,1776,1827
1790,1792,1825
1808,1647,1760
1791,1745,1774
1806,1897,1830
1814,1865,1855
1831,1811,1835
1838,1802,1814
1858,1745,1793
1792,1843,1821
1782,1863,1831
1811,1872,1823
1855,1827,1837
1792,1813,1790
1763,1793,1785
1783,1804,1797
1822,1874,1799
1811,1807,1791
1824,1696,1789
1838,1744,1822
1855,1782,1750
1825,1834,1793
1791,1989,1870
1787,1775,1825
1815,1785,1819
1822,1810,1821
1819,1799,1812
1838,1824,1814
1840,1863,1813
1817,1838,1799
1818,1823,1801
1824,1821,1810
1840,1843,1819
1808,1825,1767
1792,1703,1767
1819,1680,1762
1803,1863,1829
1814,1855,1825
1798,1839,1809
1831,1849,1802
1824,1823,1814
1821,1808,1821
1818,1820,1827
1827,1834,1827
1834,1840,1815
1865,1840,1824
1847,1795,1809
1839,1792,1802
1840,1834,1795
1837,1818,1840
1826,1859,1857
1829,1819,1810
1837,1814,1797
1857,1756,1787
1830,1797,1802
1835,1856,1794
1808,1808,1807
1809,1808,1840
1818,1810,1840
1840,1829,1829
1835,1831,1819
1823,1815,1821
1836,1817,1822
1838,1815,1810
1836,1911,1840
1838,1829,1834
1834,1762,1799
1824,1771,1812
1846,1743,1759
1839,1825,1828
1825,1886,1866
1832,1861,1842
1877,1755,1759
1872,1824,1817
1819,1901,1861
1808,1856,1855
1831,1882,1822
1840,1778,1822
1835,1785,1840
1835,1819,1809
1872,1853,1818
1870,1799,1812
1808,1818,1850
1823,1841,1840
1847,1829,1812
1861,1832,1822
1853,1872,1829
1843,1755,1808
1850,1732,1798
1841,1842,1849
1855,1855,1847
1867,1799,1809
1861,1797,1793
1861,1863,1807
1839,1872,1866
1843,1878,1870
1841,1876,1839
1850,1819,1837
1871,1770,1834
1853,1807,1839
1824,1836,1821
1827,1887,1830
1836,1898,1857
1855,1914,1847
1870,1813,1819
1842,1786,1846
1828,1790,1859
1865,1865,1855
1875,1751,1781
1858,1791,1793
1817,1858,1872
1831,1863,1891
1865,1855,1863
1901,1854,1849
1850,1840,1861
1837,1826,1842
1861,1872,1840
1862,1847,1840
1859,1806,1834
1857,1776,1839
1863,1753,1810
1857,1842,1872
1870,1923,1895
1829,1822,1826
1830,1769,1794
1827,1870,1840
1815,1885,1888
1821,1861,1872
1859,1840,1855
1883,1890,1833
1855,1781,1829
1831,1822,1857
1843,1845,1850
1851,1834,1841
1859,1824,1843
1862,1831,1844
1882,1850,1847
1867,1858,1854
1859,1878,1843
1877,1913,1810
1863,1746,1818
1825,1760,1847
1817,1813,1849
1863,1700,1786
1892,1732,1819
1822,1908,1911
1822,1904,1891
1846,1871,1875
1843,1840,1837
1824,1825,1828
1840,1827,1852
1853,1843,1864
1865,1843,1845
1872,1793,1812
1861,1875,1853
1857,1878,1870
1863,1844,1876
1866,1839,1887
1865,1815,1862
1871,1808,1853
1872,1846,1850
1889,1870,1856
1872,1823,1846
1902,1769,1786
1840,1818,1839
1808,1799,1905
1871,1771,1864
1840,1799,1840
1808,1821,1851
1817,1867,1890
1838,1865,1895
1840,1855,1873
1861,1843,1867
1851,1813,1863
1843,1805,1856
1856,1825,1857
1869,1843,1861
1872,1840,1862
1860,1808,1863
1860,1854,1890
1875,1886,1870
1869,1808,1845
1872,1683,1776
1851,1879,1881
1842,1925,1909
1857,1823,1877
1867,1840,1847
1857,1744,1875
1854,1824,1874
1842,1769,1837
1824,1806,1853
1842,1840,1871
1856,1856,1879
1859,1824,1863
1840,1802,1856
1844,1834,1864
1856,1856,1849
1874,1842,1863
1870,1816,1861
1871,1757,1834
1864,1893,1872
1852,1911,1891
1857,1862,1882
1878,1804,1846
1867,1874,1840
1859,1919,1841
1857,1795,1871
1872,1745,1833
1840,1804,1860
1798,1782,1869
1831,1778,1869
1858,1811,1901
1883,1858,1919
1869,1792,1785
1807,1795,1780
1826,1789,1833
1871,1787,1831
1859,1854,1873
1866,1840,1897
1880,1845,1903
1877,1840,1863
1875,1799,1827
1839,1780,1808
1835,1833,1866
1868,1903,1877
1877,1803,1862
1827,1787,1851
1823,1798,1858
1855,1853,1853
1856,1925,1838
1833,1782,1823
1840,1729,1861
1882,1685,1840
1863,1750,1894
1823,1851,1886
1837,1877,1859
1865,1865,1847
1875,1841,1853
1861,1811,1857
1880,1766,1814
1887,1792,1821
1862,1885,1887
1838,1926,1894
1842,1840,1872
1874,1826,1856
1872,1795,1870
1838,1823,1805
1790,1749,1776
1825,1803,1872
1874,1857,1929
1858,1907,1857
1822,1798,1826
1824,1803,1834
1847,1808,1845
1842,1824,1883
1889,1840,1865
1923,1790,1812
1946,1833,1819
1831,1819,1887
1826,1875,1969
1866,1849,1854
1909,1878,1781
1870,1777,1773
1826,1835,1855
1822,1837,1862
1877,1778,1840
1835,1805,1866
1762,1840,1839
1785,1847,1830
1822,1845,1840
1840,1836,1840
1855,1822,1861
1845,1857,1879
1839,1840,1805
1878,1878,1808
1879,1741,1863
1826,1820,1840
1850,1862,1795
1889,1777,1812
1863,1827,1893
1872,1769,1865
1779,1835,1809
1728,1904,1794
1771,1840,1802
1826,1824,1811
1830,1842,1835
1853,1867,1861
1850,1840,1843
1830,1826,1807
1827,1843,1808
1815,1801,1825
1829,1814,1833
1856,1835,1840
1869,1878,1920
1853,1773,1869
1847,1778,1773
1820,1861,1714
1838,1835,1847
1823,1904,1865
1852,1870,1840
1840,1828,1838
1838,1824,1789
1824,1781,1811
1830,1773,1805
1823,1809,1823
1797,1846,1811
1796,1846,1825
1861,1857,1838
1872,1754,1812
1833,1706,1749
1834,1833,1837
1837,1898,1954
1833,1879,1890
1845,1823,1781
1856,1793,1763
1888,1790,1907
1895,1930,2000
1838,1885,1779
1824,1807,1651
1827,1750,1680
1829,1781,1776
1919,1920,1891
1918,1895,1914
1761,1745,1748
1781,1811,1758
1822,1680,1705
1795,1827,1786
1809,1785,1867
1870,1830,1881
1840,1867,1901
1818,1871,1878
1840,1870,1841
1845,1843,1802
1847,1834,1830
1857,1837,1892
1870,1831,1813
1897,1889,1863
1887,1856,1858
1821,1755,1741
1851,1783,1769
1895,1818,1846
1866,1851,1831
1838,1852,1806
1839,1799,1800
1851,1761,1775
1872,1824,1843
1827,1907,1872
1833,1891,1878
1861,1853,1890
1853,1759,1850
1834,1766,1837
1869,1779,1813
1851,1873,1788
1841,1810,1793
1842,1801,1825
1858,1813,1867
1874,1836,1875
1872,1801,1839
1872,1872,1821
1871,1857,1822
1875,1840,1891
1893,1769,1879
1869,1787,1857
1811,1893,1799
1838,1857,1797
1840,1870,1825
1867,1837,1855
1917,1835,1857
1856,1850,1872
1851,1840,1840
1857,1839,1889
1851,1907,1941
1840,1811,1804
1827,1758,1739
1840,1825,1808
1874,1795,1862
1899,1808,1851
1881,1712,1801
1877,1814,1860
1877,1762,1840
1872,1885,1855
1839,1886,1866
1895,1874,1968
1890,1820,1910
1825,1859,1829
1813,1856,1810
1853,1865,1843
1872,1777,1795
1887,1827,1807
1861,1819,1823
1857,1798,1862
1853,1826,1885
1877,1887,1902
1875,1801,1842
1866,1772,1799
1835,1835,1902
1839,1783,1869
1871,1713,1837
1850,1833,1828
1824,1859,1794
1863,1843,1813
1888,1882,1840
1871,1774,1916
1863,1809,1959
1861,1789,1830
1808,1797,1744
1808,1840,1802
1851,1872,1925
1872,1892,1903
1842,1792,1776
1857,1731,1786
1846,1766,1803
1833,1930,1879
1842,1847,1887
1873,1781,1828
1877,1743,1811
1805,1826,1893
1808,1840,1867
1845,1815,1835
1863,1839,1878
1885,1821,1984
1872,1813,1910
1851,1675,1745
1796,1793,1769
1823,1867,1829
1839,1855,1847
1840,1817,1838
1859,1795,1840
1883,1801,1883
1910,1938,1989
1830,1872,1870
1795,1686,1753
1846,1725,1757
1837,1865,1806
1818,1834,1847
1827,1843,1873
1871,1879,1859
1879,1826,1903
1823,1861,1931
1797,1777,1872
1831,1809,1887
1826,1776,1751
1853,1819,1799
1845,1805,1830
1906,1862,1953
1933,1958,2075
1837,1731,1853
1740,1606,1616
1789,1814,1735
1833,1907,1841
1836,1867,1863
1843,1842,1867
1857,1872,1840
1863,1827,1830
1877,1862,1861
1858,1810,1904
1858,1805,1853
1787,1738,1805
1808,1770,1807
1846,1767,1817
1861,1804,1857
1840,1909,1884
1846,1774,1815
1856,1714,1817
1857,1822,1863
1842,1904,1873
1829,1875,1904
1840,1855,1918
1868,1871,1921
1863,1853,1851
1841,1749,1806
1840,1817,1827
1856,1840,1856
1906,1886,2010
1883,1829,1939
1822,1785,1721
1831,1831,1730
1827,1769,1803
1891,1733,1771
1831,1759,1870
1799,1894,1935
1798,1882,1895
1803,1803,1863
1828,1808,1861
1857,1835,1859
1859,1854,1862
1857,1795,1847
1838,1815,1872
1843,1836,1873
1854,1833,1863
1856,1823,1865
1915,1839,1872
1892,1728,1840
1840,1792,1840
1770,1900,1882
1796,1885,1886
1842,1883,1872
1870,1783,1904
1863,1897,1972
1857,1843,1914
1824,1802,1802
1806,1776,1789
1808,1776,1820
1862,1927,1925
1936,1909,2115
1805,1749,1831
1743,1680,1670
1791,1744,1757
1840,1808,1843
1857,1818,1882
1849,1809,1875
1855,1830,1876
1866,1826,1862
1891,1715,1797
1860,1791,1836
1821,1905,1930
1811,1904,1917
1831,1846,1877
1856,1797,1865
1875,1817,1872
1898,1901,1889
1813,1760,1849
1776,1825,1838
1814,1820,1867
1895,1851,1909
1881,1842,2079
1793,1685,1815
1776,1808,1708
1837,1840,1792
1904,1840,1891
1859,1807,1973
1825,1840,1951
1827,1851,1779
1863,1851,1894
1833,1802,1827
1813,1775,1747
1869,1835,1883
1905,1824,2061
1840,1825,1858
1803,1812,1680
1838,1732,1698
1891,1871,2045
1808,1862,1986
1802,1791,1711
1808,1778,1707
1872,1870,1875
1858,1849,1966
1795,1775,1821
1786,1808,1781
1798,1806,1806
1827,1769,1837
1860,1766,1907
1882,1839,1944
1835,1877,1874
1802,1824,1782
1828,1749,1794
1857,1820,1848
1857,1840,1869
1850,1838,1884
1905,1808,1917
1837,1853,1943
1792,1952,1799
1819,1806,1777
1833,1792,1806
1840,1856,1831
1840,1773,1791
1825,1754,1842
1805,1787,1866
1856,1810,1874
1907,1870,1919
1849,1786,1840
1797,1808,1824
1812,1856,1828
1825,1790,1854
1810,1728,1788
1858,1844,1858
1856,1898,1870
1840,1853,1822
1827,1922,1949
1826,1918,1926
1808,1791,1805
1815,1776,1772
1825,1812,1814
1843,1931,1856
1821,1762,1824
1807,1683,1779
1823,1744,1815
1847,1891,1907
1825,1909,1919
1840,1867,1886
1883,1926,1874
1828,1738,1808
1815,1753,1832
1819,1739,1835
1841,1867,1830
1838,1866,1853
1874,1925,1967
1855,1878,1841
1854,1803,1811
1842,1713,1819
1803,1753,1777
1792,1936,1828
1793,1854,1864
1808,1809,1937
1870,1817,1936
1813,1771,1806
1814,1808,1797
1839,1819,1794
1808,1822,1845
1811,1852,1841
1840,1879,1947
1854,1841,1872
1886,1891,1839
1858,1799,1828
1808,1837,1792
1808,1798,1825
1821,1840,1872
1845,1872,1908
1840,1849,1879
1846,1774,1847
1839,1872,1920
1849,1892,1904
1819,1777,1740
1857,1728,1693
1811,1793,1825
1779,1861,1885
1811,1794,1865
1852,1798,1828
1862,1857,1888
1843,1807,1898
1897,1766,1796
1817,1867,1857
1782,1936,1973
1821,1907,1863
1840,1744,1776
1799,1808,1851
1808,1846,1787
1829,1831,1778
1862,1836,1874
1902,1907,2000
1867,1743,1840
1807,1861,1765
1763,1762,1776
1829,1711,1782
1854,1875,1946
1877,1894,1911
1851,1808,1766
1804,1777,1779
1806,1851,1862
1819,1841,1841
1859,1878,1888
1914,1934,2058
1847,1859,1937
1777,1719,1685
1791,1742,1728
1846,1861,1914
1826,1823,1877
1847,1804,1859
1843,1803,1870
1853,1909,1958
1783,1776,1728
1839,1821,1789
1856,1746,1920
1809,1764,1726
1787,1841,1747
1770,1895,1880
1786,1831,1920
1840,1855,1975
1917,1893,1968
1865,1771,1760
1809,1811,1729
1795,1843,1805
1809,1767,1895
1850,1789,1840
1849,1823,1891
1827,1873,1883
1860,1872,1856
1840,1830,1840
1844,1825,1894
1890,1825,1946
1855,1877,1847
1788,1855,1777
1809,1863,1826
1799,1741,1744
1799,1755,1808
1809,1885,1997
1821,1767,1929
1789,1840,1680
1769,1851,1667
1794,1813,1845
1817,1802,1957
1890,1839,1972
1870,1776,1797
1807,1826,1826
1808,1885,1968
1790,1822,1773
1838,1821,1732
1865,1862,1936
1833,1792,1962
1831,1766,1728
1850,1856,1776
1872,1859,1934
1837,1874,1921
1849,1898,1904
1849,1786,1840
1762,1728,1697
1728,1697,1689
1808,1872,1965
1845,1930,1978
1838,1856,1802
1861,1830,1819
1821,1762,1779
1826,1822,1821
1805,1818,1808
1808,1851,1840
1835,1845,1856
1866,1887,1913
1872,1904,2007
1834,1749,1813
1840,1776,1807
1840,1851,1829
1849,1838,1787
1842,1909,1860
1827,1776,1853
1882,1914,1966
1898,1955,2123
1827,1678,1742
1750,1717,1615
1776,1865,1733
1836,1921,2029
1830,1863,1962
1834,1774,1773
1825,1712,1697
1792,1808,1808
1817,1875,1915
1824,1833,1904
1795,1794,1763
1810,1841,1834
1848,1861,1961
1889,1829,1872
1865,1809,1821
1856,1872,1894
1825,1872,1872
1806,1853,1935
1798,1718,1727
1855,1712,1670
1838,1874,1883
1830,2001,2035
1840,1918,1990
1796,1791,1755
1805,1813,1850
1842,1826,1744
1821,1795,1810
1846,1846,1921
1840,1846,1909
1843,1851,1939
1872,1907,2047
1840,1789,1671
1797,1712,1621
1815,1837,1859
1865,1967,1920
1888,1744,1841
1838,1841,1904
1823,1910,1943
1840,1793,1719
1821,1794,1754
1857,1837,1891
1840,1814,1983
1775,1840,1907
1846,1851,1823
1823,1803,1774
1790,1843,1821
1851,1901,1985
1855,1887,1842
1811,1818,1757
1851,1792,1822
1846,1850,1898
1838,1819,1821
1872,1805,1851
1846,1910,1829
1855,1904,1899
1869,1821,1942
1827,1833,1857
1827,1850,1731
1840,1793,1719
1856,1776,1803
1894,1856,2182
1841,1850,1968
1792,1761,1638
1805,1744,1707
1808,1873,1889
1856,1957,1974
1840,1863,1888
1809,1711,1680
1838,1855,1872
1814,1888,1936
1833,1917,1840
1830,1839,1726
1821,1807,1781
1842,1762,1845
1891,1819,1895
1857,1869,1877
1855,1840,1903
1843,1823,1898
1869,1917,2041
1814,1765,1811
1799,1767,1671
1798,1839,1840
1834,1771,1819
1840,1791,1811
1859,1868,1840
1884,1929,1958
1859,1833,1906
1871,1838,1865
1826,1851,1767
1813,1798,1749
1871,1771,1846
1825,1829,1888
1810,1873,1873
1843,1903,1873
1821,1810,1911
1797,1805,1805
1847,1873,1914
1856,1799,1919
1856,1763,1851
1840,1825,1904
1845,1814,1757
1838,1814,1779
1856,1865,1883
1872,1861,2006
1824,1837,1847
1814,1818,1770
1815,1785,1723
1868,1855,1824
1872,1830,1921
1872,1871,1915
1899,1858,1925
1872,1837,1930
1807,1871,1904
1749,1789,1697
1788,1822,1728
1808,1810,1837
1840,1787,1839
1841,1840,1882
1893,1890,2017
1837,1813,1869
1807,1717,1679
1813,1723,1711
1855,1872,1845
1868,1920,1979
1857,1934,2097
1886,1907,1943
1817,1797,1686
1812,1784,1767
1819,1842,1856
1872,1779,1826
1855,1814,1803
1790,1796,1814
1848,1767,1923
1949,1889,2031
1826,1841,1825
1786,1870,1771
1773,1803,1792
1827,1811,1873
1845,1829,1872
1904,1902,2079
1815,1775,1898
1779,1713,1638
1802,1823,1760
1826,1843,1866
1847,1828,1877
1836,1776,1834
1878,1787,1836
1898,1807,1888
1890,1878,1921
1840,1792,1931
1841,1781,1783
1853,1914,1859
1791,1872,1914
1751,1819,1802
1851,1877,1783
1837,1923,1871
1829,1734,1834
1823,1799,1870
1823,1825,1871
1844,1845,1994
1834,1803,1921
1840,1795,1793
1857,1855,1699
1861,1755,1754
1865,1730,1842
1926,1862,2095
1863,1874,1915
1803,1781,1677
1833,1834,1787
1841,1883,1985
1833,1830,1857
1771,1799,1746
1799,1847,1856
1830,1801,1895
1874,1833,1885
1867,1889,1885
1858,1837,1853
1883,1883,1849
1857,1872,1808
1827,1786,1744
1805,1643,1821
1802,1733,1843
1847,1883,1875
1843,1877,1922
1861,1851,1926
1858,1825,1950
1806,1814,1817
1789,1840,1766
1810,1802,1809
1822,1804,1842
1891,1937,2057
1872,1855,1970
1829,1761,1734
1855,1801,1775
1863,1867,1854
1847,1878,1923
1851,1817,1818
1849,1762,1749
1875,1770,1756
1827,1909,1905
1863,1872,1951
1890,1884,1969
1798,1721,1907
1739,1752,1691
1790,1815,1723
1840,1856,1855
1883,1885,1919
1893,1863,1881
1847,1834,1893
1803,1753,1846
1865,1815,1811
1931,1904,1903
1840,1771,1886
1808,1798,1858
1782,1842,1798
1802,1771,1747
1837,1806,1821
1841,1840,1946
1886,1834,1933
1825,1819,1904
1799,1862,1855
1834,1834,1773
1872,1873,1791
1879,1894,1887
1877,1769,1874
1798,1734,1813
1827,1907,1847
1855,1859,1994
1831,1734,1860
1837,1748,1776
1869,1893,1857
1833,1926,1781
1823,1808,1808
1861,1856,2039
1840,1783,1919
1851,1779,1755
1840,1812,1762
1781,1793,1780
1840,1825,1840
1859,1818,1906
1872,1810,1943
1854,1845,1904
1834,1821,1776
1821,1859,1824
1840,1887,1864
1851,1744,1819
1927,1894,1947
1875,1978,1998
1826,1838,1791
1795,1749,1803
1835,1758,1749
1809,1761,1810
1792,1785,1827
1845,1870,1872
1898,1836,1904
1862,1789,1881
1831,1791,1801
1841,1859,1854
1846,1837,1819
1821,1837,1816
1819,1810,1810
1847,1777,1839
1906,1734,1840
1851,1899,1873
1811,1904,1846
1851,1921,2032
1902,1888,2032
1854,1725,1663
1779,1712,1616
1785,1808,1786
1873,1877,1924
1887,1827,1869
1889,1779,1815
1844,1741,1863
1861,1888,2011
1821,1848,1900
1791,1772,1680
1823,1802,1734
1872,1849,1813
1909,1885,1915
1857,1712,1810
1842,1839,1894
1829,1953,1914
1856,1918,1814
1884,1822,1936
1891,1882,2021
1824,1837,1740
1775,1749,1626
1845,1829,1839
1870,1787,1961
1904,1840,1991
1843,1714,1568
1781,1669,1619
1805,1773,1810
1823,1905,1951
1831,1923,1979
1814,1834,1866
1827,1813,1795
1840,1838,1803
1854,1890,1974
1849,1866,1935
1856,1796,1733
1850,1789,1755
1840,1824,1840
1855,1855,1925
1859,1854,1920
1936,1920,1968
1877,1839,1776
1797,1777,1687
1811,1739,1712
1835,1787,1865
1810,1713,1790
1818,1715,1801
1860,1885,1922
1808,1823,1899
1788,1888,1858
1795,1872,1861
1840,1885,1874
1868,1833,1858
1863,1808,1839
1837,1781,1889
1837,1807,1891
1869,1840,1838
1792,1797,1719
1817,1808,1766
1852,1845,1914
1840,1862,1867
1840,1754,1803
1861,1776,1830
1892,1824,1925
1860,1937,1981
1826,1808,1807
1778,1822,1709
1822,1778,1803
1849,1865,1872
1849,1847,1831
1892,1858,1855
1904,1784,1902
1825,1819,1876
1790,1879,1914
1783,1793,1808
1811,1823,1869
1887,1798,1899
1873,1753,1782
1808,1761,1740
1798,1852,1789
1824,1868,1865
1889,1902,2069
1901,1871,1958
1840,1775,1667
1804,1767,1667
1809,1824,1814
1808,1874,1904
1824,1827,1907
1872,1869,1865
1834,1807,1825
1872,1831,1939
1860,1762,1883
1854,1842,1846
1849,1910,1959
1808,1817,1769
1840,1842,1789
1841,1847,1783
1854,1818,1799
1872,1769,1819
1890,1842,1921
1902,1872,2102
1781,1833,1810
1713,1779,1699
1776,1776,1760
1865,1850,1814
1911,1787,1938
1856,1773,1861
1821,1801,1776
1818,1792,1777
1847,1933,2009
1866,1884,2005
1817,1808,1794
1840,1815,1775
1874,1819,1803
1829,1813,1915
1839,1789,1879
1879,1815,1842
1874,1856,1891
1861,1834,1861
1834,1769,1682
1826,1872,1762
1830,1870,1830
1809,1796,1846
1849,1887,1888
1894,1744,1869
1840,1760,1921
1791,1757,1822
1808,1833,1819
1829,1871,1886
1870,1815,1954
1845,1785,1865
1860,1842,1812
1839,1861,1817
1836,1849,1886
1869,1844,1891
1875,1841,1872
1841,1820,1842
1869,1786,1749
1831,1778,1748
1851,1845,1888
1878,1807,1904
1904,1776,1872
1826,1775,1712
1760,1815,1788
1811,1840,1871
1865,1943,1868
1906,1820,1953
1871,1789,1913
1793,1809,1791
1790,1825,1889
1862,1827,1904
1845,1802,1836
1847,1818,1826
1855,1785,1857
1831,1802,1814
1851,1840,1808
1914,1909,1947
1866,1847,1851
1808,1824,1779
1835,1791,1851
1903,1816,1817
1863,1791,1758
1880,1815,1856
1834,1840,1898
1818,1915,1904
1851,1938,1968
1849,1737,1862
1811,1596,1657
1867,1777,1687
1833,1911,1841
1856,1930,2080
1862,1830,2025
1825,1749,1764
1794,1728,1610
1819,1841,1818
1837,1885,1946
1869,1915,1979
1869,1845,1901
1882,1767,1785
1843,1757,1779
1857,1845,1776
1889,1904,1921
1838,1728,1802
1760,1711,1706
1827,1845,1777
1904,1791,1846
1881,1843,1956
1805,1889,1904
1807,1797,1808
1839,1718,1791
1850,1838,1872
1813,1920,1920
1801,1851,1883
1827,1809,1807
1859,1819,1808
1884,1868,1888
1878,1851,1922
1853,1776,1840
1865,1815,1857
1808,1782,1761
1803,1920,1873
1840,1860,1931
1862,1776,1831
1872,1761,1798
1792,1845,1824
1799,1869,1858
1834,1789,1869
1881,1784,1762
1878,1818,1812
1855,1836,1910
1840,1875,1925
1869,1838,1808
1846,1838,1802
1829,1808,1904
1813,1773,1827
1831,1775,1862
1886,1831,1872
1866,1862,1787
1807,1799,1791
1829,1859,1813
1834,1900,1914
1840,1847,1876
1855,1840,1910
1856,1840,1867
1871,1856,1840
1872,1781,1810
1883,1809,1859
1843,1835,1857
1825,1856,1795
1864,1899,1904
1907,1898,1913
1856,1714,1741
1791,1763,1791
1821,1728,1824
1900,1916,2007
1837,1842,1793
1790,1863,1725
1814,1808,1837
1842,1865,1919
1869,1895,1968
1867,1851,1918
1840,1870,1792
1847,1808,1778
1851,1804,1852
1829,1808,1807
1871,1818,1829
1904,1969,2019
1853,1783,1856
1846,1807,1794
1839,1809,1838
1836,1772,1781
1839,1801,1755
1904,1797,1815
1923,1823,2023
1814,1899,1919
1780,1808,1756
1790,1799,1776
1857,1925,1904
1872,1853,1989
1810,1771,1793
1818,1815,1776
1843,1869,1847
1890,1840,1846
1856,1797,1871
1791,1802,1831
1831,1841,1840
1831,1851,1885
1840,1838,1885
1876,1898,1941
1856,1829,1899
1815,1731,1771
1872,1735,1830
1869,1912,1917
1859,1867,1876
1837,1841,1839
1877,1886,1937
1822,1845,1765
1799,1753,1648
1847,1773,1824
1898,1847,1969
1886,1826,1936
1827,1785,1805
1792,1840,1935
1828,1827,1856
1855,1843,1760
1856,1801,1792
1857,1780,1878
1823,1846,1937
1843,1855,1921
1841,1839,1861
1863,1871,1917
1881,1750,1805
1862,1771,1715
1839,1822,1793
1808,1872,1855
1859,1898,1887
1887,1840,1949
1840,1852,1826
1815,1785,1773
1857,1856,1881
1844,1859,1886
1860,1822,1891
1872,1845,1885
1782,1795,1777
1831,1808,1783
1918,1936,2042
1863,1861,2054
1830,1765,1693
1843,1744,1673
1810,1786,1775
1814,1815,1864
1845,1874,1875
1882,1927,1904
1887,1840,1889
1881,1839,1885
1833,1714,1904
1841,1778,1904
1833,1874,1726
1803,1869,1754
1815,1827,1860
1856,1875,1872
1873,1777,1824
1870,1826,1905
1879,1840,2058
1825,1808,1797
1794,1813,1736
1822,1830,1797
1893,1867,1920
1891,1834,1892
1872,1799,1781
1836,1775,1835
1823,1865,1878
1852,1847,1871
1890,1808,1816
1838,1863,1835
1805,1861,1795
1814,1866,1810
1840,1856,1904
1891,1845,1931
1857,1777,1797
1827,1806,1766
1861,1904,1957
1856,1817,1964
1810,1775,1747
1827,1803,1707
1872,1858,1794
1858,1891,1975
1872,1808,1984
1861,1791,1810
1838,1776,1638
1840,1665,1723
1841,1859,1927
1840,1918,1965
1844,1905,1893
1845,1855,1785
1829,1793,1807
1841,1831,1933
1893,1799,1903
1870,1872,1973
1795,1802,1779
1809,1787,1629
1870,1889,1825
1922,1926,2187
1888,1829,1937
1872,1758,1594
1847,1725,1648
1893,1813,1867
1840,1881,1942
1837,1883,1751
1816,1760,1736
1808,1771,1827
1842,1808,1872
1853,1849,1921
1840,1847,1872
1837,1810,1809
1850,1825,1871
1891,1817,1894
1862,1856,1885
1851,1925,1927
1850,1829,1819
1895,1893,1987
1845,1825,1780
1808,1770,1625
1866,1775,1747
1882,1838,1936
1881,1857,1819
1815,1815,1766
1867,1951,1886
1872,1807,1897
1847,1731,1872
1780,1775,1728
1786,1751,1783
1818,1850,1904
1875,1854,1946
1865,1853,1989
1860,1879,1891
1829,1845,1792
1799,1795,1712
1809,1803,1759
1878,1866,1934
1905,1889,2033
1891,1824,1831
1841,1786,1697
1818,1835,1743
1838,1815,1781
1873,1890,1910
1829,1840,1889
1841,1819,1933
1889,1819,1853
1875,1844,1831
1781,1686,1777
1776,1811,1849
1791,1907,1893
1853,1842,1824
1872,1809,1899
1889,1803,1941
1824,1773,1808
1842,1886,1958
1839,1851,1883
1872,1841,1983
1851,1847,1810
1794,1783,1603
1807,1798,1730
1872,1872,1915
1920,1914,1982
1909,1872,1867
1892,1711,1740
1808,1722,1734
1754,1842,1840
1808,1904,1936
1823,1856,1917
1856,1751,1949
1827,1823,1904
1824,1838,1755
1822,1808,1759
1872,1793,1847
1870,1866,1942
1819,1839,1904
1831,1841,1824
1823,1779,1751
1858,1833,1849
1933,1988,2133
1839,1765,1791
1849,1715,1648
1872,1808,1729
1872,1809,1870
1870,1885,2018
1889,1789,1917
1840,1840,1728
1771,1795,1690
1766,1827,1827
1792,1840,1856
1955,1969,1969
1895,1796,1953
1763,1693,1761
1792,1798,1815
1831,1860,1831
1861,1859,1802
1840,1831,1821
1904,1874,1933
1871,1781,1835
1845,1704,1739
1852,1732,1787
1873,1957,2058
1881,1941,2032
1792,1830,1790
1814,1803,1730
1857,1819,1787
1850,1876,1871
1854,1873,1948
1829,1791,1829
1805,1746,1756
1791,1767,1712
1835,1804,1828
1877,1887,2033
1849,1803,1815
1823,1801,1739
1849,1856,1830
1863,1814,1891
1861,1863,1957
1876,1802,1855
1854,1855,1728
1790,1789,1778
1799,1703,1838
1833,1856,1893
1895,1845,1917
1837,1840,1822
1811,1819,1758
1825,1854,1870
1845,1910,1998
1846,1847,1900
1829,1837,1831
1872,1811,1717
1881,1773,1877
1796,1770,1843
1789,1806,1743
1825,1731,1741
1859,1840,1901
1842,1910,2027
1842,1869,1904
1869,1847,1840
1842,1829,1813
1803,1808,1723
1840,1715,1722
1870,1749,1853
1889,1904,2035
1872,1851,1833
1808,1808,1756
1786,1825,1791
1824,1776,1863
1874,1928,2047
1824,1729,1821
1762,1757,1690
1801,1865,1802
1882,1805,1931
1880,1834,1914
1798,1850,1802
1851,1891,1967
1857,1793,1947
1802,1760,1725
1817,1781,1680
1842,1865,1773
1863,1799,1831
1938,1879,1982
1894,1779,1961
1782,1834,1810
1722,1814,1741
1787,1847,1808
1857,1866,1933
1857,1829,1917
1840,1751,1759
1853,1808,1723
1883,1844,1808
1846,1840,1919
1891,1882,2129
1810,1802,1886
1798,1805,1611
1898,1789,1730
1869,1769,1920
1829,1887,2123
1741,1789,1776
1779,1728,1660
1843,1777,1747
1901,1929,1955
1919,1995,1986
1788,1779,1727
1746,1662,1651
1823,1798,1818
1843,1909,1919
1879,1911,1994
1858,1819,1995
1799,1712,1733
1791,1813,1667
1803,1805,1776
1895,1871,2015
1889,1789,1930
1821,1807,1750
1889,1899,1822
1857,1866,1895
1777,1795,1845
1835,1779,1872
1854,1744,1781
1823,1725,1776
1842,1813,1891
1855,1956,2007
1805,1909,1840
1797,1818,1739
1798,1797,1715
1815,1841,1824
1854,1808,1873
1855,1827,1866
1843,1808,1821
1811,1838,1812
1806,1802,1890
