1814,1855,1872
1829,1817,1890
1859,1775,1840
1862,1819,1815
1867,1795,1820
1841,1795,1799
1833,1797,1851
1835,1855,1856
1814,1823,1858
1846,1862,1863
1876,1882,1851
1854,1798,1843
1815,1791,1853
1837,1823,1855
1865,1873,1856
1872,1867,1837
1844,1827,1840
1833,1811,1866
1851,1866,1872
1863,1853,1845
1810,1808,1843
1839,1823,1811
1869,1799,1840
1830,1817,1829
1831,1847,1858
1849,1871,1901
1834,1835,1850
1818,1799,1839
1808,1782,1840
1863,1888,1835
1868,1808,1849
1844,1793,1855
1815,1861,1842
1830,1790,1841
1857,1793,1841
1842,1817,1838
1847,1859,1845
1859,1871,1849
1879,1797,1840
1831,1803,1843
1801,1798,1843
1850,1794,1855
1872,1831,1854
1861,1808,1805
1803,1791,1863
1823,1821,1863
1857,1842,1853
1857,1847,1850
1847,1847,1849
1856,1868,1844
1881,1858,1797
1862,1767,1791
1805,1828,1865
1825,1896,1890
1868,1810,1867
1851,1762,1843
1840,1802,1831
1833,1830,1840
1881,1888,1852
1835,1872,1841
1792,1776,1840
1823,1779,1846
1843,1798,1837
1849,1808,1827
1822,1865,1840
1845,1812,1852
1872,1809,1819
1855,1794,1855
1823,1776,1865
1838,1806,1845
1856,1859,1840
1850,1842,1840
1814,1849,1841
1829,1849,1843
1863,1855,1855
1861,1872,1845
1845,1839,1840
1840,1818,1841
1862,1794,1839
1812,1754,1836
1787,1797,1859
1829,1842,1859
1861,1831,1858
1841,1805,1838
1811,1856,1827
1845,1867,1818
1849,1799,1813
1825,1845,1879
1807,1819,1878
1839,1827,1857
1867,1819,1835
1844,1799,1846
1838,1845,1868
1843,1848,1870
1856,1856,1865
1840,1855,1840
1844,1870,1846
1872,1858,1856
1875,1913,1856
1825,1797,1840
1789,1712,1838
1807,1770,1846
1857,1856,1857
1839,1794,1874
1822,1849,1841
1840,1798,1769
1851,1775,1818
1823,1808,1877
1799,1826,1887
1836,1827,1870
1856,1841,1867
1832,1856,1852
1839,1860,1841
1857,1823,1847
1862,1843,1859
1846,1847,1854
1842,1908,1847
1872,1915,1857
1844,1759,1852
1792,1715,1850
1787,1778,1855
1839,1866,1862
1866,1822,1855
1835,1773,1840
1840,1728,1813
1825,1797,1904
1821,1861,1899
1821,1839,1869
1831,1810,1841
1852,1851,1822
1874,1840,1842
1839,1847,1874
1815,1815,1869
1847,1834,1859
1858,1862,1861
1851,1871,1821
1835,1881,1825
1851,1874,1866
1853,1866,1872
1823,1790,1856
1823,1792,1863
1838,1840,1856
1884,1876,1811
1821,1711,1830
1754,1712,1869
1785,1791,1889
1842,1829,1879
1849,1839,1873
1835,1826,1846
1840,1848,1846
1870,1874,1851
1839,1857,1863
1840,1824,1840
1856,1855,1835
1873,1863,1843
1823,1881,1854
1798,1844,1846
1828,1849,1847
1847,1808,1831
1829,1809,1814
1805,1822,1860
1840,1807,1851
1859,1754,1825
1824,1799,1871
1823,1850,1882
1872,1883,1836
1828,1835,1854
1808,1779,1857
1807,1798,1861
1822,1819,1855
1826,1821,1840
1823,1831,1840
1821,1856,1859
1843,1858,1847
1855,1830,1838
1837,1822,1840
1821,1855,1837
1825,1866,1857
1845,1807,1852
1838,1825,1841
1828,1829,1849
1847,1896,1815
1847,1807,1816
1811,1807,1854
1801,1833,1872
1815,1840,1839
1854,1870,1829
1835,1893,1839
1808,1782,1862
1831,1772,1870
1841,1762,1867
1827,1810,1861
1825,1804,1851
1842,1834,1851
1851,1834,1857
1839,1813,1851
1815,1823,1856
1853,1849,1847
1882,1827,1850
1838,1799,1812
1808,1840,1837
1837,1862,1841
1866,1835,1815
1808,1825,1881
1829,1818,1870
1834,1826,1855
1833,1831,1854
1824,1827,1833
1808,1827,1841
1833,1842,1843
1859,1907,1846
1840,1837,1841
1827,1823,1854
1842,1811,1843
1860,1835,1847
1865,1840,1843
1845,1878,1830
1877,1938,1788
1849,1779,1863
1796,1735,1883
1807,1783,1870
1841,1850,1857
1872,1808,1830
1867,1820,1792
1842,1810,1833
1839,1856,1887
1851,1851,1877
1835,1819,1858
1782,1789,1844
1829,1837,1856
1848,1869,1888
1856,1904,1857
1853,1823,1829
1817,1777,1833
1825,1808,1839
1838,1840,1845
1826,1830,1847
1848,1840,1857
1871,1853,1860
1855,1856,1860
1835,1856,1856
1844,1861,1856
1875,1858,1856
1877,1878,1847
1859,1936,1786
1847,1808,1789
1835,1744,1879
1808,1791,1906
1811,1869,1884
1855,1822,1856
1873,1815,1834
1854,1852,1846
1840,1827,1858
1850,1855,1866
1873,1851,1871
1841,1833,1864
1828,1863,1840
1847,1808,1831
1869,1818,1866
1872,1827,1857
1842,1831,1840
1845,1861,1851
1872,1939,1856
1847,1843,1843
1811,1774,1795
1826,1842,1857
1856,1855,1891
1861,1834,1861
1839,1858,1841
1844,1842,1842
1859,1856,1835
1840,1757,1855
1829,1769,1854
1867,1795,1845
1875,1841,1824
1852,1867,1839
1813,1806,1853
1840,1813,1866
1871,1839,1866
1865,1850,1851
1855,1850,1849
1872,1826,1851
1862,1841,1852
1879,1808,1821
1863,1817,1744
1847,1861,1851
1838,1871,1917
1808,1754,1886
1819,1776,1872
1852,1843,1857
1862,1845,1838
1839,1826,1828
1827,1805,1830
1852,1834,1867
1872,1837,1860
1858,1827,1842
1842,1814,1853
1869,1856,1849
1878,1855,1840
1856,1823,1847
1851,1830,1847
1873,1840,1831
1877,1849,1842
1861,1861,1856
1872,1854,1809
1872,1903,1824
1866,1818,1841
1819,1769,1854
1846,1829,1835
1818,1795,1872
1830,1783,1865
1831,1793,1823
1827,1757,1840
1871,1797,1843
1863,1819,1846
1840,1821,1853
1856,1837,1849
1868,1850,1843
1872,1855,1856
1855,1843,1849
1841,1856,1837
1853,1843,1839
1870,1829,1842
1856,1846,1854
1840,1846,1839
1872,1839,1807
1871,1863,1870
1863,1869,1849
1850,1854,1840
1855,1859,1865
1825,1815,1862
1824,1866,1837
1808,1747,1833
1850,1799,1856
1875,1813,1844
1840,1790,1830
1817,1813,1847
1842,1837,1861
1872,1862,1854
1862,1866,1836
1866,1796,1795
1835,1809,1871
1863,1842,1872
1857,1885,1842
1847,1827,1836
1871,1838,1863
1852,1835,1857
1829,1808,1808
1840,1796,1789
1858,1863,1854
1853,1843,1874
1847,1882,1853
1814,1829,1845
1823,1776,1843
1857,1793,1857
1872,1845,1847
1845,1895,1840
1858,1780,1840
1850,1772,1835
1843,1828,1829
1840,1827,1839
1865,1825,1849
1857,1838,1840
1827,1808,1840
1821,1819,1840
1872,1791,1781
1889,1838,1798
1837,1835,1874
1819,1851,1886
1840,1862,1868
1879,1856,1847
1865,1835,1843
1835,1839,1840
1840,1818,1849
1870,1839,1855
1873,1860,1855
1885,1901,1866
1852,1850,1842
1861,1749,1845
1847,1807,1839
1840,1797,1833
1856,1826,1847
1889,1894,1846
1855,1820,1839
1840,1794,1840
1865,1817,1840
1872,1838,1841
1854,1847,1840
1854,1803,1781
1824,1745,1835
1829,1831,1889
1843,1860,1852
1872,1834,1849
1842,1857,1856
1855,1849,1866
1850,1834,1856
1839,1822,1849
1863,1840,1847
1876,1859,1845
1859,1840,1840
1845,1843,1847
1864,1856,1855
1875,1882,1855
1869,1851,1846
1849,1867,1843
1839,1843,1845
1847,1811,1862
1852,1821,1863
1829,1841,1872
1869,1871,1850
1880,1842,1842
1857,1820,1860
1840,1842,1855
1858,1894,1829
1857,1835,1837
1840,1799,1825
1844,1777,1801
1838,1795,1872
1845,1846,1904
1847,1826,1881
1856,1810,1854
1853,1808,1855
1866,1811,1840
1853,1872,1851
1855,1899,1871
1852,1863,1871
1830,1795,1872
1810,1795,1835
1826,1815,1831
1837,1796,1840
1857,1852,1850
1838,1808,1838
1819,1792,1825
1837,1836,1846
1869,1851,1854
1858,1856,1847
1840,1847,1847
1863,1900,1856
1886,1840,1853
1858,1823,1862
1861,1865,1815
1857,1841,1814
1850,1795,1876
1855,1797,1861
1870,1798,1841
1841,1856,1839
1840,1861,1821
1827,1727,1806
1808,1755,1873
1818,1813,1872
1857,1829,1865
1845,1821,1853
1848,1840,1830
1851,1808,1863
1865,1829,1879
1857,1822,1852
1843,1838,1851
1874,1857,1866
1876,1851,1866
1881,1851,1840
1867,1765,1812
1857,1845,1809
1825,1826,1886
1821,1861,1869
1815,1795,1861
1842,1776,1843
1843,1769,1855
1845,1782,1852
1840,1814,1851
1842,1855,1860
1872,1870,1859
1844,1850,1841
1828,1840,1845
1836,1817,1869
1867,1870,1857
1866,1841,1851
1846,1843,1853
1858,1797,1830
1852,1766,1845
1840,1847,1860
1845,1849,1842
1873,1763,1797
1840,1772,1844
1806,1814,1879
1808,1826,1871
1874,1920,1840
1886,1840,1855
1831,1805,1873
1824,1776,1855
1834,1817,1855
1869,1830,1850
1869,1829,1839
1850,1808,1818
1862,1835,1845
1840,1851,1877
1827,1825,1865
1821,1828,1847
1856,1861,1851
1867,1855,1853
1859,1865,1871
1846,1861,1847
1838,1845,1853
1855,1871,1844
1837,1823,1854
1843,1789,1834
1863,1775,1838
1850,1822,1840
1827,1836,1873
1808,1813,1876
1840,1819,1857
1886,1829,1856
1903,1817,1821
1808,1810,1841
1794,1846,1872
1833,1833,1871
1856,1879,1855
1813,1787,1856
1840,1771,1843
1879,1810,1851
1854,1835,1842
1834,1861,1845
1872,1901,1867
1860,1835,1855
1845,1819,1835
1838,1831,1851
1856,1849,1847
1898,1895,1792
1875,1951,1835
1821,1749,1871
1824,1745,1868
1847,1801,1856
1847,1825,1843
1842,1840,1846
1863,1878,1850
1912,1840,1812
1849,1840,1861
1809,1792,1875
1856,1844,1882
1888,1882,1822
1854,1778,1813
1815,1799,1862
1843,1840,1879
1877,1919,1875
1881,1833,1856
1840,1776,1825
1845,1819,1795
1852,1821,1856
1846,1839,1875
1835,1835,1872
1867,1873,1862
1878,1803,1851
1853,1801,1847
1842,1834,1851
1871,1857,1850
1908,1834,1840
1891,1802,1801
1820,1827,1853
1808,1884,1888
1853,1909,1856
1826,1794,1827
1814,1765,1856
1856,1802,1860
1877,1867,1883
1852,1840,1856
1822,1837,1855
1855,1840,1849
1878,1827,1837
1853,1808,1791
1824,1840,1863
1847,1861,1883
1882,1929,1863
1867,1840,1839
1862,1840,1806
1827,1840,1861
1836,1775,1873
1852,1798,1861
1846,1825,1838
1862,1876,1869
1872,1838,1855
1858,1791,1837
1826,1842,1843
1813,1840,1863
1846,1851,1867
1857,1936,1853
1813,1809,1856
1840,1786,1858
1865,1811,1855
1850,1841,1849
1839,1866,1838
1858,1827,1861
1888,1821,1851
1873,1889,1805
1810,1835,1875
1827,1792,1879
1856,1786,1873
1858,1813,1846
1856,1850,1847
1866,1836,1854
1890,1859,1829
1838,1830,1846
1811,1813,1864
1861,1869,1861
1886,1846,1853
1879,1845,1851
1843,1810,1843
1836,1837,1831
1836,1776,1856
1840,1787,1823
1821,1823,1861
1855,1868,1809
1855,1835,1874
1840,1867,1885
1840,1893,1872
1840,1759,1852
1860,1776,1851
1866,1808,1859
1831,1801,1829
1843,1853,1851
1861,1877,1881
1872,1945,1878
1834,1840,1831
1850,1781,1829
1879,1815,1847
1870,1832,1850
1829,1834,1847
1869,1869,1851
1904,1861,1826
1842,1797,1857
1797,1801,1872
1831,1872,1865
1895,1840,1788
1840,1776,1831
1815,1793,1843
1808,1779,1840
1839,1819,1878
1829,1799,1872
1822,1808,1867
1849,1825,1860
1873,1851,1856
1856,1841,1840
1831,1839,1838
1845,1818,1865
1872,1834,1855
1857,1839,1847
1840,1856,1839
1869,1850,1837
1878,1824,1836
1852,1795,1856
1833,1817,1850
1910,1794,1773
1846,1877,1811
1770,1757,1860
1777,1795,1890
1831,1811,1891
1857,1796,1860
1856,1813,1836
1847,1831,1845
1845,1870,1834
1863,1803,1829
1844,1846,1847
1833,1807,1856
1851,1819,1858
1874,1865,1858
1873,1836,1840
1872,1835,1867
1850,1875,1861
1855,1825,1831
1859,1786,1828
1829,1799,1840
1859,1841,1795
1874,1763,1819
1834,1829,1869
1778,1819,1863
1804,1803,1857
1853,1824,1846
1850,1861,1834
1841,1851,1840
1858,1830,1830
1851,1792,1851
1855,1811,1842
1837,1834,1840
1854,1885,1831
1873,1843,1848
1866,1813,1856
1853,1839,1843
1858,1879,1828
1872,1825,1841
1847,1777,1792
1841,1788,1837
1827,1796,1892
1832,1808,1885
1813,1757,1834
1838,1769,1818
1842,1893,1871
1892,1867,1877
1851,1869,1847
1787,1818,1840
1818,1816,1840
1857,1833,1855
1872,1842,1842
1846,1847,1840
1856,1865,1846
1887,1920,1851
1869,1883,1838
1831,1798,1839
1829,1792,1840
1857,1802,1852
1861,1902,1808
1862,1793,1781
1850,1775,1867
1840,1808,1872
1846,1779,1831
1830,1856,1846
1849,1847,1847
1875,1748,1840
1824,1781,1866
1826,1811,1859
1842,1853,1856
1859,1869,1845
1840,1872,1842
1824,1824,1851
1849,1835,1844
1879,1863,1857
1863,1859,1851
1841,1831,1847
1847,1814,1857
1864,1808,1853
1840,1830,1856
1836,1857,1851
1861,1850,1792
1860,1867,1837
1823,1758,1862
1808,1744,1865
1849,1799,1866
1886,1839,1861
1883,1897,1856
1859,1906,1833
1873,1792,1833
1854,1757,1863
1795,1802,1869
1783,1787,1846
1830,1771,1813
1859,1791,1857
1863,1815,1860
1855,1855,1872
1863,1850,1857
1862,1851,1840
1861,1849,1841
1843,1846,1843
1860,1856,1851
1876,1867,1850
1872,1871,1838
1872,1846,1763
1851,1846,1862
1843,1805,1886
1828,1830,1851
1813,1901,1841
1831,1805,1839
1840,1759,1859
1866,1764,1846
1843,1744,1817
1845,1819,1856
1858,1919,1846
1827,1822,1857
1794,1802,1850
1823,1825,1840
1869,1887,1842
1856,1839,1855
1847,1836,1869
1853,1839,1853
1878,1861,1853
1856,1846,1829
1861,1834,1776
1842,1806,1798
1850,1827,1887
1861,1952,1893
1826,1856,1870
1806,1723,1852
1827,1751,1844
1859,1798,1846
1856,1842,1824
1840,1818,1838
1838,1845,1862
1839,1848,1856
1822,1851,1850
1844,1855,1844
1873,1872,1843
1867,1873,1845
1841,1821,1843
1855,1844,1851
1887,1902,1837
1872,1838,1840
1846,1837,1847
1858,1854,1855
1872,1866,1857
1869,1857,1850
1861,1841,1840
1872,1843,1813
1872,1878,1852
1854,1865,1850
1831,1791,1863
1838,1781,1870
1873,1792,1857
1830,1885,1843
1809,1783,1850
1829,1783,1850
1851,1822,1846
1859,1839,1841
1851,1847,1859
1847,1841,1840
1886,1862,1840
1870,1947,1813
1827,1828,1797
1819,1755,1858
1837,1819,1885
1843,1851,1857
1841,1847,1851
1846,1845,1850
1879,1863,1839
1885,1831,1792
1836,1846,1869
1827,1819,1887
1849,1821,1870
1856,1833,1845
1851,1842,1842
1883,1907,1853
1876,1866,1850
1872,1831,1850
1858,1826,1857
1839,1871,1864
1858,1888,1849
1841,1814,1851
1795,1776,1852
1781,1741,1853
1837,1833,1872
1853,1818,1850
1849,1792,1835
1865,1790,1809
1861,1926,1843
1857,1830,1818
1826,1815,1853
1857,1825,1864
1855,1803,1870
1842,1815,1859
1835,1842,1843
1859,1862,1846
1882,1867,1852
1875,1878,1840
1839,1857,1840
1839,1827,1841
1911,1887,1853
1867,1809,1840
1808,1821,1846
1827,1868,1861
1887,1913,1855
1858,1871,1817
1778,1744,1832
1805,1757,1823
1861,1819,1827
1848,1842,1865
1839,1840,1841
1861,1865,1838
1873,1895,1850
1840,1794,1843
1826,1794,1849
1855,1816,1842
1887,1867,1840
1857,1819,1827
1840,1838,1830
1841,1825,1812
1859,1830,1851
1872,1915,1876
1829,1780,1860
1823,1781,1844
1853,1803,1839
1854,1831,1841
1837,1825,1829
1862,1855,1808
1855,1859,1871
1845,1863,1881
1842,1859,1857
1855,1851,1852
1870,1855,1854
1843,1845,1859
1839,1808,1843
1867,1855,1840
1905,1842,1840
1897,1855,1854
1799,1794,1865
1810,1839,1856
1843,1826,1838
1855,1863,1847
1834,1776,1846
1840,1789,1839
1856,1787,1851
1872,1853,1844
1833,1777,1831
1836,1787,1837
1872,1807,1825
1866,1822,1862
1825,1853,1885
1842,1856,1872
1872,1835,1856
1861,1834,1850
1858,1837,1846
1871,1849,1849
1875,1876,1849
1873,1851,1833
1871,1799,1847
1854,1855,1857
1846,1818,1831
1847,1855,1840
1837,1836,1840
1856,1781,1847
1872,1834,1863
1882,1794,1817
1853,1751,1814
1809,1955,1859
1830,1845,1827
1844,1721,1846
1827,1744,1847
1809,1792,1875
1831,1792,1866
1845,1824,1837
1831,1807,1847
1854,1854,1872
1883,1838,1846
1877,1831,1831
1872,1881,1840
1853,1808,1840
1871,1829,1845
1855,1833,1840
1835,1812,1835
1840,1835,1845
1882,1880,1803
1885,1809,1830
1819,1904,1848
1808,1729,1870
1813,1725,1861
1818,1755,1843
1831,1779,1838
1849,1797,1863
1871,1819,1854
1856,1825,1836
1841,1837,1838
1856,1851,1854
1875,1871,1856
1886,1851,1835
1850,1805,1829
1840,1833,1851
1871,1886,1844
1848,1856,1805
1783,1760,1851
1808,1759,1858
1845,1823,1840
1828,1780,1858
1807,1795,1857
1859,1844,1862
1873,1881,1857
1858,1853,1847
1824,1782,1833
1842,1805,1843
1873,1841,1850
1872,1890,1840
1851,1859,1840
1863,1835,1856
1885,1840,1845
1875,1872,1838
1878,1831,1837
1863,1794,1823
1875,1798,1791
1826,1776,1845
1746,1787,1865
1805,1838,1872
1839,1831,1856
1839,1808,1840
1831,1823,1841
1857,1853,1859
1883,1862,1863
1870,1867,1872
1842,1856,1844
1863,1855,1841
1884,1862,1842
1879,1859,1849
1881,1873,1804
1855,1813,1844
1856,1904,1846
1892,1831,1791
1808,1727,1856
1808,1713,1887
1834,1744,1872
1834,1807,1855
1827,1821,1865
1840,1843,1853
1858,1843,1840
1845,1834,1834
1840,1840,1840
1867,1856,1855
1898,1858,1845
1867,1859,1846
1841,1867,1855
1875,1904,1842
1884,1840,1866
1856,1813,1865
1837,1814,1836
1856,1843,1843
1942,2016,1767
1904,1763,1802
1743,1652,1917
1782,1742,1898
1821,1808,1871
1834,1827,1845
1841,1847,1835
1850,1830,1840
1854,1862,1857
1850,1882,1834
1827,1803,1840
1841,1814,1853
1871,1840,1854
1859,1841,1852
1845,1845,1853
1872,1869,1866
1911,1840,1850
1843,1839,1840
1810,1819,1843
1842,1870,1843
1871,1871,1823
1863,1806,1842
1805,1773,1875
1840,1831,1854
1872,1825,1851
1856,1829,1856
1817,1781,1855
1840,1840,1840
1870,1821,1856
1869,1833,1875
1843,1825,1871
1882,1822,1818
1903,1792,1812
1831,1855,1867
1831,1840,1868
1851,1865,1858
1872,1865,1859
1853,1872,1804
1822,1829,1850
1821,1767,1840
1836,1823,1853
1842,1822,1873
1815,1771,1863
1845,1839,1859
1863,1805,1860
1866,1813,1851
1839,1833,1846
1850,1830,1840
1872,1827,1850
1872,1829,1849
1856,1839,1853
1872,1854,1856
1885,1859,1855
1878,1874,1854
1843,1861,1849
1857,1792,1843
1875,1810,1851
1878,1841,1863
1840,1836,1777
1838,1807,1793
1798,1749,1887
1815,1774,1888
1814,1843,1898
1826,1792,1866
1860,1844,1830
1854,1826,1835
1829,1798,1849
1856,1872,1840
1877,1827,1847
1865,1814,1844
1832,1854,1846
1850,1831,1851
1863,1830,1851
1858,1839,1847
1849,1844,1849
1853,1878,1854
1879,1911,1857
1862,1823,1833
1851,1717,1791
1829,1777,1817
1840,1874,1886
1833,1815,1864
1810,1817,1851
1837,1808,1859
1886,1840,1808
1872,1831,1854
1833,1827,1875
1829,1790,1869
1857,1825,1885
1868,1825,1852
1844,1855,1843
1840,1825,1845
1872,1845,1856
1883,1870,1853
1857,1885,1785
1815,1767,1823
1834,1743,1883
1851,1770,1869
1841,1840,1837
1858,1797,1831
1867,1802,1846
1827,1805,1856
1807,1808,1855
1838,1841,1871
1872,1853,1855
1872,1872,1850
1867,1853,1842
1873,1847,1855
1856,1840,1852
1835,1829,1849
1835,1834,1841
1875,1853,1843
1895,1848,1841
1838,1819,1855
1838,1889,1845
1851,1883,1808
1826,1755,1853
1819,1709,1863
1807,1757,1860
1845,1835,1861
1872,1895,1840
1863,1844,1831
1854,1733,1855
1838,1747,1857
1852,1814,1855
1843,1872,1847
1835,1856,1872
1842,1825,1855
1879,1842,1840
1852,1856,1844
1838,1818,1810
1825,1804,1873
1837,1818,1875
1851,1819,1851
1847,1811,1837
1888,1810,1806
1883,1897,1852
1838,1869,1874
1814,1849,1855
1828,1789,1863
1878,1840,1872
1872,1814,1857
1834,1757,1837
1836,1779,1842
1872,1805,1856
1872,1837,1856
1853,1818,1851
1874,1871,1840
1899,1821,1872
1873,1810,1850
1799,1739,1793
1777,1726,1861
1823,1787,1897
1819,1787,1856
1815,1808,1845
1829,1831,1851
1871,1844,1852
1851,1841,1847
1831,1836,1833
1850,1854,1850
1874,1862,1843
1869,1821,1850
1841,1813,1841
1866,1907,1842
1904,1856,1797
1871,1770,1840
1825,1814,1861
1835,1824,1867
1854,1826,1853
1836,1774,1854
1838,1786,1791
1821,1744,1837
1833,1792,1899
1841,1781,1847
1815,1834,1856
1861,1840,1865
1841,1817,1851
1824,1821,1840
1819,1825,1846
1840,1840,1850
1874,1904,1839
1855,1824,1842
1826,1773,1856
1851,1813,1871
1870,1838,1858
1862,1844,1846
1845,1885,1838
1850,1873,1836
1877,1801,1849
1851,1787,1856
1850,1747,1782
1835,1750,1787
1808,1776,1890
1802,1842,1872
1811,1803,1871
1859,1793,1846
1872,1837,1851
1858,1841,1857
1834,1845,1851
1856,1865,1860
1887,1873,1868
1875,1835,1839
1856,1831,1835
1863,1885,1845
1894,1862,1840
1839,1811,1834
1799,1787,1835
1833,1830,1826
1872,1852,1807
1838,1671,1824
1830,1723,1859
1856,1856,1857
1865,1831,1870
1849,1798,1865
1845,1793,1833
1857,1819,1815
1883,1917,1827
1851,1802,1833
1811,1835,1887
1833,1837,1893
1904,1869,1850
1840,1768,1835
1793,1744,1830
1819,1804,1835
1899,1859,1770
1869,1867,1840
1796,1755,1891
1825,1776,1872
1870,1819,1851
1869,1808,1840
1846,1808,1845
1854,1865,1840
1873,1869,1843
1871,1774,1833
1849,1817,1850
1873,1840,1846
1872,1858,1843
1841,1878,1802
1807,1776,1838
1814,1754,1882
1876,1807,1859
1910,1789,1773
1865,1811,1823
1792,1826,1899
1815,1824,1875
1836,1824,1847
1839,1872,1839
1840,1840,1841
1877,1838,1827
1874,1781,1843
1819,1811,1873
1838,1841,1858
1887,1863,1856
1886,1900,1843
1818,1838,1826
1808,1850,1826
1853,1813,1839
1853,1788,1840
1841,1814,1847
1871,1874,1846
1874,1783,1837
1822,1761,1883
1808,1808,1875
1842,1833,1867
1865,1887,1871
1879,1843,1849
1821,1815,1835
1815,1839,1844
1861,1857,1852
1866,1856,1856
1840,1915,1858
1853,1838,1850
1874,1823,1856
1847,1791,1840
1823,1833,1842
1863,1935,1844
1849,1827,1835
1833,1744,1806
1854,1826,1811
1830,1822,1903
1825,1837,1887
1840,1776,1840
1819,1770,1832
1851,1808,1842
1873,1841,1855
1857,1853,1856
1840,1842,1842
1866,1854,1845
1893,1853,1852
1871,1856,1843
1845,1968,1823
1852,1797,1809
1810,1761,1834
1788,1759,1860
1802,1808,1870
1861,1837,1818
1875,1904,1847
1813,1749,1869
1776,1733,1885
1823,1823,1872
1857,1812,1847
1854,1824,1840
1839,1842,1841
1853,1859,1849
1881,1877,1855
1866,1829,1845
1828,1825,1826
1870,1861,1835
1886,1916,1839
1811,1819,1853
1811,1851,1829
1860,1753,1809
1847,1815,1884
1834,1854,1878
1808,1837,1855
1826,1813,1835
1867,1825,1842
1859,1884,1845
1851,1909,1835
1831,1813,1846
1853,1818,1859
1846,1807,1855
1835,1803,1846
1848,1834,1843
1874,1850,1840
1872,1850,1839
1845,1860,1840
1856,1875,1851
1881,1841,1840
1909,1840,1805
1840,1925,1813
1802,1808,1873
1817,1777,1886
1852,1837,1850
1872,1819,1821
1861,1808,1801
1842,1809,1865
1821,1831,1868
1822,1842,1861
1854,1887,1876
1877,1856,1854
1885,1840,1841
1846,1822,1847
1845,1858,1840
1876,1851,1830
1872,1840,1835
1845,1818,1840
1867,1872,1872
1882,1872,1837
1883,1806,1808
1826,1834,1874
1822,1851,1888
1843,1863,1878
1847,1840,1841
1798,1730,1830
1821,1791,1854
1869,1833,1853
1849,1808,1849
1840,1811,1842
1845,1834,1839
1871,1854,1851
1857,1869,1849
1838,1872,1859
1840,1839,1845
1863,1839,1849
1856,1839,1843
1850,1839,1836
1877,1839,1785
1893,1866,1852
1815,1811,1839
1808,1817,1808
1824,1798,1875
1840,1843,1886
1887,1838,1867
1824,1853,1845
1786,1802,1837
1840,1762,1834
1859,1808,1851
1823,1840,1866
1814,1793,1855
1847,1808,1841
1847,1825,1841
1833,1838,1842
1853,1851,1845
1875,1857,1847
1850,1853,1847
1845,1837,1850
1861,1879,1845
1875,1904,1855
1886,1888,1796
1894,1835,1794
1769,1759,1872
1782,1786,1863
1802,1749,1863
1840,1802,1857
1832,1799,1851
1840,1833,1855
1845,1842,1842
1855,1834,1839
1830,1856,1840
1845,1863,1841
1852,1857,1840
1835,1849,1845
1856,1857,1851
1890,1871,1850
1878,1937,1840
1823,1829,1777
1795,1762,1859
1831,1831,1872
1863,1869,1858
1838,1849,1818
1808,1711,1838
1835,1783,1855
1875,1811,1842
1853,1765,1809
1808,1818,1856
1817,1833,1857
1829,1840,1850
1837,1840,1850
1854,1892,1842
1874,1847,1851
1870,1862,1840
1838,1805,1854
1833,1824,1856
1898,1935,1846
1840,1774,1814
1823,1754,1810
1840,1840,1878
1843,1806,1854
1815,1808,1847
1813,1904,1865
1845,1866,1861
1872,1811,1840
1870,1804,1837
1852,1866,1834
1838,1851,1840
1871,1845,1873
1879,1761,1845
1821,1787,1831
1824,1835,1840
1861,1856,1847
1864,1854,1843
1879,1866,1789
1879,1806,1815
1837,1805,1809
1808,1845,1895
1809,1831,1886
1840,1808,1858
1861,1904,1854
1856,1773,1840
1843,1728,1824
1831,1821,1851
1843,1860,1856
1870,1914,1840
1858,1843,1853
1838,1837,1858
1842,1845,1847
1847,1856,1840
1842,1839,1819
1817,1773,1830
1845,1773,1840
1847,1775,1810
1829,1822,1840
1853,1859,1855
1856,1856,1851
1833,1843,1838
1828,1861,1813
1867,1829,1813
1851,1851,1869
1847,1851,1869
1825,1881,1852
1882,1935,1777
1856,1743,1823
1807,1728,1882
1809,1795,1873
1856,1843,1863
1852,1825,1862
1828,1791,1861
1821,1817,1850
1842,1846,1846
1869,1853,1844
1884,1874,1837
1843,1904,1851
1814,1808,1839
1856,1790,1806
1847,1804,1853
1817,1822,1872
1840,1839,1875
1872,1849,1856
1867,1835,1838
1870,1850,1841
1861,1870,1864
1869,1902,1845
1840,1805,1838
1824,1797,1853
1841,1872,1861
1861,1855,1857
1899,1888,1844
1840,1828,1818
1791,1686,1844
1822,1755,1872
1840,1807,1870
1834,1830,1862
1855,1823,1845
1885,1859,1808
1850,1846,1861
1821,1840,1884
1851,1853,1868
1888,1858,1871
1862,1872,1855
1843,1882,1834
1836,1840,1838
1875,1831,1847
1844,1801,1825
1776,1759,1851
1801,1746,1840
1840,1830,1862
1856,1893,1857
1829,1826,1854
1856,1820,1852
1866,1837,1839
1840,1797,1853
1835,1798,1850
1847,1827,1854
1875,1852,1872
1872,1878,1822
1865,1808,1761
1829,1815,1872
1847,1840,1888
1840,1867,1872
1818,1877,1854
1833,1842,1840
1872,1803,1823
1856,1785,1829
1813,1841,1861
1825,1819,1840
1859,1870,1857
1887,1902,1847
1831,1776,1846
1798,1799,1856
1837,1862,1857
1854,1819,1845
1834,1822,1844
1845,1846,1858
1872,1904,1855
1857,1842,1850
1840,1821,1847
1875,1844,1802
1853,1808,1866
1831,1814,1886
1814,1854,1875
1840,1857,1867
1871,1812,1815
1851,1776,1799
1838,1849,1804
1840,1843,1861
1825,1759,1875
1826,1781,1861
1823,1803,1850
1855,1855,1851
1880,1895,1872
1840,1809,1851
1828,1799,1840
1846,1825,1853
1873,1849,1857
1879,1877,1835
1847,1855,1795
1834,1842,1872
1854,1882,1874
1843,1803,1857
1822,1774,1846
1853,1822,1831
1858,1798,1854
1861,1888,1863
1814,1866,1841
1831,1871,1821
1856,1778,1793
1834,1766,1842
1802,1761,1859
1811,1803,1872
1854,1831,1860
1849,1821,1845
1856,1806,1811
1826,1824,1828
1838,1861,1881
1839,1833,1857
1827,1829,1840
1840,1838,1839
1872,1856,1845
1863,1867,1854
1840,1840,1846
1836,1812,1818
1887,1862,1830
1852,1853,1863
1808,1857,1840
