1869,1841,1840
1899,1882,1846
1868,1855,1881
1851,1851,1844
1861,1845,1825
1872,1851,1813
1875,1870,1730
1808,1808,1845
1833,1616,1858
1845,1719,1872
1840,1841,1866
1840,1823,1836
1872,1876,1839
1853,1797,1867
1843,1794,1857
1840,1801,1850
1858,1856,1847
1881,1860,1849
1877,1850,1845
1856,1840,1849
1895,1877,1853
1878,1837,1855
1854,1830,1851
1827,1852,1843
1827,1776,1807
1862,1799,1831
1874,1840,1872
1869,1892,1842
1831,1794,1866
1849,1849,1858
1870,1856,1844
1862,1808,1840
1866,1822,1850
1863,1866,1840
1872,1840,1830
1861,1825,1840
1845,1816,1834
1886,1863,1820
1856,1819,1853
1812,1762,1870
1849,1830,1859
1879,1853,1861
1856,1773,1841
1856,1818,1840
1872,1840,1856
1888,1839,1799
1840,1729,1851
1794,1776,1879
1825,1831,1868
1869,1841,1853
1870,1840,1845
1848,1839,1841
1871,1837,1825
1889,1869,1841
1879,1936,1843
1847,1866,1862
1849,1872,1878
1859,1807,1851
1872,1806,1808
1841,1811,1829
1840,1814,1856
1871,1853,1840
1884,1739,1777
1813,1786,1872
1825,1793,1879
1874,1759,1869
1879,1817,1855
1845,1798,1831
1826,1823,1841
1853,1827,1833
1874,1859,1825
1854,1835,1844
1856,1855,1859
1872,1876,1857
1869,1846,1847
1857,1838,1841
1882,1875,1845
1895,1900,1840
1866,1838,1842
1860,1874,1844
1859,1895,1823
1871,1682,1859
1840,1715,1855
1829,1791,1836
1845,1829,1829
1894,1840,1803
1888,1872,1872
1842,1809,1875
1849,1829,1872
1879,1819,1853
1898,1843,1845
1885,1740,1787
1840,1838,1855
1824,1879,1898
1843,1871,1872
1840,1824,1840
1859,1833,1835
1897,1857,1854
1902,1851,1855
1840,1839,1847
1870,1893,1857
1883,1933,1859
1859,1798,1855
1847,1829,1840
1865,1866,1834
1875,1869,1787
1844,1712,1829
1794,1751,1897
1811,1758,1876
1858,1792,1866
1878,1841,1855
1847,1811,1855
1844,1835,1861
1865,1820,1826
1872,1808,1860
1847,1798,1857
1821,1848,1859
1867,1857,1842
1850,1875,1844
1840,1864,1844
1848,1859,1856
1872,1898,1855
1872,1863,1843
1843,1867,1846
1851,1851,1854
1890,1835,1743
1885,1817,1842
1806,1768,1894
1801,1793,1879
1837,1763,1849
1846,1776,1853
1829,1795,1858
1856,1837,1854
1898,1872,1796
1845,1792,1851
1806,1771,1865
1823,1807,1850
1861,1840,1861
1869,1855,1859
1847,1844,1843
1856,1866,1851
1877,1856,1855
1875,1871,1851
1863,1866,1857
1850,1853,1850
1868,1858,1853
1862,1839,1841
1824,1811,1835
1845,1762,1789
1872,1825,1850
1871,1813,1887
1797,1785,1872
1825,1808,1854
1860,1871,1838
1858,1794,1823
1840,1770,1833
1858,1808,1872
1834,1834,1894
1827,1887,1839
1849,1829,1815
1847,1806,1861
1847,1817,1859
1858,1855,1840
1851,1824,1837
1853,1872,1850
1871,1899,1837
1849,1789,1843
1814,1760,1854
1853,1852,1818
1888,1839,1808
1865,1825,1857
1827,1777,1869
1809,1761,1840
1837,1851,1861
1855,1863,1861
1839,1822,1829
1839,1789,1851
1869,1819,1855
1857,1838,1846
1845,1819,1838
1846,1839,1837
1897,1851,1850
1901,1975,1835
1847,1808,1809
1834,1770,1872
1841,1723,1865
1865,1757,1839
1838,1793,1835
1859,1831,1839
1890,1840,1807
1867,1836,1856
1829,1840,1873
1817,1905,1840
1825,1805,1846
1853,1758,1855
1837,1850,1871
1855,1895,1850
1840,1774,1843
1840,1790,1838
1834,1820,1841
1844,1827,1842
1873,1847,1850
1872,1861,1853
1846,1849,1845
1853,1849,1842
1855,1837,1840
1857,1826,1824
1845,1793,1846
1856,1840,1863
1866,1856,1837
1903,1778,1755
1825,1761,1857
1808,1813,1872
1808,1856,1881
1823,1838,1851
1819,1811,1837
1841,1853,1827
1879,1920,1808
1851,1786,1863
1817,1755,1856
1831,1785,1840
1874,1821,1839
1877,1840,1841
1846,1841,1853
1861,1889,1846
1887,1901,1830
1867,1830,1821
1828,1779,1840
1831,1759,1845
1877,1778,1803
1879,1828,1830
1808,1792,1867
1811,1815,1878
1857,1843,1843
1856,1808,1813
1852,1946,1809
1833,1809,1856
1843,1760,1861
1840,1790,1865
1824,1838,1834
1863,1840,1840
1857,1819,1872
1843,1831,1846
1822,1840,1838
1832,1824,1835
1865,1835,1840
1870,1847,1849
1861,1837,1849
1858,1875,1847
1873,1856,1853
1894,1886,1773
1839,1807,1802
1791,1669,1842
1835,1758,1872
1840,1799,1859
1851,1815,1841
1859,1872,1853
1851,1874,1861
1856,1805,1837
1830,1794,1814
1818,1783,1846
1856,1835,1857
1860,1858,1843
1830,1813,1850
1840,1841,1843
1872,1817,1822
1861,1819,1829
1819,1815,1852
1824,1798,1849
1858,1843,1838
1904,1870,1779
1821,1763,1838
1811,1776,1872
1861,1862,1864
1844,1807,1840
1843,1747,1812
1851,1825,1849
1869,1873,1861
1861,1861,1851
1851,1900,1829
1850,1883,1831
1856,1789,1874
1872,1778,1837
1843,1871,1822
1822,1855,1836
1847,1903,1842
1877,1861,1787
1805,1685,1861
1808,1739,1875
1863,1806,1857
1869,1839,1845
1857,1855,1845
1855,1845,1848
1878,1840,1859
1872,1817,1850
1856,1746,1798
1831,1776,1840
1840,1871,1893
1840,1882,1875
1834,1858,1842
1842,1856,1841
1883,1878,1856
1858,1877,1869
1868,1885,1843
1829,1822,1840
1839,1812,1829
1835,1823,1840
1821,1808,1815
1817,1819,1869
1846,1825,1863
1851,1766,1859
1840,1787,1856
1856,1837,1857
1872,1871,1853
1872,1856,1846
1837,1807,1815
1827,1763,1855
1840,1827,1870
1840,1871,1859
1845,1851,1855
1857,1909,1870
1849,1810,1845
1815,1805,1835
1819,1833,1809
1829,1851,1830
1851,1835,1862
1863,1861,1867
1851,1910,1826
1846,1751,1808
1861,1777,1860
1837,1840,1883
1812,1853,1868
1843,1927,1872
1891,1898,1840
1872,1797,1819
1780,1776,1833
1788,1744,1863
1842,1785,1846
1841,1803,1845
1805,1788,1837
1821,1854,1858
1873,1901,1857
1866,1821,1829
1810,1807,1830
1798,1824,1862
1843,1845,1863
1859,1849,1859
1852,1875,1850
1851,1905,1846
1875,1872,1855
1858,1779,1828
1858,1782,1840
1839,1818,1861
1852,1831,1861
1832,1835,1843
1833,1777,1822
1824,1776,1842
1831,1731,1862
1830,1786,1857
1830,1820,1852
1840,1846,1846
1871,1853,1808
1871,1829,1859
1825,1837,1872
1839,1867,1857
1872,1904,1845
1869,1825,1840
1840,1846,1842
1840,1814,1849
1894,1866,1853
1871,1920,1837
1811,1690,1819
1791,1733,1855
1833,1774,1869
1845,1797,1853
1839,1790,1795
1847,1814,1837
1856,1904,1861
1857,1879,1873
1861,1811,1873
1843,1818,1843
1863,1839,1844
1890,1935,1781
1856,1785,1840
1839,1838,1895
1830,1830,1872
1831,1781,1843
1841,1798,1847
1869,1839,1851
1845,1871,1841
1833,1777,1840
1823,1728,1835
1835,1808,1866
1855,1849,1870
1859,1851,1852
1855,1866,1852
1859,1889,1857
1863,1856,1858
1859,1830,1867
1840,1830,1863
1855,1839,1858
1872,1856,1831
1865,1856,1842
1870,1925,1810
1840,1862,1839
1805,1695,1879
1808,1717,1876
1833,1799,1856
1829,1820,1842
1871,1863,1850
1860,1903,1847
1811,1745,1831
1840,1687,1818
1879,1788,1853
1872,1879,1884
1840,1873,1875
1838,1870,1861
1871,1870,1865
1873,1859,1856
1855,1815,1845
1847,1838,1856
1857,1856,1856
1875,1919,1866
1839,1831,1840
1845,1773,1814
1858,1814,1862
1862,1825,1872
1829,1791,1874
1840,1841,1831
1881,1883,1815
1818,1838,1856
1799,1724,1856
1795,1689,1863
1842,1782,1858
1856,1799,1857
1840,1801,1850
1857,1826,1851
1877,1842,1856
1889,1849,1868
1863,1841,1861
1850,1853,1861
1872,1855,1855
1879,1841,1834
1870,1836,1842
1830,1803,1808
1840,1866,1865
1843,1873,1890
1833,1830,1861
1840,1835,1857
1846,1833,1849
1860,1807,1833
1840,1790,1835
1853,1887,1863
1852,1843,1863
1856,1787,1878
1841,1811,1872
1855,1867,1872
1877,1827,1850
1858,1843,1828
1840,1795,1830
1839,1781,1814
1840,1801,1866
1843,1802,1872
1833,1845,1861
1872,1839,1829
1894,1797,1806
1857,1819,1857
1837,1797,1851
1835,1830,1872
1856,1867,1869
1867,1899,1860
1839,1856,1849
1835,1845,1860
1863,1825,1853
1874,1815,1842
1845,1795,1821
1833,1873,1846
1856,1962,1858
1857,1787,1858
1830,1762,1853
1840,1809,1851
1884,1829,1871
1861,1823,1866
1833,1905,1818
1854,1839,1815
1860,1776,1822
1872,1815,1850
1824,1823,1862
1809,1749,1840
1858,1774,1845
1861,1840,1856
1904,1885,1810
1859,1817,1825
1822,1778,1857
1828,1901,1872
1839,1901,1857
1811,1777,1856
1849,1771,1855
1861,1815,1872
1841,1818,1850
1842,1865,1830
1872,1830,1850
1882,1840,1856
1856,1841,1842
1871,1871,1838
1904,1920,1840
1858,1823,1888
1829,1818,1861
1840,1853,1855
1904,1936,1803
1838,1739,1820
1778,1717,1863
1808,1781,1876
1872,1825,1856
1899,1872,1822
1840,1861,1854
1824,1875,1860
1839,1776,1856
1882,1776,1801
1837,1807,1842
1825,1862,1872
1846,1874,1869
1866,1870,1847
1857,1861,1826
1829,1849,1837
1849,1836,1839
1870,1790,1855
1860,1776,1829
1885,1867,1862
1878,1863,1855
1835,1808,1861
1823,1826,1838
1834,1816,1846
1856,1830,1859
1864,1820,1850
1854,1845,1833
1852,1913,1846
1902,1823,1822
1877,1743,1797
1822,1789,1845
1808,1808,1868
1839,1847,1851
1846,1779,1855
1835,1803,1853
1843,1872,1841
1871,1852,1851
1856,1838,1859
1856,1794,1823
1863,1851,1847
1872,1947,1870
1840,1803,1863
1833,1763,1839
1861,1789,1837
1889,1839,1850
1885,1900,1825
1831,1807,1836
1803,1777,1872
1840,1805,1867
1861,1833,1856
1851,1808,1839
1866,1865,1861
1872,1858,1856
1872,1841,1841
1853,1828,1842
1874,1791,1834
1866,1837,1851
1852,1845,1840
1851,1827,1821
1866,1863,1854
1882,1907,1862
1872,1883,1846
1858,1870,1841
1894,1806,1786
1871,1738,1840
1810,1834,1868
1795,1752,1802
1808,1765,1840
1835,1863,1872
1859,1850,1867
1830,1771,1851
1826,1781,1842
1859,1835,1853
1873,1872,1841
1860,1870,1857
1872,1813,1844
1866,1808,1829
1865,1809,1838
1840,1827,1840
1862,1851,1840
1875,1851,1838
1865,1819,1837
1852,1851,1842
1840,1826,1855
1851,1838,1845
1879,1886,1829
1842,1792,1847
1846,1766,1811
1864,1858,1840
1840,1904,1886
1854,1905,1847
1847,1773,1825
1856,1722,1854
1837,1753,1847
1811,1787,1839
1837,1824,1847
1878,1862,1845
1879,1839,1844
1852,1826,1844
1856,1841,1857
1874,1856,1857
1887,1846,1846
1853,1857,1840
1848,1939,1837
1876,1809,1829
1833,1739,1860
1823,1759,1821
1829,1788,1856
1829,1840,1870
1827,1781,1870
1814,1807,1851
1838,1850,1840
1871,1811,1833
1863,1821,1851
1843,1826,1845
1854,1862,1841
1883,1857,1846
1879,1850,1858
1852,1871,1823
1837,1807,1793
1836,1825,1859
1864,1826,1872
1847,1814,1851
1830,1854,1855
1854,1795,1826
1858,1772,1796
1835,1790,1851
1815,1822,1891
1858,1872,1875
1869,1872,1851
1859,1822,1835
1849,1819,1843
1837,1795,1863
1855,1821,1855
1851,1866,1847
1840,1830,1830
1865,1812,1843
1872,1834,1857
1867,1818,1850
1856,1834,1858
1854,1872,1854
1855,1856,1840
1862,1886,1830
1869,1812,1820
1889,1904,1771
1841,1726,1835
1776,1791,1907
1762,1831,1905
1807,1729,1866
1847,1745,1843
1831,1794,1840
1832,1821,1852
1866,1845,1866
1877,1857,1863
1840,1840,1840
1841,1866,1853
1869,1859,1862
1869,1845,1846
1838,1885,1855
1835,1822,1845
1858,1818,1835
1861,1858,1811
1840,1805,1830
1887,1819,1845
1900,1851,1793
1783,1838,1860
1777,1805,1855
1781,1700,1863
1835,1743,1841
1825,1810,1872
1818,1833,1863
1838,1850,1845
1869,1873,1840
1860,1846,1847
1827,1840,1835
1823,1839,1831
1861,1843,1837
1861,1838,1830
1845,1829,1831
1853,1865,1858
1867,1882,1834
1906,1867,1805
1847,1805,1758
1790,1741,1869
1813,1786,1886
1847,1819,1844
1841,1886,1829
1882,1838,1835
1856,1777,1827
1836,1808,1839
1799,1776,1840
1808,1809,1840
1841,1840,1838
1872,1820,1808
1835,1870,1854
1847,1847,1855
1863,1841,1854
1861,1819,1844
1843,1814,1840
1853,1831,1846
1894,1834,1794
1874,1843,1839
1824,1849,1872
1840,1931,1871
1873,1859,1857
1839,1838,1835
1823,1801,1827
1841,1855,1846
1889,1871,1834
1851,1777,1840
1783,1707,1836
1779,1715,1858
1840,1813,1863
1855,1843,1841
1822,1830,1830
1818,1839,1839
1862,1855,1843
1871,1860,1854
1853,1853,1863
1844,1847,1840
1877,1874,1803
1918,1913,1760
1801,1781,1870
1798,1857,1877
1838,1868,1808
1831,1706,1835
1808,1647,1845
1799,1728,1841
1822,1792,1852
1838,1811,1840
1839,1865,1824
1815,1831,1851
1843,1851,1856
1855,1857,1855
1840,1840,1841
1841,1845,1842
1865,1857,1856
1877,1861,1872
1867,1849,1851
1874,1855,1813
1829,1871,1856
1838,1870,1824
1817,1806,1845
1814,1779,1877
1869,1941,1858
1886,1790,1845
1791,1728,1843
1782,1718,1856
1846,1787,1869
1878,1822,1860
1840,1823,1840
1855,1837,1845
1872,1847,1855
1879,1878,1845
1852,1885,1841
1843,1815,1825
1865,1794,1824
1847,1845,1875
1838,1847,1859
1824,1844,1858
1833,1808,1861
1840,1793,1838
1831,1815,1853
1872,1921,1856
1881,1781,1793
1821,1748,1863
1793,1792,1857
1829,1856,1840
1867,1808,1856
1877,1873,1856
1856,1793,1841
1847,1778,1840
1856,1819,1843
1861,1831,1851
1831,1833,1843
1839,1839,1840
1870,1856,1856
1879,1874,1805
1865,1795,1810
1854,1885,1866
1872,1863,1885
1842,1777,1872
1829,1793,1844
1830,1792,1842
1899,1790,1844
1858,1792,1871
1808,1823,1854
1835,1853,1855
1869,1920,1841
1921,1872,1792
1822,1773,1833
1802,1737,1872
1854,1801,1872
1865,1817,1859
1837,1825,1839
1847,1883,1818
1885,1842,1822
1859,1802,1852
1843,1791,1845
1833,1855,1862
1856,1902,1860
1866,1849,1847
1834,1791,1846
1822,1766,1850
1872,1792,1845
1862,1807,1854
1846,1809,1849
1813,1853,1878
1840,1882,1866
1859,1887,1825
1852,1834,1794
1842,1786,1834
1851,1835,1885
1849,1811,1887
1846,1821,1851
1859,1809,1840
1869,1817,1850
1865,1811,1817
1856,1817,1814
1831,1827,1862
1853,1936,1890
1859,1834,1859
1838,1776,1843
1835,1773,1857
1863,1824,1872
1886,1878,1855
1852,1835,1856
1845,1854,1856
1879,1872,1865
1883,1808,1863
1842,1802,1850
1837,1847,1827
1867,1872,1840
1847,1823,1898
1840,1840,1873
1857,1874,1839
1855,1755,1855
1839,1771,1869
1835,1808,1854
1873,1813,1840
1889,1895,1847
1844,1858,1866
1825,1843,1866
1840,1812,1853
1872,1807,1826
1871,1769,1826
1846,1793,1878
1808,1840,1879
1838,1866,1814
1843,1772,1833
1810,1762,1865
1823,1798,1865
1866,1840,1865
1861,1859,1856
1854,1895,1858
1847,1835,1847
1867,1823,1842
1862,1839,1855
1840,1840,1870
1856,1893,1840
1883,1904,1822
1866,1813,1828
1841,1766,1838
1840,1845,1894
1840,1797,1863
1843,1764,1802
1823,1786,1825
1827,1841,1878
1859,1877,1872
1874,1887,1862
1843,1818,1855
1863,1807,1845
1865,1856,1850
1862,1871,1851
1852,1866,1854
1863,1878,1860
1909,1886,1801
1885,1904,1837
1807,1824,1897
1791,1783,1884
1819,1791,1850
1866,1872,1818
1890,1851,1839
1835,1745,1853
1831,1797,1855
1851,1873,1846
1841,1787,1857
1851,1789,1840
1887,1836,1807
1865,1795,1870
1833,1808,1877
1847,1840,1875
1881,1872,1855
1890,1873,1847
1862,1819,1858
1872,1812,1856
1885,1825,1845
1855,1857,1849
1840,1931,1847
1827,1837,1861
1879,1854,1823
1886,1790,1818
1824,1799,1868
1840,1887,1884
1889,1891,1872
1878,1833,1850
1838,1788,1847
1845,1795,1814
1878,1794,1819
1862,1778,1902
1857,1791,1863
1858,1825,1868
1883,1820,1866
1869,1825,1858
1870,1802,1844
1875,1810,1850
1890,1872,1857
1883,1845,1862
1875,1841,1863
1872,1839,1845
1901,1860,1847
1931,1826,1834
1878,1873,1863
1887,1895,1865
1888,1904,1869
1913,1808,1767
1840,1840,1872
1825,1791,1903
1878,1858,1878
1923,1847,1841
1874,1777,1859
1867,1811,1868
1870,1792,1866
1895,1801,1855
1891,1846,1847
1904,1837,1853
1911,1844,1854
1926,1872,1855
1899,1855,1856
1909,1850,1863
1936,1873,1850
1936,1852,1825
1907,1883,1829
1905,1938,1865
1906,1829,1855
1934,1776,1819
1892,1867,1870
1910,1789,1873
1923,1813,1864
1922,1872,1856
1923,1853,1846
1907,1819,1846
1922,1861,1843
1950,1869,1837
1920,1814,1839
1906,1865,1848
1931,1815,1808
1955,1790,1837
1934,1907,1883
1920,1885,1849
1936,1799,1818
1960,1820,1818
1936,1831,1849
1938,1840,1848
1989,1877,1851
1977,1871,1776
1935,1904,1854
1918,1837,1900
1954,1815,1875
1973,1803,1834
1967,1808,1826
1977,1840,1839
1995,1873,1846
1984,1869,1839
1980,1862,1836
1984,1941,1837
1986,1887,1824
1967,1854,1830
1929,1801,1842
1950,1819,1857
1989,1851,1856
1994,1840,1821
1990,1903,1835
1963,1867,1854
1987,1903,1872
2041,1904,1776
1990,1786,1809
1936,1830,1886
1994,1953,1862
2018,1858,1875
1957,1776,1843
1942,1791,1825
1978,1811,1837
2001,1851,1851
2001,1853,1839
2019,1890,1837
2029,1904,1843
2029,1889,1840
1999,1878,1849
2011,1887,1854
2067,1950,1851
2021,1889,1840
1996,1861,1830
1987,1869,1829
2013,1846,1872
2019,1843,1889
2015,1849,1865
2000,1904,1867
2011,1856,1856
2035,1819,1855
2029,1830,1855
2035,1904,1881
2062,1915,1866
2089,1824,1840
2012,1861,1882
2000,1904,1895
2054,1919,1888
2071,1920,1867
2041,1966,1869
2017,1842,1877
2046,1886,1863
2071,1829,1854
2071,1898,1884
2054,1890,1840
2060,1891,1893
2038,1936,1917
2019,1862,1894
2017,1862,1881
2093,1951,1872
2067,1851,1887
2047,1897,1921
2070,1917,1885
2078,1903,1900
2079,1938,1888
2041,1860,1888
2037,1846,1901
2074,1936,1904
2083,1914,1899
2064,1873,1858
2046,1902,1887
2086,1917,1906
2087,1937,1930
2074,1931,1919
2071,1930,1913
2096,1962,1909
2111,1962,1853
2084,1925,1935
2082,1936,1955
2085,1915,1934
2097,1919,1920
2087,1899,1893
2038,1828,1904
2058,1904,1925
2064,1925,1920
2074,1968,1919
2064,1936,1925
2095,1949,1923
2091,1893,1922
2070,1911,1937
2077,1961,1929
2098,1917,1921
2112,1914,1921
2090,1910,1935
2098,1925,1914
2087,1967,1929
2089,1968,1919
2086,1899,1889
2095,2064,1936
2096,1970,1943
2094,1837,1902
2064,1942,1951
2060,1853,1931
2042,1879,1941
2061,1910,1945
2066,1936,1926
2096,1954,1934
2107,1970,1931
2096,1949,1938
2059,1872,1929
2064,1903,1929
2099,1953,1947
2111,1967,1920
2103,1948,1859
2082,1936,1931
2084,1921,1959
2096,1872,1937
2061,1911,1921
2067,1938,1929
2117,1999,1922
2095,1956,1937
2064,1925,1935
2084,1874,1921
2106,1943,1911
2107,1914,1915
2043,1874,1912
2035,1897,1935
2089,1949,1934
2094,1968,1921
2090,2021,1927
2070,1925,1919
2094,1968,1888
2122,1861,1846
2063,1872,1909
2017,1938,1974
2046,1963,1946
2086,1957,1927
2069,1936,1902
2059,1900,1916
2047,1904,1914
2064,1917,1904
2058,1995,1909
2053,1914,1914
2089,1923,1909
2086,1895,1907
2085,1879,1906
2045,1939,1927
2064,1956,1924
2074,1958,1914
2064,1955,1904
2094,1952,1909
2082,1965,1921
2079,1967,1906
2076,1968,1868
2063,1999,1936
2060,1987,1904
2044,1891,1885
2011,1889,1925
1996,1870,1910
2039,1937,1903
2074,1925,1879
2054,1921,1899
2025,1888,1913
2042,1901,1923
2064,1923,1902
2054,1945,1903
2043,1968,1895
2112,2031,1861
2073,1889,1869
2000,1884,1904
2009,1914,1904
2058,1946,1899
2081,1958,1889
2062,1959,1840
2023,1922,1889
2012,1947,1919
2027,1922,1879
2031,1925,1883
2026,1964,1895
2032,1984,1872
2007,1898,1875
2000,1903,1897
2006,1885,1921
2046,1897,1891
2053,1971,1875
2005,1944,1870
2000,1936,1872
2023,1895,1891
2031,1901,1858
2021,1942,1839
1969,1953,1885
2003,1939,1890
2023,1925,1858
2000,1913,1871
1995,1966,1898
2010,1960,1902
2022,1971,1882
2016,2000,1875
2019,1906,1860
1987,1900,1856
1968,1904,1866
1971,1868,1872
1967,1886,1864
1970,1872,1872
1994,1904,1886
1981,1919,1871
1986,1939,1863
2000,1945,1868
2010,1936,1885
1997,1948,1852
1979,1968,1853
2011,1968,1867
1984,1983,1851
1968,1936,1805
1970,1907,1872
1971,2005,1919
1979,1974,1872
1953,1890,1867
1952,1866,1847
1984,1866,1824
1977,1899,1840
1936,1915,1871
1925,1887,1875
1952,1888,1857
1974,1920,1849
1937,1945,1841
1923,1906,1837
1956,1878,1846
1967,1926,1859
1961,1886,1846
1931,1923,1846
1953,1957,1870
1939,1920,1805
1913,1887,1847
1919,1902,1867
1961,1929,1855
1959,1927,1842
1933,1943,1840
1949,1948,1813
1982,1936,1840
1904,1843,1862
1875,1955,1867
1904,1920,1871
1915,1813,1840
1920,1787,1829
1904,1830,1823
1911,1888,1840
1936,1917,1843
1953,1918,1818
1919,1875,1827
1907,1891,1851
1936,1918,1859
1942,1951,1838
1921,1896,1826
1940,1887,1805
1935,1904,1857
1939,1904,1882
1920,1965,1887
1897,1901,1825
1875,1883,1834
1902,1906,1827
1887,1935,1850
1867,1856,1866
1900,1904,1855
1910,1840,1842
1894,1872,1839
1902,1911,1845
1907,1883,1853
1931,1856,1827
1875,1825,1822
1866,1857,1829
1901,1920,1825
1921,1872,1793
1892,1867,1840
1883,1899,1860
1913,1936,1855
1920,1939,1835
1937,1869,1773
1845,1782,1821
1849,1876,1887
1873,1962,1877
1857,1876,1837
1878,1880,1815
1911,1865,1814
1895,1844,1850
1863,1878,1871
1891,1873,1846
1914,1936,1846
1895,1889,1842
1838,1792,1831
1853,1808,1840
1911,1854,1807
1908,1899,1845
1881,1886,1873
1870,1878,1869
1877,1905,1847
1904,1905,1833
1887,1895,1836
1872,1868,1838
1893,1904,1847
1902,1935,1840
1865,1882,1840
1885,1904,1802
1914,1899,1826
1854,1786,1872
1840,1789,1853
1847,1813,1829
1903,1833,1793
1888,1895,1794
1849,1868,1853
1822,1890,1894
1872,1950,1872
1890,1871,1851
1857,1792,1847
1851,1839,1836
1866,1858,1837
1877,1872,1838
1857,1847,1825
1870,1847,1837
1898,1870,1836
1884,1905,1831
1858,1859,1831
1861,1877,1837
1887,1845,1815
1930,1937,1855
1847,1866,1830
1819,1830,1847
1840,1875,1806
1870,1767,1805
1823,1807,1839
1825,1807,1857
1854,1851,1867
1881,1915,1829
1861,1891,1808
1840,1808,1833
1852,1824,1845
1875,1859,1843
1859,1854,1824
1871,1891,1826
1872,1903,1837
1870,1877,1838
1842,1825,1824
1856,1843,1798
1872,1903,1799
1856,1833,1802
1798,1791,1871
1825,1808,1858
1862,1840,1840
1843,1877,1836
1833,1863,1822
1838,1830,1844
1856,1859,1868
1861,1872,1856
1856,1886,1819
1851,1893,1833
1866,1890,1839
1868,1872,1827
1853,1872,1831
1804,1771,1849
1808,1769,1825
1843,1840,1824
1857,1865,1815
1797,1797,1818
1808,1812,1828
1837,1851,1833
1823,1847,1823
1845,1808,1755
1840,1829,1814
1845,1902,1873
1829,1894,1867
1815,1835,1851
1823,1833,1829
1829,1852,1824
1817,1843,1834
1821,1827,1817
1857,1882,1787
1844,1930,1826
1813,1875,1856
1810,1808,1862
1821,1805,1845
1837,1891,1817
1807,1808,1827
1840,1847,1834
1843,1838,1818
1821,1839,1828
1793,1851,1831
1803,1853,1777
1837,1884,1813
1849,1941,1834
1809,1759,1840
1783,1760,1840
1829,1840,1856
1825,1845,1834
1822,1840,1807
1803,1873,1810
1803,1843,1833
1820,1843,1831
1808,1847,1815
1819,1840,1807
1831,1903,1833
1830,1911,1839
1808,1840,1835
1806,1840,1825
1837,1855,1824
1837,1866,1821
1825,1883,1834
1824,1895,1826
1813,1883,1823
1853,1847,1751
1799,1827,1845
1765,1782,1842
1783,1760,1829
1792,1801,1852
1773,1818,1829
1782,1823,1815
1822,1879,1818
1851,1858,1823
1778,1808,1826
1775,1814,1813
1816,1887,1819
1830,1835,1824
1808,1835,1825
1778,1904,1817
1818,1763,1809
1798,1792,1825
1776,1830,1830
1773,1858,1814
1791,1840,1815
1795,1856,1819
1791,1814,1776
1791,1936,1820
1804,1872,1830
1806,1839,1808
1775,1711,1845
1742,1689,1840
1776,1776,1824
1801,1813,1812
1794,1828,1818
1793,1862,1818
1818,1850,1823
1808,1882,1839
1769,1831,1823
1779,1828,1813
1808,1837,1828
1826,1826,1814
1785,1842,1805
1776,1853,1799
1836,1855,1770
1801,1801,1829
1762,1780,1797
1774,1841,1799
1792,1811,1824
1763,1757,1843
1768,1808,1821
1773,1812,1794
1783,1751,1835
1803,1802,1830
1808,1776,1824
1776,1824,1843
1805,1835,1808
1813,1803,1807
1792,1803,1808
1802,1839,1813
1823,1840,1809
1815,1828,1811
1773,1812,1811
1789,1835,1826
1847,1904,1809
1798,1790,1802
1755,1739,1813
1778,1789,1789
1819,1791,1777
1808,1876,1838
1775,1850,1839
1787,1808,1787
1834,1798,1798
1811,1776,1829
1766,1822,1824
1766,1759,1819
1808,1793,1825
1825,1818,1814
1815,1856,1801
1815,1823,1818
1815,1855,1838
1811,1842,1830
1782,1771,1810
1808,1776,1809
1828,1829,1825
1793,1840,1807
1752,1773,1808
1778,1745,1781
1809,1811,1807
1808,1808,1837
1802,1811,1833
1811,1825,1809
1821,1889,1820
1815,1824,1831
1787,1785,1823
1795,1819,1829
1837,1794,1817
1834,1789,1821
1793,1826,1804
1775,1830,1795
1832,1808,1787
1838,1798,1810
1810,1803,1834
1779,1808,1840
1799,1785,1817
1787,1839,1833
1776,1813,1840
1797,1773,1759
1803,1776,1822
1819,1814,1839
1804,1781,1810
1795,1811,1804
1805,1871,1819
1840,1843,1805
1788,1760,1835
1771,1847,1840
1809,1841,1813
1815,1776,1822
1779,1719,1819
1793,1747,1809
1813,1813,1811
1823,1872,1815
1806,1775,1808
1821,1835,1803
1824,1799,1750
1773,1774,1825
1754,1794,1850
1787,1825,1854
1829,1830,1829
1840,1862,1808
1808,1798,1798
1797,1808,1824
1823,1895,1840
1824,1838,1780
1776,1744,1801
1776,1745,1807
1811,1792,1823
1809,1892,1851
1783,1781,1815
1778,1757,1801
1810,1769,1808
1827,1781,1820
1813,1813,1822
1808,1852,1823
1843,1871,1766
1827,1924,1797
1798,1746,1840
1779,1681,1808
1758,1777,1830
1786,1818,1831
1782,1849,1818
1786,1845,1811
1827,1785,1815
1819,1821,1815
1795,1817,1811
1794,1813,1834
1814,1872,1824
1826,1834,1808
1808,1744,1775
1781,1801,1808
1821,1838,1793
1821,1862,1840
1799,1841,1837
1841,1801,1780
1796,1809,1826
1776,1791,1840
1787,1773,1813
1759,1713,1774
1781,1771,1823
1806,1840,1821
1805,1793,1827
1824,1819,1812
1814,1831,1818
1809,1813,1824
1796,1829,1829
1799,1811,1822
1827,1858,1819
1845,1853,1824
1837,1826,1841
1812,1776,1818
1800,1829,1808
1791,1829,1806
1803,1817,1807
1794,1808,1794
1808,1775,1801
1808,1857,1853
1790,1811,1831
1831,1803,1761
1808,1787,1807
1764,1845,1853
1745,1783,1842
1776,1794,1831
1823,1819,1815
1841,1905,1828
1827,1904,1793
1796,1758,1808
1808,1773,1827
1823,1799,1827
1795,1824,1809
1819,1760,1773
1781,1731,1822
1749,1798,1856
1747,1779,1829
1799,1777,1820
1833,1805,1815
1817,1876,1830
1776,1839,1829
1788,1840,1830
1817,1820,1826
1823,1815,1819
1805,1823,1819
1810,1882,1839
1835,1858,1838
1808,1845,1814
1780,1840,1765
1784,1803,1797
1818,1854,1820
1825,1808,1841
1787,1732,1769
1778,1715,1822
