1826,1825,1860
1840,1814,1845
1847,1845,1850
1840,1887,1847
1840,1871,1785
1824,1829,1814
1813,1768,1866
1830,1775,1871
1823,1810,1849
1825,1875,1825
1842,1775,1827
1847,1822,1869
1817,1815,1844
1806,1855,1822
1833,1853,1835
1871,1861,1806
1808,1763,1848
1776,1733,1863
1824,1792,1858
1862,1829,1847
1833,1808,1840
1808,1821,1849
1841,1840,1870
1866,1847,1838
1841,1848,1825
1831,1863,1823
1867,1854,1783
1869,1797,1855
1817,1803,1860
1818,1870,1848
1845,1847,1835
1872,1789,1825
1859,1759,1824
1809,1797,1825
1794,1843,1853
1838,1853,1851
1859,1942,1834
1804,1841,1856
1791,1817,1856
1829,1791,1863
1824,1776,1840
1827,1808,1840
1872,1878,1821
1855,1789,1799
1819,1779,1817
1809,1777,1838
1821,1794,1894
1840,1811,1879
1837,1829,1870
1839,1835,1856
1854,1855,1847
1867,1884,1856
1847,1863,1842
1838,1819,1835
1839,1812,1839
1856,1872,1858
1866,1811,1831
1839,1804,1851
1814,1786,1826
1837,1793,1808
1829,1871,1854
1825,1935,1876
1808,1818,1867
1825,1745,1847
1844,1791,1796
1793,1808,1862
1821,1847,1863
1849,1861,1843
1838,1802,1840
1829,1812,1845
1867,1852,1856
1874,1833,1840
1857,1885,1826
1840,1817,1840
1851,1823,1817
1865,1833,1825
1842,1831,1856
1840,1756,1840
1859,1811,1851
1865,1808,1838
1821,1808,1835
1776,1817,1857
1806,1859,1856
1877,1904,1869
1831,1803,1863
1806,1807,1835
1837,1811,1824
1870,1830,1841
1859,1836,1847
1839,1882,1840
1863,1846,1787
1865,1806,1866
1845,1822,1866
1821,1857,1850
1853,1851,1840
1876,1842,1850
1859,1795,1853
1831,1811,1818
1838,1788,1840
1862,1813,1854
1895,1903,1842
1843,1780,1830
1835,1751,1840
1867,1840,1837
1847,1795,1823
1840,1833,1867
1872,1852,1883
1841,1799,1865
1826,1792,1837
1829,1810,1819
1843,1856,1874
1875,1867,1875
1845,1845,1862
1839,1817,1852
1880,1840,1856
1862,1846,1855
1845,1872,1857
1837,1870,1840
1857,1770,1830
1874,1840,1837
1847,1932,1899
1819,1794,1867
1840,1758,1840
1895,1823,1840
1888,1790,1823
1806,1829,1852
1819,1838,1845
1865,1808,1856
1850,1796,1808
1842,1811,1829
1830,1904,1885
1851,1851,1877
1850,1791,1823
1842,1815,1850
1835,1835,1872
1840,1848,1890
1844,1851,1860
1838,1842,1837
1851,1797,1819
1874,1855,1850
1862,1870,1853
1858,2002,1846
1847,1853,1810
1842,1709,1851
1842,1747,1853
1838,1808,1856
1891,1846,1839
1876,1817,1855
1870,1769,1777
1808,1814,1838
1818,1894,1872
1855,1855,1873
1863,1858,1859
1839,1776,1842
1835,1796,1846
1867,1835,1857
1845,1854,1853
1831,1867,1827
1853,1822,1825
1847,1844,1887
1838,1852,1872
1847,1890,1854
1878,1911,1853
1872,1873,1840
1837,1820,1829
1831,1769,1786
1840,1765,1874
1865,1812,1904
1862,1854,1872
1888,1874,1823
1840,1804,1840
1840,1831,1884
1843,1825,1855
1839,1861,1835
1847,1827,1856
1862,1839,1856
1856,1833,1843
1844,1797,1831
1868,1827,1856
1877,1859,1879
1845,1856,1865
1846,1847,1850
1863,1856,1843
1860,1932,1848
1824,1840,1847
1822,1776,1831
1861,1776,1831
1865,1806,1847
1856,1876,1835
1825,1822,1872
1825,1772,1876
1902,1791,1853
1856,1857,1853
1794,1886,1872
1810,1791,1861
1851,1802,1856
1863,1819,1846
1850,1841,1841
1856,1842,1859
1865,1867,1846
1860,1863,1815
1843,1826,1855
1872,1854,1872
1886,1865,1868
1872,1849,1849
1858,1901,1843
1869,1843,1808
1891,1795,1852
1852,1755,1850
1792,1775,1858
1823,1839,1875
1887,1895,1863
1859,1850,1843
1797,1793,1850
1826,1815,1856
1872,1843,1846
1870,1854,1849
1843,1881,1841
1870,1869,1839
1875,1808,1812
1855,1802,1825
1829,1806,1856
1858,1904,1871
1870,1920,1874
1842,1804,1865
1827,1763,1823
1887,1756,1785
1866,1795,1872
1840,1803,1872
1844,1822,1845
1855,1834,1854
1902,1783,1847
1815,1780,1840
1795,1813,1842
1833,1857,1856
1865,1858,1855
1855,1853,1843
1845,1857,1840
1861,1872,1851
1889,1895,1840
1865,1843,1851
1826,1828,1829
1843,1822,1836
1865,1835,1859
1842,1856,1871
1830,1878,1856
1855,1907,1833
1878,1771,1791
1841,1730,1856
1838,1826,1894
1850,1819,1877
1899,1854,1879
1861,1835,1840
1793,1799,1842
1840,1799,1850
1868,1808,1861
1875,1825,1840
1813,1819,1837
1818,1849,1853
1856,1856,1845
1846,1851,1840
1839,1859,1845
1861,1871,1845
1888,1851,1821
1861,1835,1860
1841,1867,1870
1857,1849,1857
1886,1875,1854
1887,1870,1787
1865,1813,1843
1840,1916,1883
1843,1859,1885
1821,1775,1845
1829,1737,1852
1872,1738,1829
1851,1767,1854
1810,1808,1855
1813,1831,1854
1856,1847,1857
1876,1859,1859
1872,1872,1841
1873,1892,1825
1840,1843,1862
1845,1835,1847
1841,1836,1831
1854,1878,1840
1898,1924,1792
1863,1763,1775
1808,1765,1875
1783,1776,1895
1837,1810,1862
1876,1857,1846
1872,1830,1838
1854,1840,1837
1872,1873,1853
1889,1873,1830
1883,1847,1845
1857,1829,1827
1862,1814,1831
1872,1792,1847
1840,1796,1852
1834,1814,1851
1854,1842,1840
1866,1845,1840
1871,1903,1821
1841,1791,1798
1811,1774,1856
1839,1821,1866
1857,1792,1791
1861,1853,1838
1853,1895,1867
1839,1802,1871
1843,1792,1839
1842,1817,1841
1860,1841,1853
1872,1862,1850
1861,1854,1853
1840,1857,1850
1860,1867,1840
1879,1879,1843
1877,1892,1840
1850,1917,1840
1856,1754,1862
1871,1757,1856
1819,1722,1838
1787,1767,1822
1840,1819,1797
1867,1838,1835
1844,1847,1867
1826,1847,1869
1845,1840,1856
1856,1838,1843
1857,1872,1842
1856,1826,1845
1871,1872,1854
1883,1890,1830
1856,1781,1818
1838,1764,1855
1869,1843,1872
1871,1853,1837
1866,1823,1825
1834,1871,1867
1826,1770,1877
1888,1829,1872
1852,1776,1840
1812,1734,1777
1847,1761,1859
1873,1813,1902
1829,1842,1861
1830,1866,1847
1862,1839,1853
1872,1855,1849
1856,1872,1849
1845,1843,1850
1866,1877,1858
1881,1863,1849
1887,1831,1840
1854,1831,1835
1841,1855,1837
1859,1843,1832
1846,1763,1823
1840,1856,1856
1839,1818,1858
1860,1791,1850
1857,1776,1849
1844,1821,1841
1856,1854,1836
1883,1833,1811
1861,1848,1856
1841,1878,1872
1866,1806,1859
1877,1765,1808
1872,1833,1862
1856,1821,1879
1831,1855,1850
1836,1828,1846
1826,1789,1836
1831,1788,1840
1847,1840,1845
1882,1930,1840
1863,1791,1813
1819,1789,1856
1840,1887,1862
1872,1830,1857
1867,1817,1846
1838,1812,1840
1857,1859,1845
1875,1850,1797
1862,1840,1847
1834,1840,1873
1854,1823,1863
1877,1814,1858
1872,1827,1851
1862,1830,1853
1844,1901,1840
1847,1857,1849
1809,1755,1847
1815,1786,1841
1860,1830,1838
1904,1836,1853
1867,1817,1851
1825,1825,1872
1847,1859,1846
1876,1846,1834
1873,1856,1831
1853,1778,1791
1855,1831,1845
1858,1817,1881
1876,1847,1819
1837,1819,1861
1833,1815,1885
1878,1872,1875
1857,1830,1854
1837,1801,1839
1885,1867,1818
1843,1787,1859
1830,1799,1867
1815,1789,1846
1834,1811,1845
1861,1841,1849
1851,1852,1851
1841,1853,1851
1861,1860,1853
1885,1866,1851
1874,1871,1854
1878,1936,1856
1859,1863,1840
1872,1801,1829
1846,1780,1823
1827,1754,1801
1808,1761,1869
1831,1818,1872
1844,1825,1849
1824,1830,1842
1872,1841,1806
1861,1798,1841
1817,1824,1887
1821,1844,1868
1855,1855,1850
1878,1837,1853
1866,1823,1856
1844,1834,1858
1856,1855,1845
1890,1853,1841
1856,1872,1845
1837,1843,1844
1840,1841,1857
1884,1951,1859
1859,1829,1828
1812,1680,1794
1830,1782,1859
1840,1841,1875
1837,1812,1847
1830,1759,1855
1823,1782,1861
1837,1827,1851
1831,1834,1840
1834,1845,1842
1855,1862,1850
1881,1868,1858
1873,1863,1851
1850,1856,1849
1870,1867,1850
1878,1881,1856
1857,1856,1851
1848,1847,1862
1879,1919,1852
1903,1866,1840
1842,1829,1766
1807,1754,1856
1851,1839,1882
1840,1855,1895
1830,1756,1846
1812,1778,1834
1842,1758,1841
1891,1812,1835
1835,1840,1855
1807,1871,1873
1814,1814,1840
1845,1821,1840
1871,1837,1842
1840,1840,1839
1839,1857,1840
1863,1869,1849
1860,1861,1852
1851,1867,1851
1879,1886,1850
1847,1835,1842
1843,1839,1843
1829,1830,1842
1870,1874,1804
1894,1879,1858
1841,1840,1861
1819,1726,1857
1826,1799,1840
1840,1816,1866
1835,1860,1856
1827,1806,1843
1873,1840,1819
1872,1851,1853
1814,1790,1868
1811,1802,1864
1851,1840,1859
1872,1857,1856
1861,1859,1852
1831,1859,1857
1868,1843,1849
1876,1862,1851
1854,1895,1840
1840,1850,1827
1827,1817,1837
1863,1840,1801
1842,1819,1873
1815,1778,1872
1854,1808,1851
1872,1867,1834
1842,1808,1858
1840,1807,1862
1877,1807,1843
1879,1881,1841
1854,1910,1831
1844,1808,1840
1818,1843,1849
1840,1823,1857
1823,1799,1872
1825,1797,1802
1825,1806,1847
1843,1845,1863
1838,1825,1853
1862,1864,1819
1840,1808,1811
1828,1805,1872
1835,1821,1877
1838,1872,1856
1851,1856,1841
1872,1808,1851
1856,1829,1843
1869,1871,1852
1872,1811,1809
1853,1813,1822
1814,1861,1879
1821,1897,1866
1840,1851,1830
1856,1866,1818
1829,1807,1845
1803,1787,1849
1809,1743,1857
1845,1797,1863
1842,1823,1859
1827,1825,1838
1872,1849,1842
1905,1873,1840
1847,1831,1808
1817,1831,1835
1840,1883,1885
1861,1924,1869
1862,1808,1839
1840,1791,1805
1827,1798,1856
1840,1808,1862
1853,1842,1855
1826,1853,1859
1859,1864,1857
1857,1857,1849
1824,1903,1853
1808,1787,1861
1837,1811,1851
1862,1843,1843
1854,1856,1850
1842,1873,1840
1845,1851,1859
1868,1869,1850
1866,1836,1802
1822,1787,1851
1843,1835,1879
1878,1905,1853
1839,1870,1870
1803,1743,1838
1808,1744,1827
1839,1815,1859
1839,1845,1872
1843,1803,1792
1830,1830,1845
1842,1858,1873
1839,1851,1862
1831,1846,1857
1861,1870,1851
1902,1858,1846
1857,1879,1841
1808,1840,1851
1838,1820,1845
1863,1829,1847
1871,1860,1787
1833,1895,1839
1827,1807,1866
1865,1823,1859
1862,1805,1849
1835,1866,1823
1842,1745,1840
1825,1826,1853
1817,1773,1840
1824,1787,1840
1846,1832,1842
1863,1856,1851
1840,1847,1840
1811,1850,1837
1853,1856,1823
1859,1839,1839
1855,1853,1855
1842,1848,1851
1843,1823,1843
1873,1875,1797
1836,1825,1824
1791,1781,1879
1807,1863,1887
1840,1840,1858
1841,1834,1823
1831,1817,1829
1841,1826,1861
1859,1872,1866
1860,1806,1856
1836,1817,1854
1866,1872,1859
1879,1841,1861
1831,1776,1851
1798,1789,1838
1842,1853,1844
1875,1865,1852
1872,1840,1802
1833,1776,1811
1817,1809,1874
1849,1837,1877
1840,1854,1856
1815,1837,1850
1839,1853,1852
1872,1855,1861
1862,1872,1834
1823,1856,1829
1840,1840,1867
1872,1876,1870
1842,1810,1810
1825,1824,1844
1859,1821,1878
1878,1820,1871
1870,1814,1858
1830,1857,1842
1826,1838,1846
1845,1826,1862
1831,1826,1819
1815,1792,1838
1834,1787,1872
1855,1805,1862
1861,1826,1840
1837,1839,1862
1840,1859,1871
1870,1872,1872
1858,1862,1856
1840,1884,1853
1826,1840,1840
1840,1827,1831
1840,1942,1842
1821,1792,1855
1846,1744,1857
1879,1838,1854
1834,1783,1856
1818,1808,1856
1843,1863,1838
1833,1827,1808
1809,1776,1845
1809,1805,1872
1839,1849,1871
1862,1877,1863
1856,1899,1840
1845,1831,1831
1855,1767,1840
1857,1814,1883
1840,1837,1856
1844,1855,1839
1845,1843,1866
1855,1817,1856
1843,1891,1851
1806,1882,1855
1825,1867,1855
1840,1763,1860
1833,1731,1847
1831,1793,1839
1827,1815,1840
1866,1835,1849
1886,1840,1797
1823,1841,1838
1813,1872,1882
1854,1837,1885
1838,1805,1831
1802,1802,1844
1822,1824,1840
1854,1819,1865
1861,1831,1850
1846,1804,1822
1843,1822,1839
1857,1886,1888
1847,1856,1875
1822,1873,1855
1838,1849,1847
1877,1902,1856
1866,1845,1847
1807,1774,1842
1840,1791,1844
1863,1852,1843
1831,1920,1841
1808,1811,1827
1850,1782,1805
1870,1833,1877
1856,1823,1875
1813,1839,1851
1809,1863,1842
1856,1886,1825
1827,1814,1847
1810,1795,1855
1840,1827,1849
1863,1818,1838
1849,1855,1841
1834,1805,1837
1839,1870,1858
1844,1867,1874
1845,1858,1861
1831,1857,1852
1840,1934,1851
1867,1851,1859
1841,1779,1842
1826,1808,1845
1859,1847,1855
1897,1877,1777
1849,1808,1803
1802,1795,1891
1830,1873,1907
1878,1886,1877
1847,1808,1798
1783,1745,1836
1805,1814,1863
1858,1815,1857
1840,1808,1856
1815,1810,1860
1834,1849,1851
1866,1891,1849
1858,1847,1850
1856,1827,1826
1837,1862,1851
1849,1906,1855
1834,1862,1849
1830,1904,1856
1840,1831,1834
1827,1749,1852
1827,1776,1862
1813,1840,1865
1855,1936,1867
1841,1800,1855
1846,1788,1853
1822,1807,1846
1837,1813,1831
1867,1840,1833
1878,1865,1858
1829,1853,1856
1839,1872,1855
1865,1904,1867
1885,1873,1845
1842,1829,1790
1831,1808,1840
1813,1783,1868
1811,1787,1859
1825,1847,1849
1856,1910,1793
1836,1749,1860
1814,1759,1881
1808,1801,1864
1828,1811,1854
1863,1891,1845
1843,1787,1847
1808,1775,1859
1827,1808,1855
1869,1848,1852
1849,1854,1853
1839,1836,1840
1886,1840,1856
1914,1849,1851
1806,1867,1846
1771,1867,1850
1820,1881,1850
1867,1889,1860
1868,1939,1869
1840,1821,1823
1846,1728,1840
1840,1773,1857
1839,1808,1823
1845,1808,1814
1867,1936,1857
1851,1840,1882
1829,1791,1858
1814,1774,1847
1853,1803,1844
1872,1808,1818
1840,1801,1840
1811,1776,1857
1827,1817,1843
1870,1871,1860
1842,1850,1875
1806,1826,1853
1818,1834,1840
1855,1856,1851
1818,1814,1847
1806,1840,1849
1845,1886,1858
1860,1856,1783
1837,1813,1831
1808,1790,1871
1823,1778,1857
1855,1802,1849
1824,1839,1850
1815,1908,1853
1856,1818,1845
1860,1812,1855
1823,1825,1861
1826,1821,1835
1859,1917,1838
1869,1846,1851
1824,1767,1831
1783,1793,1865
1825,1897,1866
1854,1840,1849
1839,1832,1840
1827,1807,1840
1846,1827,1847
1854,1859,1856
1843,1887,1851
1840,1867,1808
1872,1830,1840
1872,1846,1876
1807,1904,1871
1791,1837,1826
1819,1790,1839
1863,1809,1842
1848,1786,1856
1785,1771,1859
1799,1778,1846
1840,1824,1841
1839,1841,1847
1825,1853,1841
1851,1866,1851
1856,1840,1853
1856,1838,1842
1835,1872,1841
1861,1872,1839
1854,1871,1830
1840,1840,1807
1803,1791,1824
1808,1778,1879
1840,1824,1876
1840,1841,1855
1833,1834,1846
1852,1853,1842
1872,1833,1808
1830,1857,1846
1813,1849,1863
1811,1867,1860
1851,1896,1858
1863,1775,1835
1808,1755,1839
1795,1805,1850
1834,1871,1851
1834,1850,1840
1808,1821,1842
1833,1805,1846
1854,1834,1856
1840,1856,1850
1828,1840,1828
1856,1835,1808
1860,1855,1879
1843,1854,1872
1847,1870,1862
1843,1847,1851
1843,1814,1826
1840,1774,1750
1798,1794,1865
1818,1837,1892
1853,1855,1872
1883,1846,1851
1835,1882,1846
1825,1923,1840
1825,1818,1842
1837,1837,1856
1823,1825,1856
1841,1782,1859
1872,1823,1847
1858,1850,1840
1837,1808,1849
1854,1823,1860
1846,1840,1809
1812,1823,1845
1808,1843,1872
1846,1872,1883
1863,1865,1857
1835,1811,1829
1821,1845,1840
1842,1874,1855
1843,1847,1861
1861,1840,1847
1823,1829,1855
1829,1824,1845
1850,1895,1853
1835,1847,1855
1830,1889,1857
1836,1817,1853
1851,1835,1855
1843,1911,1808
1840,1885,1808
1853,1754,1830
1828,1696,1873
1793,1768,1877
1791,1792,1855
1840,1836,1845
1863,1862,1841
1837,1828,1844
1808,1773,1828
1826,1834,1868
1855,1885,1889
1851,1854,1859
1821,1834,1837
1845,1855,1840
1870,1842,1840
1840,1845,1852
1827,1881,1872
1833,1898,1877
1847,1877,1838
1839,1797,1838
1808,1746,1841
1856,1829,1781
1883,1825,1805
1819,1741,1891
1796,1766,1879
1830,1817,1863
1867,1831,1839
1840,1872,1858
1811,1838,1859
1859,1921,1851
1870,1834,1851
1838,1793,1874
1825,1791,1852
1864,1838,1850
1872,1887,1857
1825,1841,1872
1813,1858,1839
1856,1822,1870
1840,1802,1855
1823,1800,1798
1853,1842,1835
1833,1903,1863
1827,1826,1872
1808,1767,1866
1819,1819,1823
1826,1776,1842
1841,1808,1877
1846,1823,1871
1830,1837,1862
1855,1856,1872
1873,1872,1872
1845,1874,1851
1837,1856,1844
1840,1808,1850
1892,1835,1813
1902,1825,1840
1797,1783,1840
1805,1808,1825
1861,1832,1856
1837,1808,1881
1808,1806,1858
1808,1804,1869
1842,1851,1853
1863,1861,1835
1823,1811,1824
1804,1779,1847
1833,1808,1852
1840,1831,1846
1833,1840,1851
1855,1851,1853
1872,1863,1853
1853,1838,1855
1829,1856,1845
1856,1911,1821
1863,1820,1856
1856,1781,1857
1814,1808,1843
1808,1781,1833
1841,1795,1837
1845,1834,1840
1826,1867,1859
1857,1808,1825
1840,1773,1853
1815,1776,1857
1811,1839,1842
1819,1830,1842
1861,1809,1829
1856,1840,1872
1846,1843,1857
1850,1907,1840
1875,1879,1841
1865,1860,1847
1799,1800,1840
1823,1799,1840
1850,1829,1844
1853,1895,1830
1855,1851,1776
1846,1808,1841
1829,1806,1873
1822,1783,1860
1808,1806,1844
1853,1863,1838
1872,1853,1869
1823,1808,1859
1807,1802,1827
1833,1827,1808
1867,1826,1821
1869,1775,1850
1792,1815,1890
1808,1826,1856
1855,1830,1840
1840,1846,1840
1819,1822,1839
1850,1835,1845
1875,1857,1840
1888,1942,1802
1824,1797,1854
1793,1799,1866
1830,1771,1856
1827,1813,1856
1828,1799,1831
1823,1767,1821
1840,1777,1853
1835,1811,1866
1829,1843,1853
1867,1853,1851
1859,1856,1838
1840,1831,1844
1823,1795,1853
1849,1825,1865
1867,1843,1852
1849,1837,1835
1858,1808,1834
1856,1807,1817
1815,1854,1864
1810,1808,1855
1809,1777,1852
1810,1801,1859
1840,1819,1837
1854,1850,1840
1821,1779,1842
1817,1794,1855
1842,1837,1853
1846,1845,1845
1820,1854,1840
1828,1835,1841
1858,1869,1838
1867,1835,1827
1822,1763,1862
1830,1808,1847
1866,1808,1841
1857,1808,1844
1847,1820,1799
1857,1808,1842
1881,1855,1872
1869,1860,1847
1813,1774,1849
1778,1742,1840
1850,1835,1846
1821,1808,1850
1828,1830,1847
1830,1843,1824
1824,1786,1840
1828,1808,1848
1817,1846,1842
1840,1840,1843
1866,1830,1841
1862,1829,1839
1841,1841,1840
1847,1871,1851
1875,1865,1850
1851,1852,1831
1847,1814,1797
1853,1842,1859
1872,1904,1872
1835,1863,1856
1826,1797,1817
1842,1748,1826
1849,1740,1877
1805,1785,1843
1799,1902,1839
1822,1867,1839
1865,1795,1808
1857,1770,1835
1809,1795,1854
1840,1837,1851
1846,1840,1863
1847,1847,1849
1821,1803,1846
1842,1787,1842
1873,1855,1841
1873,1797,1792
1840,1809,1852
1859,1893,1872
1833,1879,1854
1817,1804,1835
1840,1748,1822
1866,1856,1875
1835,1856,1871
1827,1852,1856
1826,1807,1824
1839,1775,1786
1882,1825,1795
1846,1782,1874
1809,1840,1904
1839,1835,1843
1825,1831,1871
1828,1845,1852
1835,1818,1861
1857,1854,1847
1890,1843,1792
1821,1773,1835
1782,1749,1866
1840,1771,1862
1853,1778,1804
1808,1853,1840
1791,1931,1878
1805,1747,1872
1838,1773,1863
1842,1812,1853
1846,1838,1849
1855,1847,1845
1856,1856,1851
1859,1862,1842
1840,1845,1856
1855,1890,1861
1872,1885,1837
1861,1898,1831
1856,1860,1826
1863,1803,1808
1861,1710,1841
1809,1727,1850
1774,1825,1877
1799,1838,1853
1858,1840,1847
1854,1847,1854
1819,1844,1845
1840,1869,1854
1888,1890,1834
1875,1811,1835
1809,1849,1845
1838,1862,1863
1861,1909,1813
1840,1804,1834
1808,1792,1870
1847,1798,1854
1873,1823,1835
1805,1761,1859
1781,1766,1863
1823,1819,1850
1861,1855,1846
1854,1834,1840
1849,1840,1843
1854,1859,1856
1872,1864,1850
1856,1853,1844
1838,1861,1850
1856,1889,1836
1874,1872,1787
1833,1795,1877
1830,1831,1894
1839,1815,1856
1888,1907,1846
1839,1809,1853
1777,1823,1845
1797,1759,1840
1854,1782,1856
1872,1849,1846
1824,1776,1833
1817,1809,1842
1846,1868,1856
1863,1895,1856
1834,1825,1846
1849,1835,1847
1872,1853,1840
1883,1834,1818
1842,1857,1888
1840,1868,1887
1859,1865,1855
1856,1890,1834
1854,1835,1778
1849,1808,1845
1838,1856,1892
1815,1783,1894
1793,1776,1849
1834,1808,1838
1867,1850,1847
1856,1853,1859
1826,1838,1851
1855,1888,1845
1886,1872,1837
1877,1872,1801
1839,1802,1831
1837,1791,1886
1863,1827,1886
1872,1893,1865
1842,1851,1866
1853,1803,1850
1878,1814,1826
1902,1909,1849
1863,1860,1828
1808,1792,1840
1834,1808,1866
1840,1822,1857
1872,1892,1817
1856,1818,1847
1831,1805,1856
1819,1820,1850
1811,1810,1851
1847,1827,1845
1877,1843,1847
1891,1846,1806
1869,1844,1840
1840,1870,1872
1842,1883,1871
1841,1861,1851
1837,1883,1863
1865,1891,1840
1863,1840,1841
1840,1878,1840
1829,1792,1845
1855,1823,1841
1882,1810,1844
1842,1793,1831
1808,1751,1853
1808,1777,1841
1843,1844,1855
1854,1817,1827
1831,1823,1846
1841,1854,1855
1861,1840,1858
1840,1846,1870
1839,1853,1869
1869,1867,1869
1879,1905,1858
1859,1874,1841
1818,1820,1840
1824,1827,1846
1872,1853,1825
1870,1968,1841
1803,1851,1853
1783,1712,1840
1835,1715,1840
1841,1854,1840
1839,1822,1790
1829,1810,1845
1821,1799,1887
1813,1811,1871
1813,1829,1854
1840,1846,1854
1871,1858,1850
1877,1876,1853
1861,1856,1869
1854,1856,1823
1850,1840,1843
1827,1860,1845
1802,1878,1856
1819,1844,1815
1822,1769,1839
1794,1694,1872
1808,1744,1871
1825,1788,1856
1855,1826,1859
1846,1869,1838
1842,1808,1845
1850,1830,1863
1867,1878,1859
1854,1873,1846
1824,1823,1853
1842,1838,1854
1877,1872,1852
1869,1822,1825
1808,1827,1853
1843,1873,1877
1872,1825,1808
1821,1766,1774
1776,1815,1863
1823,1854,1902
1829,1807,1867
1823,1759,1847
1811,1756,1843
1847,1808,1855
1879,1850,1857
1863,1846,1853
1827,1840,1852
1839,1857,1845
1879,1852,1844
1859,1901,1842
1818,1847,1856
1831,1821,1843
1857,1872,1840
1845,1898,1827
1825,1771,1809
1829,1775,1893
1819,1831,1920
1839,1836,1861
1842,1876,1828
1840,1834,1840
1852,1872,1847
1841,1850,1839
1823,1795,1840
1842,1835,1863
1869,1857,1866
1868,1845,1829
1842,1826,1824
1842,1851,1861
1860,1872,1869
1877,1921,1861
1858,1872,1840
1836,1837,1840
1869,1773,1807
1833,1792,1808
1787,1776,1875
1776,1825,1890
1805,1810,1856
1806,1810,1839
1793,1806,1858
1817,1838,1877
1856,1840,1840
1854,1847,1827
1828,1851,1837
1857,1855,1843
1872,1875,1840
1855,1885,1845
1834,1860,1842
1853,1843,1842
1881,1851,1855
1858,1839,1839
1815,1872,1842
1813,1858,1805
1872,1803,1749
1775,1721,1866
1744,1724,1899
1808,1763,1871
1851,1826,1843
1849,1866,1828
1808,1827,1839
1809,1823,1847
1861,1821,1846
1849,1904,1837
1810,1859,1831
1826,1837,1841
1856,1849,1850
1860,1839,1840
1842,1847,1836
1847,1914,1858
1872,1950,1829
1811,1809,1839
1808,1712,1803
1818,1777,1827
1831,1860,1835
1874,1957,1831
1809,1766,1846
1780,1749,1872
1826,1799,1855
1858,1882,1838
1838,1797,1841
1820,1793,1848
1827,1821,1847
1840,1855,1840
1851,1872,1823
1861,1780,1840
1822,1836,1872
1818,1861,1859
1802,1843,1847
1831,1850,1847
1866,1855,1843
1853,1931,1808
1840,1809,1806
1808,1791,1882
1840,1801,1890
1844,1825,1839
1822,1803,1821
1867,1846,1853
1840,1915,1840
1821,1793,1808
1829,1776,1822
1828,1809,1855
1827,1822,1865
1829,1826,1855
1861,1910,1840
1856,1841,1833
1812,1782,1854
1808,1785,1861
1819,1824,1854
1850,1822,1842
1860,1840,1826
1845,1871,1821
1819,1820,1857
1820,1875,1872
1836,1824,1853
1838,1840,1838
1828,1811,1850
1839,1835,1854
1872,1879,1840
1830,1859,1825
1808,1795,1852
1843,1830,1853
1857,1879,1861
1831,1846,1846
1822,1865,1841
1857,1823,1839
1899,1879,1776
1805,1718,1823
1761,1792,1861
1822,1826,1854
1827,1808,1891
1819,1836,1879
1819,1808,1869
1845,1812,1860
1859,1840,1841
1827,1857,1831
1814,1823,1840
1840,1843,1852
1865,1853,1851
1849,1843,1847
1843,1834,1845
1847,1907,1853
1856,1837,1872
1856,1808,1851
1825,1872,1826
1810,1853,1841
1824,1725,1808
1847,1855,1797
1827,1852,1856
1787,1712,1834
1793,1728,1873
1785,1792,1879
1795,1781,1856
1826,1807,1851
1840,1853,1859
1835,1883,1866
1822,1840,1845
1840,1831,1847
1867,1843,1847
1861,1846,1850
1846,1847,1851
1840,1853,1854
1872,1867,1856
1855,1857,1857
1856,1869,1870
1858,1899,1843
1858,1808,1792
1809,1761,1839
1749,1852,1872
1786,1854,1869
1850,1809,1842
1861,1850,1843
1815,1767,1853
1776,1744,1856
1814,1801,1825
1838,1806,1842
1820,1837,1870
1843,1862,1872
1867,1911,1863
1851,1872,1844
1826,1819,1850
1839,1866,1870
1872,1898,1851
1862,1859,1831
1828,1769,1805
1840,1891,1797
1840,1852,1859
1795,1866,1881
1786,1824,1864
1830,1805,1856
1853,1856,1859
1850,1890,1873
1840,1856,1863
1842,1842,1840
1843,1845,1843
1846,1876,1840
1825,1840,1835
1829,1826,1849
1853,1819,1868
1858,1869,1846
1858,1880,1855
1837,1840,1829
1811,1778,1851
1828,1729,1808
1809,1805,1849
1808,1868,1904
1865,1877,1863
1808,1852,1855
1789,1845,1853
1813,1827,1858
1852,1861,1858
1840,1829,1853
1831,1827,1854
1824,1874,1862
1859,1899,1852
1828,1808,1840
1803,1815,1843
1847,1858,1869
1875,1882,1866
1859,1925,1857
1802,1843,1827
1811,1787,1840
1845,1761,1835
1855,1802,1803
1811,1872,1872
1823,1882,1887
1837,1811,1886
1829,1862,1874
1813,1806,1819
1805,1795,1840
1849,1837,1815
1840,1872,1858
1842,1847,1872
1841,1829,1861
1846,1839,1861
1823,1840,1856
1807,1857,1844
1812,1836,1840
1856,1840,1855
1845,1858,1852
1808,1812,1840
1831,1824,1822
1874,1843,1821
1851,1841,1875
1827,1863,1856
1821,1837,1855
1833,1849,1869
1838,1846,1865
1836,1877,1837
1860,1854,1831
1839,1789,1868
1827,1796,1867
1819,1874,1857
1844,1947,1851
1840,1825,1856
1841,1792,1853
1823,1769,1853
1817,1787,1842
1834,1793,1841
1839,1810,1823
1819,1840,1838
1819,1786,1860
1847,1811,1869
1850,1821,1796
1849,1785,1823
1806,1823,1891
1817,1847,1887
1834,1843,1861
1821,1851,1858
1842,1863,1865
1858,1865,1869
1863,1887,1846
1855,1829,1856
1853,1824,1839
1861,1933,1856
1811,1847,1840
1761,1761,1839
1785,1766,1838
1814,1723,1830
1823,1776,1829
1819,1842,1824
1842,1801,1829
1838,1839,1872
1830,1899,1870
1802,1796,1820
1825,1759,1839
1842,1813,1872
1833,1822,1867
1821,1833,1854
1838,1843,1845
1874,1854,1846
1842,1849,1848
1810,1824,1842
1838,1914,1828
1877,1858,1845
1827,1798,1850
1811,1808,1845
1824,1875,1808
1827,1790,1745
1776,1730,1854
1762,1740,1887
1808,1786,1867
1855,1863,1850
1843,1842,1840
1819,1777,1839
1824,1806,1850
1853,1846,1845
1843,1833,1835
1825,1828,1836
1850,1860,1841
1872,1858,1852
