1750,1757,1824
1814,1776,1857
1798,1796,1844
1761,1776,1818
1759,1822,1840
1797,1904,1856
1819,1819,1854
1754,1810,1843
1744,1825,1841
1779,1825,1840
1798,1823,1840
1779,1839,1835
1808,1869,1773
1807,1770,1789
1755,1808,1887
1737,1840,1889
1746,1846,1863
1776,1843,1843
1807,1882,1823
1771,1808,1836
1767,1830,1841
1777,1861,1865
1777,1875,1837
1762,1791,1830
1754,1731,1811
1775,1808,1815
1779,1845,1840
1747,1834,1847
1751,1819,1826
1780,1789,1830
1789,1819,1840
1789,1851,1824
1777,1823,1845
1776,1808,1853
1775,1810,1846
1755,1810,1802
1767,1802,1805
1782,1872,1856
1781,1904,1827
1731,1795,1831
1727,1792,1844
1782,1839,1840
1791,1885,1840
1787,1792,1795
1757,1811,1831
1774,1813,1844
1779,1812,1847
1772,1822,1847
1778,1854,1847
1794,1854,1834
1778,1855,1837
1776,1832,1819
1759,1807,1840
1779,1806,1794
1779,1866,1833
1793,1907,1803
1744,1703,1823
1726,1762,1865
1760,1825,1863
1775,1872,1846
1763,1834,1840
1771,1827,1840
1789,1854,1840
1763,1821,1833
1772,1841,1840
1799,1835,1844
1805,1853,1842
1776,1882,1855
1763,1819,1846
1793,1838,1844
1818,1863,1827
1776,1822,1753
1723,1771,1834
1749,1767,1875
1757,1799,1867
1754,1798,1824
1766,1835,1840
1793,1882,1839
1797,1840,1834
1777,1837,1840
1779,1895,1843
1789,1898,1823
1805,1754,1840
1765,1799,1840
1760,1808,1837
1796,1823,1845
1824,1884,1815
1766,1794,1818
1771,1821,1849
1778,1835,1859
1803,1830,1839
1786,1809,1797
1773,1886,1874
1787,1840,1872
1794,1810,1837
1764,1809,1818
1763,1776,1819
1783,1827,1855
1812,1865,1856
1791,1819,1813
1778,1871,1788
1789,1835,1836
1772,1866,1873
1765,1816,1862
1776,1777,1840
1831,1875,1840
1787,1791,1841
1736,1793,1843
1751,1795,1847
1811,1855,1855
1808,1831,1850
1771,1808,1840
1766,1826,1842
1803,1842,1821
1811,1837,1819
1781,1840,1856
1792,1833,1842
1840,1920,1845
1804,1893,1856
1759,1850,1853
1764,1847,1843
1747,1730,1837
1755,1717,1840
1765,1787,1847
1786,1771,1808
1794,1779,1811
1803,1841,1872
1749,1823,1874
1751,1852,1866
1804,1866,1828
1812,1829,1840
1799,1834,1840
1794,1850,1858
1824,1872,1855
1837,1869,1840
1837,1870,1822
1807,1905,1875
1824,1839,1840
1803,1755,1842
1744,1776,1859
1777,1871,1877
1822,1931,1871
1782,1711,1837
1757,1719,1839
1782,1792,1842
1808,1833,1844
1827,1854,1853
1808,1859,1856
1807,1840,1854
1831,1838,1846
1838,1838,1853
1798,1854,1853
1796,1865,1860
1821,1842,1856
1823,1854,1851
1819,1834,1795
1808,1830,1850
1811,1852,1871
1808,1828,1854
1835,1790,1787
1825,1866,1859
1771,1726,1889
1766,1744,1863
1776,1793,1843
1798,1829,1846
1829,1817,1859
1849,1857,1893
1823,1843,1850
1806,1808,1846
1809,1821,1842
1819,1831,1847
1814,1870,1861
1815,1891,1856
1841,1819,1855
1846,1794,1856
1807,1809,1854
1832,1822,1808
1827,1851,1842
1791,1827,1872
1783,1819,1875
1792,1840,1870
1834,1954,1857
1837,1837,1863
1790,1729,1853
1803,1806,1855
1829,1811,1858
1838,1814,1854
1810,1827,1863
1827,1863,1869
1850,1843,1854
1873,1836,1819
1814,1811,1870
1799,1861,1870
1827,1830,1856
1837,1817,1863
1815,1824,1855
1849,1810,1837
1826,1783,1820
1831,1821,1808
1813,1877,1872
1816,1875,1872
1840,1812,1863
1829,1787,1859
1811,1798,1856
1805,1883,1857
1818,1873,1841
1831,1801,1856
1812,1757,1849
1809,1808,1853
1846,1843,1843
1847,1813,1853
1821,1838,1862
1835,1847,1865
1849,1857,1856
1854,1872,1847
1831,1839,1855
1807,1883,1842
1843,1786,1803
1863,1754,1797
1801,1838,1890
1793,1859,1887
1833,1830,1870
1866,1840,1855
1808,1782,1847
1803,1808,1844
1851,1873,1858
1891,1826,1851
1830,1823,1840
1825,1884,1833
1857,1872,1853
1865,1819,1859
1840,1824,1851
1856,1878,1845
1874,1835,1851
1865,1867,1846
1825,1842,1831
1834,1753,1808
1858,1758,1815
1846,1854,1881
1801,1821,1874
1808,1821,1850
1867,1875,1846
1876,1860,1862
1861,1854,1851
1863,1808,1840
1856,1853,1851
1860,1847,1845
1847,1844,1847
1855,1897,1851
1888,1905,1856
1872,1834,1851
1843,1755,1840
1839,1791,1847
1872,1833,1851
1885,1847,1858
1901,1858,1850
1855,1858,1839
1886,1791,1776
1866,1771,1823
1808,1821,1906
1828,1837,1902
1872,1858,1866
1910,1878,1856
1872,1872,1840
1824,1802,1852
1853,1840,1853
1868,1859,1861
1860,1836,1863
1872,1799,1827
1863,1786,1830
1847,1815,1863
1850,1837,1863
1856,1831,1840
1882,1846,1840
1888,1851,1840
1881,1869,1840
1879,1835,1847
1894,1843,1846
1901,1854,1856
1869,1850,1855
1879,1878,1847
1920,1863,1855
1889,1841,1785
1860,1757,1827
1839,1809,1881
1861,1861,1866
1875,1888,1831
1827,1712,1831
1820,1781,1862
1895,1803,1872
1882,1827,1871
1842,1791,1875
1841,1811,1857
1897,1873,1844
1901,1828,1838
1862,1818,1842
1871,1852,1854
1889,1836,1857
1891,1831,1856
1869,1834,1850
1872,1844,1841
1894,1861,1843
1882,1870,1863
1873,1847,1836
1887,1875,1839
1936,1890,1829
1890,1858,1869
1798,1758,1871
1809,1737,1835
1865,1809,1854
1894,1858,1865
1872,1840,1845
1876,1820,1831
1873,1815,1850
1877,1838,1852
1866,1823,1844
1872,1840,1853
1902,1858,1854
1908,1856,1839
1870,1845,1835
1867,1856,1847
1903,1872,1855
1913,1912,1854
1888,1834,1847
1867,1807,1841
1902,1805,1801
1927,1819,1790
1825,1825,1907
1805,1791,1877
1843,1765,1847
1882,1785,1833
1872,1771,1817
1851,1791,1849
1868,1835,1863
1882,1858,1859
1866,1846,1847
1877,1843,1842
1907,1862,1847
1905,1866,1853
1877,1849,1847
1875,1851,1842
1907,1873,1850
1907,1856,1849
1898,1810,1847
1899,1844,1811
1883,1887,1842
1881,1823,1829
1851,1792,1865
1853,1904,1906
1851,1761,1859
1852,1815,1824
1863,1779,1810
1846,1783,1856
1861,1789,1858
1876,1811,1851
1859,1821,1836
1871,1835,1847
1905,1869,1846
1904,1873,1840
1876,1839,1814
1881,1840,1827
1887,1856,1883
1906,1845,1856
1872,1811,1809
1846,1825,1843
1875,1847,1855
1897,1875,1844
1872,1828,1810
1872,1840,1819
1906,1866,1903
1871,1775,1867
1826,1808,1832
1834,1767,1833
1872,1807,1852
1891,1831,1855
1884,1895,1849
1870,1825,1844
1873,1839,1859
1879,1855,1859
1877,1833,1846
1869,1851,1840
1888,1920,1838
1859,1829,1856
1841,1779,1849
1885,1840,1863
1919,1934,1817
1879,1761,1795
1813,1773,1883
1820,1810,1904
1875,1845,1886
1886,1798,1867
1874,1842,1854
1872,1812,1845
1867,1829,1860
1878,1903,1855
1851,1850,1835
1851,1808,1835
1900,1823,1847
1874,1808,1859
1843,1780,1854
1865,1780,1833
1890,1849,1869
1872,1867,1872
1872,1883,1857
1872,1838,1850
1892,1851,1865
1887,1856,1835
1856,1882,1819
1827,1780,1897
1851,1744,1877
1893,1814,1868
1875,1808,1870
1872,1808,1857
1882,1834,1845
1882,1856,1865
1875,1827,1815
1863,1823,1872
1900,1920,1887
1921,1875,1847
1849,1749,1843
1815,1776,1870
1872,1869,1864
1918,1801,1840
1864,1815,1862
1890,1818,1855
1873,1814,1839
1825,1872,1882
1823,1841,1877
1856,1885,1872
1872,1821,1859
1859,1776,1840
1853,1785,1838
1871,1827,1847
1891,1848,1855
1895,1851,1853
1878,1856,1865
1881,1874,1879
1903,1859,1853
1890,1817,1854
1872,1792,1847
1872,1827,1845
1941,1878,1815
1907,1872,1852
1823,1770,1785
1826,1776,1827
1856,1837,1925
1861,1821,1916
1847,1830,1852
1872,1863,1856
1910,1840,1863
1857,1763,1857
1826,1795,1849
1825,1842,1851
1872,1851,1851
1890,1856,1849
1875,1867,1840
1861,1830,1859
1904,1836,1861
1888,1840,1861
1869,1842,1856
1869,1889,1878
1898,1837,1845
1890,1824,1835
1866,1828,1840
1867,1818,1840
1919,1840,1833
1919,1936,1819
1847,1925,1807
1792,1712,1879
1808,1678,1903
1857,1733,1869
1861,1809,1858
1841,1807,1855
1872,1817,1845
1893,1834,1847
1876,1831,1840
1870,1857,1855
1873,1849,1866
1883,1849,1857
1872,1858,1863
1872,1849,1862
1890,1904,1838
1898,1768,1803
1837,1744,1824
1829,1833,1872
1905,1859,1845
1872,1820,1871
1834,1799,1863
1843,1845,1860
1872,1833,1856
1897,1841,1847
1898,1872,1850
1855,1832,1843
1879,1807,1850
1883,1829,1856
1862,1861,1857
1861,1856,1853
1875,1872,1842
1876,1808,1847
1872,1805,1856
1883,1835,1859
1886,1900,1860
1895,1755,1791
1826,1774,1836
1821,1835,1873
1875,1855,1845
1904,1855,1796
1856,1823,1840
1825,1789,1882
1870,1819,1879
1873,1830,1861
1842,1823,1856
1851,1872,1856
1875,1842,1850
1884,1905,1845
1856,1814,1840
1845,1799,1847
1877,1818,1843
1884,1831,1847
1875,1836,1849
1834,1879,1849
1838,1788,1846
1843,1790,1841
1851,1834,1837
1855,1830,1845
1904,1838,1809
1856,1810,1851
1820,1819,1873
1835,1872,1871
1882,1845,1862
1888,1815,1841
1873,1786,1822
1836,1830,1871
1871,1855,1878
1886,1854,1854
1874,1843,1839
1876,1904,1843
1871,1900,1840
1847,1782,1851
1843,1792,1856
1859,1811,1862
1854,1794,1845
1877,1776,1823
1849,1744,1839
1818,1801,1857
1872,1875,1818
1871,1807,1837
1831,1797,1871
1841,1817,1872
1881,1852,1860
1889,1846,1843
1867,1841,1840
1872,1843,1851
1886,1846,1861
1890,1883,1866
1858,1847,1841
1862,1838,1845
1878,1861,1847
1910,1917,1851
1875,1872,1794
1803,1713,1808
1805,1725,1856
1840,1751,1868
1850,1793,1862
1845,1837,1863
1872,1863,1871
1872,1872,1866
1847,1839,1850
1855,1839,1843
1884,1847,1792
1875,1856,1840
1866,1856,1876
1859,1881,1858
1876,1826,1842
1843,1813,1847
1829,1826,1861
1811,1823,1846
1856,1850,1830
1845,1808,1835
1831,1773,1837
1843,1806,1841
1873,1854,1849
1886,1885,1847
1857,1840,1844
1851,1809,1845
1867,1827,1845
1899,1822,1846
1872,1850,1829
1842,1839,1841
1840,1845,1878
1868,1847,1842
1853,1792,1778
1827,1798,1858
1904,1852,1851
1853,1839,1855
1798,1808,1856
1820,1795,1840
1860,1824,1827
1869,1803,1849
1847,1813,1852
1840,1818,1847
1869,1840,1843
1909,1910,1869
1840,1798,1840
1827,1793,1827
1865,1827,1815
1875,1882,1839
1842,1808,1861
1867,1864,1858
1879,1846,1846
1851,1765,1793
1797,1801,1838
1819,1808,1879
1850,1835,1863
1861,1827,1849
1852,1817,1838
1840,1857,1845
1856,1867,1843
1885,1819,1858
1863,1895,1830
1830,1867,1818
1839,1777,1837
1874,1799,1818
1837,1790,1856
1824,1820,1887
1868,1841,1859
1875,1846,1837
1849,1808,1803
1837,1883,1863
1862,1819,1853
1884,1838,1823
1847,1840,1839
1827,1862,1865
1871,1923,1864
1881,1862,1856
1824,1769,1840
1847,1755,1833
1840,1808,1838
1837,1819,1849
1808,1808,1854
1835,1840,1835
1857,1817,1853
1871,1797,1851
1855,1839,1854
1840,1854,1847
1889,1840,1856
1871,1811,1852
1854,1824,1846
1839,1827,1841
1856,1851,1840
1877,1866,1841
1875,1843,1806
1843,1821,1820
1825,1900,1887
1861,1834,1828
1825,1715,1849
1790,1737,1870
1829,1805,1860
1857,1847,1840
1865,1840,1841
1840,1818,1840
1862,1801,1849
1863,1798,1842
1833,1827,1840
1839,1851,1843
1874,1857,1840
1872,1855,1840
1863,1857,1840
1855,1847,1847
1855,1846,1858
1866,1845,1840
1846,1793,1805
1872,1829,1786
1868,1878,1883
1874,1876,1902
1833,1814,1859
1819,1826,1846
1882,1877,1819
1840,1819,1843
1808,1708,1854
1825,1779,1856
1861,1762,1845
1855,1786,1842
1837,1808,1841
1855,1839,1821
1872,1834,1849
1863,1845,1872
1855,1840,1857
1857,1842,1861
1874,1889,1861
1876,1843,1848
1860,1796,1824
1904,1890,1840
1870,1891,1835
1807,1779,1868
1831,1778,1898
1810,1879,1853
1808,1727,1829
1814,1791,1824
1808,1799,1853
1823,1802,1856
1862,1834,1855
1858,1809,1853
1840,1815,1851
1840,1837,1855
1866,1856,1868
1874,1865,1856
1847,1853,1850
1838,1895,1850
1858,1895,1846
1870,1792,1839
1874,1713,1744
1840,1861,1891
1854,1887,1921
1808,1797,1879
1765,1746,1854
1791,1791,1854
1872,1843,1877
1890,1888,1847
1819,1861,1835
1810,1813,1843
1861,1814,1851
1872,1872,1831
1846,1821,1841
1850,1808,1854
1889,1894,1858
1867,1872,1827
1860,1754,1775
1826,1776,1846
1814,1795,1890
1843,1819,1873
1840,1828,1851
1872,1897,1840
1881,1847,1835
1842,1771,1853
1814,1839,1860
1827,1835,1845
1867,1803,1849
1859,1826,1845
1847,1881,1842
1840,1824,1840
1840,1783,1841
1846,1830,1829
1842,1792,1779
1849,1894,1869
1835,1801,1855
1823,1733,1856
1838,1775,1858
1839,1831,1856
1865,1815,1847
1853,1827,1861
1850,1851,1840
1877,1831,1796
1834,1825,1851
1830,1823,1877
1838,1822,1862
1845,1844,1805
1858,1777,1840
1826,1775,1872
1808,1808,1870
1828,1806,1839
1853,1866,1826
1866,1839,1855
1837,1769,1863
1840,1791,1856
1850,1803,1857
1864,1826,1857
1842,1855,1841
1855,1839,1850
1874,1858,1885
1868,1827,1841
1851,1792,1776
1865,1788,1821
1848,1826,1899
1835,1877,1874
1808,1838,1859
1818,1818,1843
1849,1752,1843
1856,1779,1843
1845,1866,1840
1845,1861,1856
1870,1887,1851
1869,1786,1839
1838,1738,1859
1837,1823,1860
1866,1828,1846
1890,1789,1840
1845,1872,1872
1847,1888,1803
1870,1809,1837
1855,1838,1855
1841,1808,1826
1834,1771,1810
1833,1798,1858
1853,1856,1867
1878,1905,1834
1840,1838,1835
1826,1776,1866
1840,1779,1863
1840,1839,1845
1838,1831,1837
1859,1781,1847
1872,1808,1866
1869,1809,1847
1858,1837,1830
1837,1863,1877
1843,1861,1862
1826,1871,1856
1837,1838,1840
1866,1862,1837
1829,1766,1846
1804,1781,1847
1823,1820,1853
1862,1853,1855
1877,1858,1847
1874,1840,1801
1865,1877,1845
1866,1913,1871
1853,1793,1856
1820,1789,1830
1852,1808,1787
1878,1843,1831
1820,1799,1882
1805,1777,1904
1827,1799,1868
1866,1862,1840
1854,1822,1838
1838,1818,1834
1858,1854,1833
1862,1851,1841
1866,1869,1855
1845,1859,1853
1842,1872,1838
1871,1843,1831
1874,1854,1845
1874,1873,1840
1867,1891,1831
1877,1813,1776
1840,1769,1849
1826,1791,1869
1797,1877,1869
1851,1840,1875
1867,1841,1869
1829,1862,1843
1819,1765,1838
1870,1776,1860
1878,1847,1851
1846,1815,1837
1843,1828,1839
1876,1837,1837
1904,1895,1853
1855,1855,1846
1815,1853,1852
1843,1872,1851
1877,1878,1847
1872,1910,1783
1831,1776,1819
1861,1809,1837
1872,1779,1868
1799,1794,1867
1783,1823,1857
1834,1830,1857
1857,1793,1846
1849,1842,1819
1846,1808,1837
1866,1797,1840
1879,1825,1836
1854,1840,1831
1863,1841,1835
1872,1874,1846
1885,1859,1837
1870,1870,1838
1825,1902,1852
1852,1886,1856
1871,1796,1825
1854,1839,1865
1849,1911,1867
1858,1823,1839
1865,1784,1852
1806,1762,1854
1820,1783,1803
1855,1817,1841
1863,1872,1883
1849,1900,1845
1840,1815,1842
1854,1782,1849
1868,1812,1865
1855,1840,1855
1850,1856,1845
1873,1867,1843
1885,1839,1822
1886,1855,1787
1833,1866,1889
1829,1846,1893
1809,1815,1869
1811,1761,1835
1840,1747,1843
1886,1821,1858
1872,1894,1847
1843,1907,1840
1830,1792,1871
1863,1831,1860
1891,1802,1820
1831,1801,1829
1825,1865,1863
1856,1837,1888
1862,1818,1810
1846,1837,1847
1827,1824,1885
1856,1859,1861
1871,1873,1859
1854,1807,1835
1867,1843,1840
1859,1840,1875
1858,1836,1862
1831,1804,1847
1847,1860,1830
1873,1821,1846
1870,1796,1857
1870,1862,1849
1824,1789,1838
1855,1787,1834
1855,1865,1872
1843,1808,1828
1857,1770,1847
1862,1889,1893
1841,1855,1872
1824,1773,1828
1825,1809,1840
1866,1866,1859
1891,1850,1863
1859,1840,1848
1853,1856,1841
1846,1866,1843
1872,1871,1841
1838,1801,1834
1826,1785,1840
1857,1810,1851
1883,1902,1850
1867,1841,1782
1814,1753,1861
1840,1756,1868
1859,1781,1865
1840,1889,1857
1857,1812,1831
1850,1810,1871
1870,1830,1857
1874,1856,1855
1854,1847,1850
1878,1813,1827
1859,1827,1837
1851,1922,1856
1840,1818,1856
1849,1870,1856
1856,1809,1840
1834,1777,1844
1852,1826,1846
1879,1862,1821
1866,1821,1846
1823,1807,1862
1838,1834,1865
1863,1850,1859
1872,1877,1851
1872,1846,1846
1855,1877,1844
1861,1865,1860
1873,1834,1843
1866,1855,1777
1776,1718,1840
1807,1749,1881
1840,1805,1867
1853,1869,1843
1841,1882,1831
1856,1763,1790
1845,1793,1859
1830,1828,1873
1839,1849,1866
1875,1879,1847
1880,1891,1840
1847,1859,1846
1852,1833,1831
1902,1815,1834
1889,1831,1858
1840,1902,1830
1835,1847,1828
1843,1791,1845
1851,1821,1851
1863,1817,1818
1850,1872,1857
1869,1813,1832
1857,1838,1831
1822,1835,1794
1840,1792,1809
1869,1791,1822
1862,1859,1879
1826,1846,1872
1840,1814,1857
1875,1845,1855
1871,1866,1856
1838,1866,1843
1826,1884,1867
1842,1863,1867
1872,1854,1840
1853,1815,1821
1835,1792,1845
1830,1765,1822
1827,1823,1850
1835,1851,1863
1866,1963,1847
1861,1806,1843
1855,1787,1789
1837,1807,1824
1822,1794,1879
1847,1822,1880
1874,1829,1852
1863,1857,1840
1856,1859,1833
1878,1829,1826
1846,1840,1879
1825,1853,1858
1845,1863,1839
1842,1821,1846
1843,1841,1850
1840,1834,1827
1824,1828,1842
1855,1874,1840
1846,1875,1862
1859,1886,1861
1849,1798,1856
1856,1786,1809
1841,1866,1860
1818,1829,1854
1838,1776,1850
1840,1817,1854
1853,1840,1847
1840,1842,1845
1840,1854,1851
1870,1894,1847
1871,1873,1842
1847,1842,1856
1839,1792,1872
1842,1822,1854
1894,1857,1846
1841,1787,1808
1811,1797,1844
1819,1897,1883
1839,1846,1873
1845,1821,1810
1842,1898,1832
1846,1881,1850
1854,1814,1872
1837,1761,1862
1833,1787,1850
1855,1850,1846
1882,1845,1843
1859,1846,1851
1830,1819,1872
1842,1837,1870
1863,1847,1850
1858,1878,1825
1846,1830,1855
1867,1806,1881
1867,1904,1856
1809,1819,1845
1804,1750,1851
1858,1789,1829
1875,1840,1826
1852,1830,1862
1805,1815,1879
1817,1841,1887
1814,1808,1872
1809,1789,1854
1815,1794,1855
1851,1839,1857
1879,1851,1852
1844,1840,1847
1835,1840,1853
1863,1857,1854
1875,1867,1856
1844,1856,1846
1841,1856,1851
1877,1906,1859
1872,1872,1856
1840,1861,1837
1814,1836,1823
1850,1817,1840
1887,1835,1786
1873,1757,1783
1807,1779,1893
1799,1807,1905
1808,1887,1878
1801,1728,1795
1805,1726,1835
1841,1792,1861
1863,1831,1862
1851,1835,1851
1839,1845,1836
1857,1859,1840
1870,1866,1843
1844,1857,1846
1871,1863,1855
1870,1859,1849
1841,1863,1846
1837,1849,1856
1840,1840,1832
1847,1788,1808
1861,1874,1827
1857,1867,1845
1808,1783,1860
1819,1793,1853
1861,1833,1851
1840,1841,1875
1812,1757,1814
1819,1738,1836
1840,1795,1858
1851,1830,1851
1857,1850,1841
1856,1849,1840
1853,1840,1845
1839,1837,1840
1846,1846,1845
1871,1879,1855
1891,1873,1855
1884,1811,1805
1805,1799,1862
1813,1846,1879
1871,1898,1843
1841,1745,1808
1791,1712,1863
1847,1808,1863
1856,1890,1875
1824,1770,1859
1826,1755,1831
1859,1808,1835
1874,1839,1840
1843,1843,1843
1824,1840,1846
1851,1843,1856
1876,1873,1851
1862,1872,1843
1842,1823,1841
1872,1838,1851
1895,1861,1810
1887,1792,1786
1829,1808,1869
1840,1888,1906
1835,1823,1876
1808,1798,1849
1803,1808,1845
1867,1899,1840
1870,1958,1855
1805,1718,1870
1802,1699,1859
1853,1773,1859
1888,1819,1865
1884,1854,1861
1853,1835,1845
1841,1826,1845
1857,1858,1847
1847,1847,1852
1872,1891,1855
1871,1858,1821
1853,1743,1835
1823,1815,1877
1829,1859,1871
1858,1894,1827
1863,1802,1827
1833,1831,1861
1805,1782,1856
1820,1822,1866
1858,1837,1863
1851,1840,1856
1853,1842,1859
1878,1863,1869
1883,1886,1872
1856,1856,1856
1849,1879,1853
1887,1846,1845
1890,1858,1855
1862,1733,1835
1810,1710,1834
1834,1747,1854
1840,1777,1871
1829,1858,1862
1837,1861,1856
1823,1791,1859
1839,1791,1861
1837,1826,1856
1851,1814,1872
1872,1808,1819
1854,1839,1863
1833,1839,1867
1839,1846,1865
1872,1859,1863
1881,1856,1860
1870,1869,1857
1858,1880,1877
1879,1958,1839
1889,1819,1814
1820,1734,1861
1819,1765,1874
1883,1877,1871
1856,1881,1857
1830,1808,1835
1811,1806,1857
1839,1803,1859
1847,1811,1858
1833,1814,1851
1851,1826,1851
1872,1853,1857
1871,1852,1851
1871,1889,1845
1851,1825,1858
1850,1808,1869
1867,1837,1865
1862,1863,1855
1852,1853,1855
1857,1853,1854
1872,1861,1837
1817,1758,1840
1802,1779,1856
1845,1837,1861
1863,1853,1857
1860,1861,1804
1853,1831,1829
1873,1857,1877
1872,1877,1845
1831,1815,1859
1853,1864,1878
1883,1809,1828
1855,1807,1856
1809,1799,1857
1849,1856,1851
1887,1855,1840
1877,1850,1845
1802,1728,1851
1789,1804,1862
1823,1808,1847
1858,1811,1842
1856,1833,1851
1854,1839,1854
1873,1856,1846
1878,1857,1851
1863,1856,1849
1863,1857,1850
1884,1872,1853
1885,1889,1843
1889,1840,1776
1817,1803,1869
1821,1824,1883
1861,1916,1867
1839,1845,1841
1810,1775,1854
1834,1781,1853
1873,1825,1829
1840,1741,1831
1825,1779,1866
1835,1817,1867
1856,1828,1843
1852,1842,1840
1853,1864,1847
1875,1827,1840
1871,1819,1851
1849,1834,1851
1838,1836,1851
1882,1862,1808
1905,1807,1838
1852,1868,1857
1776,1774,1861
1834,1791,1840
1834,1808,1847
1830,1865,1847
1811,1837,1847
1840,1818,1851
1851,1874,1840
1840,1793,1840
1837,1802,1847
1855,1834,1850
1872,1856,1851
1853,1851,1847
1845,1845,1855
1877,1861,1857
1885,1872,1850
1850,1872,1824
1847,1844,1863
1889,1871,1872
1839,1826,1834
1802,1773,1814
1822,1802,1846
1855,1831,1797
1889,1831,1839
1843,1807,1875
1806,1809,1871
1839,1867,1846
1885,1855,1842
1867,1810,1830
1820,1826,1843
1846,1881,1846
1872,1804,1825
1840,1757,1838
1823,1838,1878
1857,1825,1877
1883,1839,1861
1843,1826,1859
1843,1847,1855
1901,1896,1861
1894,1861,1811
1817,1783,1819
1806,1777,1837
1822,1793,1863
1845,1871,1872
1861,1863,1851
1849,1826,1837
1862,1776,1858
1844,1821,1846
1827,1836,1840
1835,1843,1853
1867,1860,1862
1887,1899,1850
1871,1903,1851
1824,1779,1843
1844,1789,1853
1846,1799,1843
1853,1856,1835
1839,1808,1843
1859,1825,1853
1850,1821,1837
1829,1808,1831
1823,1841,1872
1856,1865,1872
1877,1869,1849
1870,1871,1817
1888,1904,1808
1837,1820,1888
1813,1737,1879
1823,1750,1845
1843,1859,1859
1870,1828,1868
1854,1808,1840
1842,1821,1838
1811,1818,1849
1845,1901,1851
1855,1806,1849
1853,1810,1849
1847,1791,1856
1872,1819,1861
1860,1861,1866
1811,1859,1857
1803,1818,1825
1846,1831,1818
1857,1838,1840
1836,1841,1875
1830,1872,1866
1872,1954,1844
1856,1724,1799
1799,1700,1835
1794,1805,1867
1843,1781,1860
1874,1840,1842
1830,1843,1835
1803,1842,1846
1852,1845,1859
1854,1813,1859
1840,1825,1847
1826,1837,1841
1819,1852,1845
1838,1859,1855
1842,1870,1855
1833,1855,1840
1874,1876,1759
1866,1807,1855
1821,1799,1904
1803,1811,1873
1844,1824,1866
1874,1917,1856
1853,1813,1844
1803,1781,1856
1819,1823,1834
1863,1874,1839
1839,1777,1869
1792,1756,1838
1827,1814,1837
1861,1866,1837
1842,1840,1844
1842,1822,1819
1844,1810,1831
1843,1827,1834
1840,1819,1841
1809,1833,1876
1845,1857,1847
1866,1855,1834
1838,1777,1851
1809,1822,1856
1840,1847,1855
1871,1840,1872
1858,1844,1853
1808,1818,1840
1827,1808,1876
1834,1799,1856
1821,1847,1838
1833,1892,1835
1844,1859,1840
1851,1733,1857
1827,1723,1790
1811,1781,1840
1830,1840,1872
1854,1855,1872
1840,1842,1850
1849,1853,1851
1869,1846,1832
1857,1842,1833
1831,1828,1856
1834,1850,1857
1841,1872,1872
1849,1835,1821
1838,1807,1830
1831,1840,1866
1856,1875,1875
1878,1909,1841
1859,1861,1820
1786,1738,1867
1797,1787,1861
1856,1787,1808
1833,1810,1857
1815,1789,1872
1825,1795,1858
1840,1825,1843
1838,1839,1833
1840,1808,1838
1878,1838,1843
1860,1840,1863
1834,1851,1849
1826,1838,1844
1867,1867,1845
1872,1846,1831
1825,1856,1856
1829,1840,1871
1850,1812,1860
1893,1869,1844
1845,1773,1791
1778,1771,1831
1802,1826,1901
1840,1853,1890
1842,1855,1857
1871,1847,1853
1872,1857,1854
1835,1806,1867
1829,1870,1847
1861,1873,1843
1856,1831,1853
1855,1783,1835
1828,1807,1854
1836,1843,1871
1871,1872,1863
1885,1859,1847
1847,1850,1851
1827,1872,1861
1808,1758,1869
1845,1744,1826
1865,1804,1808
1813,1847,1878
1824,1811,1897
1843,1810,1859
1839,1819,1842
1840,1840,1847
1866,1854,1851
1858,1843,1851
1843,1841,1860
1846,1846,1856
1872,1862,1856
1859,1863,1856
1861,1895,1847
1842,1853,1840
1840,1837,1867
1839,1839,1809
1797,1752,1845
1785,1722,1816
1826,1754,1866
1853,1776,1874
1840,1840,1878
1822,1870,1871
1840,1849,1854
1849,1797,1855
1838,1810,1847
1840,1828,1860
1866,1857,1871
1884,1845,1850
1866,1852,1851
1856,1855,1871
1871,1856,1852
1886,1856,1826
1824,1833,1839
1824,1834,1861
1841,1856,1875
1869,1855,1857
1842,1873,1847
1853,1968,1793
1859,1789,1859
1837,1722,1871
1808,1739,1840
1807,1823,1851
1854,1942,1841
1881,1887,1794
1815,1728,1858
1804,1747,1882
1843,1822,1877
1861,1853,1858
1835,1845,1835
1834,1842,1840
1858,1859,1841
1877,1847,1847
1855,1840,1839
1841,1830,1809
1849,1891,1851
1861,1899,1839
1829,1859,1853
1777,1805,1863
1798,1742,1862
1838,1763,1843
1834,1787,1840
1839,1835,1852
1863,1862,1863
1894,1853,1848
1856,1846,1837
1819,1853,1850
1840,1865,1855
1874,1981,1841
1863,1891,1851
1824,1734,1830
1850,1744,1817
1854,1782,1818
1838,1765,1833
1801,1827,1895
1840,1813,1889
1856,1845,1866
1859,1872,1842
1827,1861,1856
1830,1855,1846
1855,1808,1840
1850,1761,1840
1840,1792,1847
1867,1872,1853
1877,1852,1840
1851,1831,1843
1841,1840,1861
1872,1814,1847
1875,1865,1842
1840,1891,1840
1818,1821,1837
1856,1867,1844
1870,1834,1858
1846,1810,1845
1846,1846,1805
1895,1883,1797
1869,1841,1850
1829,1790,1862
1845,1799,1869
1855,1837,1859
1865,1823,1845
1840,1822,1827
1856,1875,1793
1839,1790,1831
1839,1807,1862
1845,1806,1818
1856,1826,1856
1867,1831,1853
1868,1846,1840
1855,1827,1791
1822,1850,1857
1854,1887,1871
1869,1857,1861
1850,1841,1846
1853,1911,1855
1865,1875,1867
1874,1865,1845
1869,1808,1833
1850,1763,1833
1855,1823,1853
1873,1934,1856
1872,1877,1822
1787,1734,1812
1797,1746,1838
1834,1803,1840
1866,1808,1838
1845,1873,1856
1849,1895,1855
1861,1827,1825
1857,1778,1789
1840,1861,1854
1845,1891,1872
1856,1818,1872
1846,1801,1856
1850,1840,1849
1858,1853,1843
1904,1867,1811
1861,1878,1838
1812,1810,1858
1847,1873,1872
1871,1799,1856
1804,1696,1829
1797,1753,1839
