1838,1840,1853
1854,1824,1836
1854,1803,1819
1856,1809,1849
1855,1793,1801
1829,1854,1846
1872,1818,1867
1862,1841,1856
1842,1813,1806
1827,1839,1872
1841,1859,1881
1855,1843,1847
1837,1868,1840
1843,1856,1830
1861,1823,1849
1865,1840,1854
1850,1841,1851
1879,1884,1841
1859,1809,1839
1837,1796,1840
1845,1857,1840
1845,1815,1833
1840,1824,1850
1853,1799,1860
1825,1792,1841
1808,1871,1846
1851,1867,1787
1841,1781,1834
1813,1809,1842
1839,1840,1869
1851,1810,1889
1842,1823,1861
1815,1842,1853
1829,1858,1856
1863,1871,1862
1861,1870,1858
1833,1853,1847
1843,1843,1840
1854,1842,1838
1869,1774,1825
1835,1847,1855
1809,1847,1865
1852,1911,1849
1865,1795,1857
1829,1795,1855
1831,1833,1859
1858,1866,1853
1864,1809,1819
1849,1802,1808
1813,1808,1877
1833,1841,1875
1840,1846,1857
1842,1854,1797
1811,1792,1849
1835,1791,1872
1838,1831,1871
1823,1851,1857
1819,1855,1846
1840,1850,1841
1840,1836,1843
1827,1840,1850
1842,1857,1851
1893,1883,1827
1854,1945,1843
1786,1835,1869
1791,1786,1868
1857,1817,1826
1846,1779,1817
1766,1766,1869
1782,1781,1879
1841,1825,1869
1872,1886,1884
1854,1809,1851
1795,1781,1836
1810,1822,1840
1831,1843,1842
1828,1845,1844
1827,1853,1845
1856,1859,1853
1856,1867,1856
1822,1849,1851
1808,1849,1854
1873,1856,1773
1839,1803,1840
1808,1850,1856
1792,1890,1870
1805,1799,1882
1795,1776,1879
1794,1791,1855
1802,1758,1837
1815,1775,1849
1826,1843,1841
1807,1808,1851
1813,1811,1846
1845,1840,1846
1844,1856,1840
1829,1849,1840
1827,1862,1846
1863,1854,1845
1852,1867,1846
1824,1840,1843
1840,1872,1857
1863,1872,1847
1858,1819,1817
1840,1840,1831
1855,1824,1815
1839,1840,1852
1776,1822,1867
1760,1808,1810
1799,1876,1865
1826,1821,1846
1826,1744,1862
1813,1775,1853
1829,1818,1846
1857,1840,1848
1857,1853,1846
1834,1841,1855
1825,1856,1885
1867,1878,1873
1873,1841,1838
1853,1863,1824
1840,1874,1820
1844,1808,1840
1835,1787,1836
1821,1793,1814
1817,1815,1873
1840,1790,1871
1831,1762,1857
1804,1788,1855
1823,1817,1858
1838,1837,1840
1849,1838,1840
1837,1836,1847
1842,1863,1862
1866,1867,1856
1869,1844,1845
1842,1808,1850
1857,1852,1853
1875,1840,1842
1859,1803,1833
1804,1836,1837
1811,1797,1853
1841,1810,1856
1855,1825,1856
1843,1855,1847
1845,1856,1835
1895,1823,1781
1847,1773,1885
1838,1808,1841
1865,1856,1871
1871,1809,1890
1822,1801,1869
1809,1834,1825
1827,1820,1842
1858,1846,1858
1901,1849,1854
1814,1790,1830
1788,1781,1838
1837,1826,1845
1860,1811,1840
1835,1808,1831
1834,1829,1862
1867,1851,1853
1875,1847,1850
1851,1869,1843
1856,1855,1845
1872,1841,1853
1872,1829,1851
1847,1835,1824
1855,1797,1833
1909,1855,1840
1845,1795,1870
1794,1779,1867
1834,1823,1854
1901,1835,1851
1889,1862,1791
1776,1725,1827
1790,1786,1856
1852,1770,1856
1871,1809,1858
1849,1821,1848
1847,1829,1849
1882,1831,1838
1873,1858,1856
1853,1857,1867
1851,1856,1857
1894,1882,1855
1887,1840,1846
1850,1799,1830
1893,1872,1831
1871,1902,1843
1857,1741,1843
1791,1721,1870
1815,1829,1873
1851,1863,1851
1849,1770,1849
1831,1786,1869
1840,1819,1872
1887,1814,1846
1874,1807,1842
1840,1827,1835
1862,1834,1844
1877,1862,1868
1872,1850,1855
1867,1826,1797
1866,1803,1787
1856,1843,1865
1872,1933,1854
1810,1840,1875
1810,1725,1878
1875,1791,1869
1872,1794,1857
1796,1847,1843
1796,1830,1842
1845,1787,1845
1872,1817,1846
1834,1840,1861
1855,1943,1843
1872,1810,1856
1867,1798,1859
1845,1806,1834
1855,1809,1838
1869,1838,1843
1886,1851,1845
1850,1839,1840
1854,1833,1819
1886,1836,1851
1881,1943,1826
1841,1815,1791
1779,1738,1872
1838,1781,1889
1865,1820,1882
1870,1872,1841
1868,1837,1826
1847,1808,1853
1814,1805,1846
1809,1822,1840
1853,1840,1847
1891,1850,1854
1887,1866,1846
1856,1878,1840
1845,1817,1840
1872,1884,1860
1874,1904,1871
1856,1828,1819
1855,1700,1808
1872,1774,1833
1906,1889,1846
1871,1827,1824
1809,1776,1863
1840,1809,1875
1868,1827,1856
1878,1840,1850
1873,1833,1840
1867,1877,1833
1866,1836,1808
1819,1806,1856
1831,1842,1877
1872,1870,1863
1882,1860,1841
1856,1843,1840
1859,1886,1854
1873,1863,1845
1867,1861,1829
1854,1839,1850
1859,1869,1863
1840,1744,1833
1854,1776,1823
1847,1805,1795
1853,1780,1899
1868,1833,1898
1868,1855,1859
1827,1764,1834
1819,1801,1843
1863,1841,1847
1878,1851,1853
1858,1845,1845
1851,1872,1851
1872,1874,1856
1872,1879,1847
1872,1870,1835
1857,1895,1840
1855,1808,1831
1853,1791,1840
1835,1819,1844
1849,1811,1841
1888,1840,1808
1862,1840,1865
1843,1840,1808
1819,1843,1862
1835,1791,1884
1872,1792,1871
1847,1821,1837
1866,1840,1826
1887,1841,1853
1858,1830,1837
1835,1808,1837
1844,1855,1850
1843,1865,1846
1841,1835,1838
1831,1839,1833
1852,1872,1850
1886,1854,1852
1867,1805,1840
1826,1802,1823
1846,1822,1831
1866,1825,1840
1886,1866,1830
1870,1872,1805
1827,1854,1901
1827,1787,1878
1842,1808,1841
1837,1793,1819
1819,1815,1852
1868,1862,1870
1883,1872,1840
1862,1851,1825
1840,1744,1841
1847,1796,1858
1856,1840,1850
1841,1825,1834
1871,1834,1839
1873,1855,1852
1872,1873,1852
1827,1837,1841
1839,1831,1843
1883,1904,1825
1877,1824,1795
1825,1745,1860
1798,1856,1921
1825,1833,1861
1837,1870,1830
1821,1785,1837
1826,1774,1843
1872,1824,1855
1872,1843,1845
1853,1857,1840
1856,1840,1840
1879,1853,1849
1889,1869,1857
1857,1858,1856
1842,1859,1840
1881,1853,1842
1872,1868,1833
1829,1800,1836
1836,1748,1798
1856,1845,1857
1871,1870,1857
1847,1887,1889
1862,1938,1849
1877,1861,1867
1840,1792,1860
1840,1731,1857
1827,1765,1870
1874,1901,1908
1866,1833,1856
1818,1769,1830
1825,1797,1842
1867,1842,1863
1875,1874,1854
1867,1813,1843
1857,1831,1853
1873,1853,1855
1860,1818,1867
1849,1823,1859
1878,1845,1866
1919,1825,1771
1871,1827,1860
1794,1830,1899
1824,1808,1845
1839,1843,1858
1839,1815,1879
1831,1860,1882
1850,1897,1850
1856,1849,1872
1835,1779,1872
1804,1781,1871
1827,1806,1849
1868,1849,1853
1872,1879,1853
1857,1868,1847
1837,1814,1878
1866,1821,1867
1872,1850,1870
1839,1811,1840
1860,1773,1791
1835,1846,1856
1823,1831,1887
1825,1822,1878
1844,1828,1867
1890,1874,1872
1865,1872,1867
1812,1840,1856
1822,1881,1855
1856,1825,1859
1870,1821,1849
1845,1778,1840
1847,1842,1872
1869,1902,1875
1895,1847,1826
1819,1795,1878
1791,1760,1874
1825,1790,1856
1861,1809,1824
1840,1817,1792
1830,1812,1850
1862,1869,1887
1868,1843,1866
1822,1842,1853
1847,1840,1853
1868,1883,1861
1890,1975,1847
1859,1850,1850
1830,1713,1835
1833,1793,1840
1850,1806,1846
1845,1846,1843
1853,1867,1840
1856,1775,1853
1856,1787,1863
1837,1830,1847
1830,1814,1853
1856,1803,1863
1858,1803,1861
1853,1807,1838
1855,1815,1840
1877,1837,1850
1873,1808,1786
1831,1834,1856
1841,1865,1895
1887,1845,1838
1866,1876,1889
1837,1856,1867
1808,1765,1838
1818,1728,1838
1841,1818,1846
1835,1826,1858
1851,1823,1857
1874,1840,1862
1865,1849,1855
1846,1840,1835
1854,1858,1840
1918,1958,1830
1872,1853,1825
1840,1764,1827
1811,1694,1828
1835,1789,1866
1855,1837,1856
1855,1856,1819
1830,1815,1863
1850,1827,1879
1861,1830,1875
1840,1821,1840
1845,1869,1841
1840,1809,1842
1837,1797,1840
1849,1785,1840
1860,1822,1839
1872,1821,1805
1837,1811,1863
1825,1825,1872
1840,1840,1872
1875,1871,1863
1883,1881,1833
1861,1901,1823
1832,1817,1802
1826,1774,1853
1856,1785,1874
1831,1773,1840
1822,1806,1826
1843,1846,1793
1842,1786,1845
1808,1809,1883
1840,1894,1883
1863,1840,1870
1878,1840,1841
1833,1812,1847
1830,1811,1858
1873,1840,1867
1880,1850,1843
1854,1808,1837
1840,1821,1851
1872,1840,1856
1883,1870,1858
1846,1823,1845
1844,1855,1845
1840,1851,1836
1861,1763,1783
1819,1830,1838
1799,1776,1879
1842,1847,1866
1876,1869,1829
1839,1779,1840
1819,1787,1856
1854,1793,1853
1865,1818,1849
1849,1825,1849
1859,1850,1853
1888,1856,1857
1888,1847,1833
1822,1790,1824
1824,1822,1843
1871,1845,1857
1911,1872,1850
1846,1841,1814
1819,1746,1792
1861,1889,1807
1824,1793,1872
1758,1757,1886
1790,1782,1857
1850,1845,1851
1883,1916,1839
1855,1799,1829
1809,1758,1858
1840,1778,1850
1866,1813,1840
1854,1827,1841
1856,1857,1840
1863,1847,1847
1895,1860,1827
1841,1757,1837
1802,1765,1847
1835,1808,1851
1902,1807,1781
1808,1840,1843
1787,1785,1878
1840,1830,1851
1822,1799,1841
1802,1807,1842
1825,1819,1844
1866,1849,1850
1871,1851,1841
1855,1849,1840
1860,1904,1850
1872,1823,1856
1865,1810,1846
1846,1827,1840
1840,1841,1841
1875,1936,1865
1905,1827,1769
1829,1633,1776
1777,1744,1891
1827,1823,1907
1872,1854,1873
1891,1843,1847
1803,1814,1863
1808,1813,1856
1846,1871,1852
1831,1802,1847
1818,1795,1850
1856,1853,1849
1857,1830,1840
1835,1813,1840
1841,1839,1849
1865,1859,1847
1872,1843,1841
1848,1851,1831
1837,1815,1847
1857,1841,1861
1865,1877,1853
1838,1774,1776
1808,1759,1871
1840,1854,1872
1876,1818,1853
1840,1805,1850
1871,1856,1791
1854,1805,1872
1797,1825,1903
1792,1835,1859
1830,1846,1842
1877,1930,1834
1879,1878,1843
1830,1758,1855
1827,1773,1863
1859,1819,1850
1866,1833,1854
1853,1840,1842
1872,1885,1844
1853,1810,1840
1840,1825,1843
1843,1821,1845
1811,1847,1839
1847,1807,1786
1845,1798,1865
1847,1827,1885
1846,1860,1883
1853,1875,1840
1830,1802,1853
1830,1779,1863
1829,1811,1856
1845,1840,1846
1859,1840,1840
1849,1840,1846
1855,1902,1851
1846,1817,1877
1887,1847,1788
1823,1765,1833
1806,1746,1861
1844,1812,1856
1857,1823,1846
1852,1831,1792
1823,1792,1806
1842,1858,1878
1834,1835,1874
1826,1822,1858
1843,1827,1856
1873,1865,1853
1897,1886,1847
1831,1833,1842
1817,1796,1847
1866,1862,1835
1851,1865,1839
1813,1815,1847
1858,1939,1840
1861,1840,1854
1836,1712,1853
1808,1733,1845
1811,1797,1808
1867,1790,1778
1849,1811,1866
1823,1833,1882
1841,1869,1868
1882,1854,1819
1885,1842,1856
1838,1841,1872
1836,1847,1857
1871,1834,1845
1895,1845,1845
1863,1835,1840
1836,1838,1853
1820,1849,1855
1834,1882,1854
1833,1862,1838
1841,1849,1846
1860,1809,1856
1861,1918,1843
1826,1731,1821
1825,1761,1830
1842,1759,1872
1866,1796,1855
1857,1802,1812
1845,1838,1792
1839,1872,1862
1850,1842,1867
1840,1851,1833
1836,1808,1831
1869,1810,1828
1872,1841,1864
1847,1851,1862
1835,1863,1853
1857,1825,1845
1900,1878,1854
1830,1803,1827
1831,1809,1830
1867,1884,1840
1871,1863,1829
1863,1819,1842
1818,1775,1831
1839,1831,1849
1858,1875,1849
1837,1853,1850
1837,1865,1827
1887,1835,1808
1855,1797,1863
1825,1803,1874
1840,1739,1856
1841,1775,1846
1835,1823,1843
1833,1863,1830
1851,1775,1807
1846,1802,1863
1854,1822,1871
1851,1856,1860
1840,1818,1836
1863,1872,1835
1872,1828,1851
1840,1782,1836
1840,1815,1862
1872,1876,1871
1902,1834,1847
1824,1829,1863
1815,1841,1818
1856,1850,1833
1872,1914,1875
1866,1921,1869
1835,1765,1840
1810,1759,1835
1835,1773,1871
1841,1838,1847
1867,1808,1847
1852,1821,1849
1853,1854,1852
1846,1882,1840
1840,1831,1797
1845,1773,1822
1847,1777,1840
1825,1814,1870
1843,1869,1877
1887,1888,1846
1874,1783,1786
1830,1811,1846
1808,1809,1874
1839,1833,1860
1859,1856,1854
1843,1855,1845
1861,1840,1841
1870,1825,1835
1872,1819,1842
1872,1849,1852
1823,1819,1850
1856,1840,1845
1872,1926,1845
1845,1809,1829
1829,1789,1801
1870,1831,1840
1883,1826,1859
1849,1844,1834
1828,1809,1803
1821,1778,1881
1850,1799,1869
1840,1805,1827
1840,1839,1862
1844,1830,1869
1872,1829,1856
1852,1839,1856
1825,1839,1841
1840,1794,1840
1856,1821,1851
1842,1861,1858
1875,1862,1863
1851,1841,1840
1846,1837,1829
1843,1806,1815
1840,1797,1830
1853,1840,1875
1886,1917,1827
1838,1809,1830
1811,1777,1872
1871,1826,1869
1875,1872,1855
1827,1840,1853
1825,1777,1833
1859,1833,1838
1866,1856,1847
1834,1792,1840
1833,1807,1849
1891,1898,1840
1903,1840,1807
1837,1776,1855
1815,1770,1854
1834,1868,1872
1853,1821,1857
1845,1810,1854
1837,1825,1856
1855,1858,1845
1883,1875,1808
1849,1872,1869
1845,1843,1884
1874,1840,1891
1877,1877,1853
1856,1860,1824
1843,1828,1850
1859,1785,1858
1889,1782,1833
1841,1825,1845
1817,1851,1860
1845,1851,1840
1863,1840,1838
1856,1830,1836
1854,1818,1845
1882,1821,1835
1895,1925,1843
1840,1811,1859
1854,1778,1842
1885,1829,1773
1856,1825,1871
1801,1780,1894
1803,1798,1863
1844,1831,1851
1882,1857,1856
1872,1883,1845
1839,1810,1840
1844,1842,1836
1838,1787,1841
1835,1792,1842
1840,1807,1844
1872,1840,1845
1879,1850,1846
1839,1843,1830
1833,1845,1840
1849,1800,1857
1859,1799,1847
1856,1840,1826
1902,1918,1808
1849,1783,1872
1825,1754,1872
1799,1786,1842
1827,1791,1830
1863,1851,1850
1861,1856,1855
1835,1888,1851
1836,1840,1839
1873,1825,1809
1859,1777,1821
1821,1825,1858
1838,1847,1872
1859,1831,1873
1877,1899,1840
1840,1821,1809
1822,1822,1845
1856,1818,1829
1866,1849,1828
1813,1730,1870
1809,1751,1871
1868,1872,1863
1890,1819,1856
1825,1759,1840
1815,1804,1839
1838,1824,1841
1871,1844,1850
1846,1853,1844
1834,1840,1856
1873,1872,1852
1873,1851,1851
1852,1801,1829
1815,1793,1840
1840,1834,1835
1857,1872,1813
1838,1838,1858
1831,1853,1847
1840,1867,1840
1843,1803,1867
1833,1751,1850
1854,1808,1856
1888,1911,1868
1863,1825,1854
1818,1739,1824
1832,1759,1834
1872,1815,1843
1876,1847,1840
1840,1868,1846
1817,1801,1840
1853,1809,1844
1872,1839,1847
1852,1829,1840
1862,1856,1840
1884,1852,1840
1903,1779,1810
1842,1856,1817
1811,1904,1855
1843,1871,1858
1852,1858,1859
1805,1729,1862
1800,1750,1858
1856,1830,1851
1899,1856,1863
1853,1861,1853
1825,1779,1843
1863,1797,1840
1872,1823,1856
1854,1840,1856
1855,1855,1847
1882,1879,1863
1887,1863,1847
1874,1833,1838
1845,1823,1832
1869,1786,1805
1895,1831,1798
1870,1839,1879
1815,1810,1898
1840,1830,1875
1861,1894,1850
1831,1792,1822
1808,1788,1872
1840,1827,1859
1847,1844,1835
1835,1840,1844
1840,1852,1845
1874,1814,1856
1872,1810,1857
1839,1872,1856
1839,1810,1856
1872,1838,1854
1871,1858,1864
1840,1863,1857
1840,1870,1852
1868,1807,1859
1869,1794,1821
1867,1877,1809
1825,1865,1874
1851,1794,1868
1838,1810,1862
1797,1815,1845
1819,1838,1854
1851,1856,1872
1867,1895,1873
1876,1847,1771
1827,1821,1823
1835,1803,1861
1856,1790,1872
1846,1801,1860
1840,1872,1845
1862,1864,1860
1862,1809,1858
1826,1775,1845
1853,1839,1802
1869,1846,1855
1858,1889,1877
1856,1841,1847
1824,1761,1845
1821,1799,1863
1841,1825,1851
1842,1840,1844
1840,1895,1855
1859,1893,1862
1856,1808,1842
1842,1776,1837
1839,1838,1856
1859,1840,1855
1855,1841,1845
1856,1840,1843
1855,1853,1865
1855,1911,1841
1841,1856,1841
1830,1830,1837
1840,1863,1819
1846,1819,1831
1856,1808,1858
1854,1846,1829
1836,1773,1804
1873,1771,1808
1840,1771,1899
1808,1796,1881
1824,1825,1861
1869,1823,1833
1874,1877,1851
1849,1847,1854
1842,1830,1852
1866,1850,1850
1879,1856,1838
1873,1841,1836
1840,1851,1844
1863,1904,1854
1890,1861,1847
1842,1854,1848
1827,1840,1856
1842,1831,1872
1865,1836,1860
1840,1764,1813
1826,1763,1826
1845,1844,1860
1869,1872,1851
1840,1824,1802
1830,1795,1851
1856,1831,1888
1862,1792,1871
1861,1787,1845
1841,1815,1840
1869,1839,1853
1856,1862,1859
1840,1860,1867
1846,1867,1862
1914,1903,1855
1887,1837,1783
1802,1808,1856
1779,1802,1879
1840,1858,1872
1894,1917,1819
1843,1759,1818
1807,1770,1869
1829,1856,1863
1855,1793,1860
1853,1811,1846
1842,1859,1862
1850,1822,1854
1859,1828,1872
1845,1825,1841
1846,1833,1827
1873,1862,1818
1876,1863,1838
1851,1856,1859
1840,1840,1862
1861,1850,1855
1883,1907,1842
1851,1803,1840
1823,1801,1830
1867,1821,1776
1825,1870,1861
1811,1792,1839
1808,1767,1861
1836,1780,1867
1857,1827,1863
1840,1843,1856
1834,1860,1847
1868,1872,1838
1873,1882,1847
1842,1871,1843
1840,1819,1845
1862,1814,1842
1872,1843,1845
1863,1858,1840
1859,1865,1831
1833,1782,1850
1829,1791,1853
1827,1812,1843
1835,1837,1853
1845,1853,1851
1855,1897,1860
1831,1827,1840
1830,1797,1850
1872,1919,1878
1867,1846,1856
1837,1795,1840
1843,1867,1856
1881,1875,1824
1867,1738,1774
1815,1771,1867
1805,1826,1920
1853,1873,1872
1874,1856,1831
1867,1782,1827
1845,1807,1843
1835,1837,1855
1846,1844,1850
1831,1815,1848
1823,1830,1841
1856,1851,1845
1871,1856,1851
1840,1852,1849
1838,1845,1852
1873,1856,1854
1883,1856,1846
1859,1906,1840
1865,1885,1834
1857,1787,1854
1861,1806,1839
1837,1749,1813
1862,1828,1787
1822,1808,1883
1834,1814,1894
1792,1734,1861
1811,1762,1851
1863,1805,1871
1846,1830,1863
1827,1840,1843
1851,1850,1845
1874,1858,1856
1867,1861,1853
1841,1866,1854
1841,1866,1843
1863,1835,1847
1872,1839,1854
1854,1841,1851
1840,1888,1854
1879,1876,1856
1853,1863,1850
1807,1749,1843
1818,1753,1837
1872,1806,1840
1868,1861,1861
1831,1856,1853
1840,1894,1851
1874,1849,1808
1854,1840,1847
1845,1872,1850
1840,1905,1859
1856,1823,1870
1835,1734,1867
1813,1783,1854
1856,1830,1840
1852,1817,1860
1878,1840,1850
1825,1750,1827
1791,1760,1872
1829,1857,1872
1863,1840,1841
1839,1791,1840
1831,1808,1857
1863,1840,1861
1871,1854,1860
1854,1841,1851
1856,1872,1857
1860,1832,1808
1849,1831,1850
1839,1817,1866
1840,1827,1862
1895,1929,1847
1865,1806,1830
1776,1761,1837
1783,1759,1851
1840,1791,1871
1872,1857,1847
1889,1886,1840
1831,1785,1831
1810,1760,1877
1835,1821,1875
1840,1808,1856
1840,1818,1855
1862,1815,1853
1877,1813,1844
1851,1827,1843
1851,1846,1853
1871,1859,1857
1910,1872,1833
1857,1858,1805
1789,1765,1836
1814,1813,1872
1861,1781,1870
1817,1774,1847
1823,1833,1830
1818,1812,1841
1830,1791,1840
1818,1835,1849
1838,1861,1861
1863,1875,1859
1875,1877,1855
1866,1890,1845
1834,1813,1843
1844,1813,1843
1862,1882,1847
1872,1950,1838
1815,1783,1841
1831,1739,1810
1842,1786,1840
1819,1806,1875
1813,1781,1863
1840,1807,1845
1870,1843,1840
1840,1814,1833
1865,1754,1779
1853,1877,1882
1838,1863,1896
1838,1850,1872
1845,1861,1872
1902,1866,1852
1890,1874,1840
1842,1883,1828
1837,1869,1839
1847,1867,1857
1852,1824,1840
1847,1795,1824
1854,1862,1845
1868,1829,1799
1863,1815,1842
1840,1831,1872
1822,1868,1851
1841,1840,1850
1863,1872,1837
1825,1714,1820
1819,1747,1842
1860,1802,1850
1869,1833,1842
1842,1837,1821
1855,1821,1819
1859,1869,1853
1882,1875,1858
1849,1857,1851
1823,1874,1845
1877,1911,1851
1872,1778,1846
1846,1840,1853
1813,1779,1855
1835,1776,1847
1842,1851,1846
1839,1801,1794
1843,1751,1817
1858,1812,1882
1862,1837,1877
1825,1749,1851
1815,1779,1835
1847,1843,1859
1870,1857,1872
1851,1879,1837
1851,1821,1867
1857,1839,1851
1861,1789,1834
1847,1856,1840
1826,1807,1858
1851,1849,1867
1861,1845,1865
1861,1841,1845
1842,1782,1802
1858,1803,1834
1859,1840,1861
1833,1872,1823
1840,1760,1843
1823,1770,1889
1840,1808,1819
1837,1822,1846
1819,1840,1872
1839,1814,1856
1859,1834,1840
1851,1817,1829
1859,1872,1837
1857,1855,1842
1843,1812,1861
1830,1881,1849
1825,1834,1863
1851,1806,1850
1866,1824,1807
1849,1888,1841
1849,1875,1840
1844,1810,1834
1821,1708,1862
1814,1769,1865
1808,1788,1846
1843,1829,1850
1873,1853,1856
1851,1840,1855
1840,1840,1855
1872,1866,1862
1875,1872,1847
1859,1865,1847
1856,1883,1840
1875,1853,1807
1862,1822,1850
1835,1861,1867
1847,1863,1869
1893,1844,1845
1846,1805,1808
1802,1811,1829
1819,1919,1859
1856,1857,1857
1865,1734,1856
1823,1751,1854
1837,1821,1858
1851,1839,1850
1858,1837,1859
1843,1818,1845
1854,1830,1853
1879,1861,1858
1882,1870,1854
1859,1856,1837
1855,1896,1843
1872,1835,1840
1879,1840,1847
1855,1865,1847
1876,1883,1805
1840,1771,1771
1823,1778,1840
1799,1843,1901
1828,1905,1884
1879,1840,1862
1884,1841,1852
1838,1855,1845
1826,1821,1855
1877,1845,1849
1898,1835,1843
1856,1847,1843
1829,1840,1839
1850,1860,1847
1877,1854,1842
1863,1889,1851
1849,1999,1861
1857,1821,1824
1870,1696,1798
1794,1731,1856
1799,1814,1875
1859,1840,1855
1859,1872,1842
1814,1882,1836
1815,1786,1839
1856,1777,1833
1869,1831,1849
1849,1856,1856
1849,1871,1845
1872,1872,1843
1878,1845,1840
1861,1872,1835
1856,1868,1820
1867,1838,1872
1854,1871,1872
1831,1891,1867
1813,1831,1840
1836,1827,1840
1885,1906,1850
1863,1853,1760
1795,1740,1823
1808,1789,1877
1843,1863,1866
1838,1844,1843
1830,1840,1847
1843,1867,1846
1866,1895,1835
1838,1807,1859
1811,1769,1845
1851,1808,1840
1887,1823,1835
1840,1855,1858
1830,1872,1859
1870,1968,1858
1883,1828,1845
1845,1775,1839
1808,1826,1840
1837,1841,1826
1874,1840,1836
1840,1904,1873
1818,1805,1823
1847,1805,1819
1840,1829,1872
1829,1813,1856
1840,1920,1863
1849,1863,1859
1840,1839,1858
1830,1841,1840
1843,1844,1840
1872,1875,1834
1871,1811,1849
1861,1843,1849
1854,1840,1844
1840,1840,1839
1889,1855,1810
1874,1821,1844
1782,1741,1845
1792,1767,1849
1835,1813,1842
1844,1854,1810
1841,1797,1826
1847,1846,1855
1840,1840,1865
1830,1828,1845
1843,1839,1840
1881,1872,1847
1868,1882,1849
1856,1884,1805
1872,1851,1829
1853,1837,1863
1840,1837,1853
1834,1845,1829
1812,1789,1842
1837,1790,1843
1854,1840,1840
1839,1839,1840
1873,1829,1830
1851,1805,1845
1833,1893,1859
1844,1919,1778
1811,1808,1841
1831,1738,1851
1857,1797,1856
1845,1836,1852
1850,1872,1841
1904,1905,1853
1852,1814,1845
1809,1808,1850
1822,1831,1856
1859,1851,1847
1879,1890,1855
1840,1859,1841
1814,1868,1818
1854,1779,1801
1860,1791,1851
1856,1845,1862
1874,1890,1790
1856,1813,1845
1813,1755,1879
1804,1818,1888
1824,1855,1872
1872,1888,1858
1872,1865,1853
1856,1840,1849
1842,1855,1885
1863,1904,1856
1876,1861,1847
1871,1853,1838
1846,1935,1840
1872,1920,1840
1834,1735,1840
1835,1723,1793
1813,1748,1857
1857,1811,1873
1875,1873,1872
1857,1840,1859
1843,1817,1841
1856,1840,1853
1860,1850,1859
1847,1851,1854
1843,1862,1853
1879,1865,1850
1894,1887,1827
1888,1937,1794
1841,1819,1857
1822,1791,1891
1839,1804,1863
1822,1823,1856
1811,1844,1865
1842,1808,1842
1889,1887,1815
1833,1782,1829
1808,1758,1868
1844,1854,1879
1872,1844,1862
1867,1813,1840
1834,1788,1842
1847,1840,1861
1865,1865,1866
1847,1826,1843
1869,1811,1833
1865,1828,1835
1833,1932,1867
1841,1863,1863
1856,1847,1834
1871,1841,1803
1837,1728,1855
1787,1753,1875
1808,1800,1840
1877,1812,1839
1867,1870,1907
1826,1822,1877
1819,1824,1853
1862,1838,1855
1871,1863,1854
1843,1854,1843
1840,1835,1841
1883,1898,1840
1899,1836,1839
1826,1807,1834
1822,1861,1825
1855,1868,1857
1875,1872,1877
1831,1867,1844
1814,1809,1829
1847,1791,1856
1872,1763,1840
1842,1797,1798
1827,1793,1829
1824,1788,1890
1842,1835,1897
1838,1836,1863
1830,1821,1849
1856,1851,1840
1865,1842,1840
1855,1839,1835
1837,1877,1845
1846,1825,1837
1894,1847,1837
1856,1859,1856
1809,1847,1856
1838,1839,1856
1885,1883,1846
1835,1894,1835
1827,1831,1845
1849,1761,1841
1887,1783,1793
1834,1856,1842
1818,1825,1883
1868,1813,1850
1838,1750,1844
1808,1763,1846
1840,1802,1850
1863,1841,1856
1842,1845,1858
1827,1841,1836
1840,1840,1826
1877,1843,1839
1886,1849,1836
1823,1856,1854
1814,1842,1866
1850,1829,1858
1868,1830,1853
1865,1856,1841
1841,1838,1850
1862,1846,1851
1868,1821,1838
1879,1837,1783
1841,1860,1872
1845,1876,1898
1837,1776,1857
1840,1771,1839
1831,1802,1846
1859,1839,1855
1901,1904,1835
1878,1856,1837
1859,1822,1855
1870,1812,1849
1859,1805,1867
1845,1833,1863
1850,1846,1829
1854,1776,1839
1872,1808,1852
1859,1844,1862
1872,1810,1821
1883,1842,1820
1876,1837,1870
1853,1838,1865
1855,1839,1849
1881,1871,1840
1872,1840,1843
1862,1842,1850
1860,1854,1846
1872,1871,1839
1869,1808,1847
1868,1806,1831
1861,1789,1827
1876,1857,1855
1893,1870,1828
1853,1776,1856
1840,1787,1863
1869,1822,1859
1887,1817,1857
1860,1813,1841
1853,1820,1798
1875,1827,1829
1888,1808,1857
1855,1858,1871
1841,1831,1855
1873,1871,1850
1875,1803,1840
1831,1805,1840
1830,1823,1840
1879,1845,1845
1890,1843,1826
1864,1925,1834
1834,1837,1852
1856,1793,1862
1882,1845,1851
1862,1831,1838
1853,1859,1835
1869,1812,1815
1865,1765,1815
1840,1807,1871
1843,1855,1873
1904,1870,1863
1859,1819,1829
1827,1803,1829
1837,1819,1841
1880,1830,1855
1897,1894,1856
1853,1844,1839
1860,1872,1827
1872,1840,1841
1891,1791,1809
1865,1793,1856
1841,1815,1869
1855,1824,1846
1898,1851,1849
1867,1898,1857
1858,1926,1839
1858,1762,1814
1866,1744,1830
1846,1815,1872
1857,1792,1859
1851,1845,1849
1847,1785,1837
1842,1782,1840
1867,1822,1856
1871,1848,1855
1872,1817,1834
1854,1860,1841
1839,1878,1841
1865,1824,1851
1887,1819,1830
1829,1825,1840
1815,1796,1838
1866,1840,1853
1882,1903,1870
1888,1808,1758
1824,1776,1846
1811,1813,1899
1847,1845,1883
1851,1879,1861
1850,1822,1851
1898,1922,1856
1856,1774,1847
1808,1744,1856
1815,1797,1850
1869,1829,1843
1882,1861,1854
1858,1888,1847
1846,1851,1879
1862,1859,1876
1843,1802,1851
1827,1796,1830
1843,1810,1803
1847,1840,1833
1851,1866,1825
1830,1807,1858
1832,1844,1883
1860,1824,1879
1877,1835,1861
1837,1841,1837
1827,1874,1849
1840,1827,1859
1856,1831,1869
1840,1853,1840
1845,1843,1827
1878,1869,1825
1885,1828,1857
1831,1762,1869
1790,1808,1851
1837,1866,1867
1859,1866,1863
1858,1859,1830
1831,1765,1841
1838,1776,1845
1865,1804,1811
1834,1822,1863
1821,1883,1885
1843,1819,1873
1850,1814,1858
1852,1856,1838
