1851,1857,1889
1890,1871,1843
1879,1983,1835
1872,1796,1862
1840,1762,1858
1817,1776,1854
1803,1795,1842
1846,1921,1837
1872,1803,1856
1867,1824,1856
1839,1812,1854
1840,1812,1854
1888,1891,1840
1872,1805,1845
1840,1801,1851
1853,1838,1862
1898,1819,1828
1877,1837,1824
1833,1848,1871
1858,1842,1858
1872,1829,1865
1872,1817,1802
1822,1882,1860
1840,1857,1879
1878,1838,1872
1863,1850,1835
1808,1831,1861
1818,1783,1856
1859,1803,1840
1871,1781,1838
1872,1837,1844
1851,1845,1846
1861,1819,1856
1873,1825,1853
1857,1827,1853
1872,1905,1829
1895,1806,1818
1869,1762,1887
1840,1837,1873
1831,1837,1857
1875,1824,1839
1865,1840,1854
1839,1807,1853
1849,1821,1865
1872,1857,1869
1863,1872,1857
1871,1896,1858
1895,1840,1840
1880,1898,1845
1843,1782,1856
1839,1798,1795
1830,1775,1843
1874,1834,1885
1873,1846,1861
1850,1797,1829
1871,1798,1797
1884,1821,1856
1865,1839,1874
1853,1858,1866
1888,1866,1831
1893,1910,1850
1859,1861,1867
1809,1785,1865
1840,1746,1854
1873,1819,1859
1867,1840,1850
1838,1828,1840
1851,1858,1853
1874,1886,1859
1878,1861,1859
1841,1785,1856
1829,1813,1835
1858,1830,1838
1856,1803,1856
1841,1812,1856
1872,1840,1853
1895,1853,1840
1895,1846,1818
1840,1886,1862
1856,1819,1851
1885,1810,1830
1871,1827,1882
1826,1781,1876
1835,1777,1839
1886,1855,1842
1897,1841,1840
1859,1803,1849
1843,1892,1853
1858,1857,1843
1868,1808,1852
1873,1847,1839
1862,1794,1851
1856,1791,1841
1859,1872,1839
1858,1837,1818
1877,1788,1799
1879,1808,1858
1877,1808,1873
1840,1812,1862
1849,1826,1843
1871,1935,1792
1867,1847,1872
1820,1777,1856
1809,1761,1840
1865,1766,1840
1862,1807,1865
1837,1782,1857
1837,1806,1866
1862,1847,1859
1872,1838,1853
1856,1829,1840
1863,1838,1845
1882,1846,1854
1878,1847,1857
1865,1872,1842
1887,1845,1812
1875,1878,1854
1844,1717,1837
1796,1766,1843
1846,1921,1851
1855,1842,1863
1854,1871,1853
1819,1806,1818
1843,1703,1840
1872,1760,1865
1840,1823,1889
1805,1775,1855
1827,1789,1846
1872,1821,1866
1879,1834,1859
1849,1844,1842
1858,1860,1837
1872,1851,1841
1867,1850,1840
1865,1846,1802
1864,1870,1845
1904,1872,1839
1851,1761,1826
1794,1815,1854
1808,1815,1859
1866,1851,1854
1882,1847,1833
1846,1834,1847
1850,1847,1851
1877,1803,1840
1867,1799,1843
1849,1823,1852
1892,1855,1833
1884,1839,1831
1872,1791,1821
1841,1827,1851
1829,1837,1860
1859,1831,1858
1867,1866,1841
1853,1866,1805
1881,1746,1774
1856,1791,1872
1857,1857,1869
1823,1823,1835
1845,1807,1837
1870,1885,1860
1874,1834,1856
1866,1823,1859
1862,1857,1845
1862,1826,1839
1854,1806,1827
1854,1811,1840
1869,1852,1854
1897,1923,1843
1873,1839,1835
1840,1776,1842
1846,1828,1846
1906,1838,1773
1893,1776,1808
1789,1771,1887
1798,1797,1883
1847,1837,1854
1893,1904,1799
1851,1830,1845
1838,1818,1856
1859,1834,1842
1871,1833,1841
1851,1869,1850
1857,1887,1844
1868,1809,1849
1874,1911,1828
1863,1814,1858
1845,1750,1840
1875,1797,1840
1861,1840,1840
1840,1847,1827
1872,1797,1808
1885,1787,1838
1850,1819,1867
1821,1861,1859
1842,1851,1869
1883,1858,1872
1888,1933,1839
1872,1846,1772
1856,1792,1851
1847,1794,1872
1858,1817,1858
1851,1898,1844
1831,1774,1836
1847,1789,1845
1869,1796,1841
1847,1825,1840
1862,1875,1832
1867,1849,1838
1863,1855,1861
1852,1834,1851
1878,1810,1786
1918,1840,1855
1856,1852,1876
1839,1798,1840
1833,1934,1839
1844,1824,1835
1846,1783,1840
1830,1821,1840
1857,1970,1846
1882,1790,1865
1866,1781,1854
1839,1795,1838
1843,1819,1845
1873,1828,1847
1890,1839,1855
1856,1838,1834
1838,1815,1856
1872,1835,1863
1877,1844,1856
1840,1843,1845
1869,1879,1847
1905,1886,1807
1855,1771,1799
1788,1810,1883
1809,1826,1898
1863,1837,1879
1862,1841,1844
1855,1769,1807
1845,1849,1852
1861,1857,1891
1876,1916,1877
1859,1878,1855
1843,1899,1830
1857,1790,1868
1833,1741,1863
1807,1734,1839
1866,1792,1840
1889,1812,1850
1832,1838,1856
1821,1845,1845
1862,1927,1830
1891,1805,1832
1883,1766,1827
1840,1814,1883
1856,1850,1875
1879,1863,1860
1882,1872,1855
1856,1868,1851
1875,1804,1827
1875,1811,1819
1861,1873,1840
1849,1933,1879
1846,1936,1845
1815,1666,1858
1827,1694,1859
1839,1759,1839
1841,1813,1841
1863,1847,1870
1883,1856,1855
1841,1841,1847
1840,1850,1827
1856,1805,1781
1840,1839,1850
1834,1804,1859
1846,1791,1840
1865,1843,1854
1872,1863,1861
1856,1858,1858
1845,1861,1849
1863,1859,1850
1872,1827,1846
1845,1846,1854
1878,1933,1838
1867,1867,1831
1837,1719,1868
1822,1781,1870
1855,1861,1807
1856,1735,1840
1834,1775,1868
1819,1775,1870
1861,1845,1838
1901,1791,1806
1840,1808,1862
1817,1815,1857
1854,1805,1831
1872,1863,1840
1849,1869,1861
1834,1849,1850
1854,1845,1847
1882,1870,1852
1888,1904,1851
1856,1881,1840
1855,1822,1838
1867,1814,1839
1878,1840,1841
1854,1887,1819
1823,1785,1872
1827,1798,1865
1872,1886,1793
1836,1696,1817
1809,1739,1878
1862,1808,1847
1871,1789,1793
1845,1830,1840
1853,1867,1866
1872,1885,1862
1847,1853,1844
1829,1847,1840
1855,1851,1844
1883,1890,1831
1872,1825,1844
1847,1855,1844
1853,1920,1846
1856,1844,1858
1855,1767,1839
1822,1802,1825
1838,1827,1819
1865,1826,1837
1855,1810,1807
1842,1821,1867
1844,1830,1875
1865,1843,1863
1872,1904,1822
1830,1838,1849
1821,1845,1894
1850,1813,1859
1855,1835,1834
1855,1843,1818
1856,1840,1823
1855,1859,1870
1855,1865,1861
1857,1915,1853
1863,1845,1852
1873,1859,1849
1889,1895,1850
1867,1839,1841
1864,1862,1833
1850,1780,1839
1851,1782,1851
1865,1827,1840
1915,1829,1781
1855,1807,1851
1819,1934,1863
1835,1867,1866
1833,1847,1863
1830,1845,1862
1827,1794,1869
1820,1807,1843
1849,1885,1837
1884,1849,1840
1865,1839,1843
1840,1845,1853
1859,1887,1860
1879,1875,1851
1875,1867,1837
1867,1881,1808
1891,1893,1846
1872,1775,1828
1840,1779,1808
1809,1819,1853
1827,1827,1872
1856,1884,1870
1863,1868,1857
1869,1935,1838
1857,1869,1858
1825,1840,1857
1834,1795,1836
1831,1775,1834
1862,1835,1835
1882,1851,1866
1882,1840,1841
1870,1824,1822
1850,1860,1840
1857,1850,1849
1858,1905,1841
1843,1862,1846
1856,1893,1840
1884,1731,1802
1872,1734,1836
1840,1783,1829
1841,1834,1835
1822,1861,1870
1813,1842,1869
1838,1873,1855
1831,1815,1847
1850,1851,1855
1856,1808,1844
1849,1822,1856
1856,1846,1859
1891,1891,1844
1879,1845,1827
1857,1843,1845
1872,1871,1851
1887,1939,1844
1869,1808,1834
1845,1809,1838
1871,1857,1794
1909,1795,1823
1840,1775,1857
1786,1771,1873
1827,1826,1848
1883,1861,1847
1878,1889,1840
1875,1820,1823
1846,1850,1838
1840,1827,1834
1859,1877,1840
1841,1833,1853
1854,1842,1855
1873,1857,1843
1871,1872,1836
1857,1883,1826
1856,1836,1830
1881,1904,1820
1866,1831,1833
1863,1802,1833
1869,1955,1825
1856,1763,1845
1817,1667,1854
1819,1725,1847
1839,1795,1840
1845,1840,1843
1858,1852,1846
1863,1861,1847
1874,1835,1819
1877,1869,1840
1856,1904,1857
1833,1840,1858
1872,1840,1854
1889,1861,1831
1850,1839,1815
1820,1834,1842
1820,1853,1851
1858,1805,1850
1879,1803,1808
1857,1850,1832
1840,1879,1867
1870,1883,1858
1879,1773,1840
1840,1823,1871
1856,1856,1863
1879,1871,1833
1846,1794,1826
1808,1715,1813
1830,1799,1850
1842,1856,1856
1843,1845,1849
1841,1840,1839
1875,1860,1847
1884,1909,1849
1865,1846,1825
1851,1776,1825
1842,1808,1851
1872,1840,1846
1861,1837,1842
1857,1833,1822
1874,1920,1794
1879,1871,1841
1845,1811,1851
1827,1794,1845
1824,1797,1847
1827,1794,1865
1845,1833,1876
1829,1822,1850
1842,1808,1843
1872,1830,1843
1868,1883,1839
1872,1834,1835
1904,1869,1834
1839,1811,1846
1715,1807,1877
1744,1790,1841
1838,1841,1842
1885,1840,1843
1879,1859,1831
1871,1776,1793
1845,1818,1872
1854,1853,1882
1861,1815,1829
1866,1959,1808
1836,1767,1845
1857,1805,1870
1858,1760,1860
1849,1814,1854
1872,1879,1841
1881,1788,1851
1866,1799,1853
1851,1811,1841
1850,1851,1856
1902,1856,1858
1829,1794,1855
1806,1800,1849
1831,1808,1846
1877,1835,1854
1875,1865,1823
1863,1858,1811
1838,1826,1868
1875,1847,1860
1873,1837,1831
1817,1782,1845
1842,1904,1840
1854,1774,1865
1845,1743,1861
1843,1760,1841
1857,1857,1856
1886,1907,1851
1869,1795,1838
1835,1782,1839
1853,1782,1859
1873,1823,1853
1874,1871,1840
1856,1821,1837
1872,1808,1823
1899,1843,1827
1851,1806,1767
1793,1815,1883
1808,1843,1894
1871,1793,1831
1849,1822,1838
1833,1845,1856
1842,1889,1849
1874,1855,1853
1870,1826,1845
1840,1840,1840
1856,1815,1842
1881,1820,1840
1872,1821,1839
1833,1870,1813
1823,1789,1830
1881,1872,1869
1884,1728,1844
1819,1712,1843
1841,1789,1818
1865,1796,1830
1857,1808,1879
1840,1805,1887
1846,1829,1847
1887,1861,1847
1852,1838,1841
1808,1798,1847
1855,1854,1853
1887,1808,1834
1855,1807,1828
1835,1849,1863
1840,1901,1863
1856,1833,1862
1842,1751,1845
1838,1788,1845
1839,1904,1825
1865,1840,1840
1861,1809,1850
1839,1801,1844
1855,1815,1793
1892,1853,1808
1847,1749,1856
1823,1823,1922
1846,1833,1874
1850,1776,1838
1858,1792,1841
1847,1833,1863
1863,1790,1851
1851,1803,1841
1845,1830,1840
1845,1829,1840
1858,1840,1843
1902,1830,1835
1872,1902,1839
1813,1799,1847
1849,1792,1806
1902,1798,1804
1840,1838,1890
1813,1823,1874
1843,1776,1873
1856,1830,1833
1853,1819,1863
1843,1778,1872
1869,1808,1855
1870,1849,1869
1850,1865,1847
1845,1830,1833
1850,1809,1835
1874,1893,1854
1874,1867,1861
1858,1830,1847
1840,1817,1850
1874,1849,1861
1887,1847,1827
1807,1797,1776
1792,1763,1853
1841,1806,1872
1869,1717,1822
1840,1730,1839
1821,1830,1904
1856,1858,1892
1873,1841,1867
1850,1847,1867
1854,1872,1862
1885,1901,1843
1900,1840,1859
1867,1812,1868
1840,1831,1839
1840,1926,1835
1839,1826,1845
1840,1776,1841
1855,1805,1840
1872,1776,1809
1850,1796,1851
1826,1824,1870
1846,1838,1871
1859,1763,1850
1862,1775,1840
1843,1807,1836
1859,1813,1829
1867,1865,1845
1861,1793,1849
1854,1808,1860
1847,1872,1887
1881,1921,1850
1877,1828,1839
1837,1791,1852
1840,1808,1856
1845,1901,1840
1856,1808,1796
1851,1723,1831
1850,1870,1863
1831,1792,1858
1831,1822,1850
1854,1771,1831
1846,1792,1839
1861,1891,1882
1845,1847,1832
1831,1770,1802
1847,1802,1843
1868,1834,1872
1872,1853,1865
1872,1853,1847
1875,1849,1847
1882,1903,1872
1891,1907,1836
1821,1791,1823
1808,1735,1853
1858,1805,1847
1866,1839,1799
1849,1788,1791
1832,1830,1887
1875,1885,1888
1858,1747,1851
1829,1738,1815
1826,1838,1856
1871,1887,1849
1845,1827,1850
1852,1816,1853
1854,1881,1838
1850,1822,1853
1843,1845,1856
1840,1862,1834
1850,1805,1840
1871,1791,1870
1875,1808,1871
1861,1825,1861
1891,1860,1834
1899,1829,1840
1872,1971,1863
1789,1776,1845
1797,1819,1837
1849,1742,1830
1858,1737,1839
1825,1802,1874
1857,1838,1878
1856,1867,1867
1835,1856,1856
1840,1857,1841
1861,1862,1844
1874,1861,1844
1882,1857,1852
1856,1850,1845
1862,1865,1843
1898,1874,1841
1903,1885,1841
1858,1809,1808
1842,1828,1872
1815,1867,1886
1840,1808,1856
1830,1683,1810
1837,1717,1845
1854,1791,1865
1856,1867,1842
1831,1879,1823
1839,1790,1849
1873,1799,1870
1866,1808,1859
1851,1825,1850
1863,1846,1849
1887,1865,1862
1891,1862,1847
1879,1834,1835
1840,1833,1808
1843,1831,1827
1872,1854,1829
1847,1845,1861
1848,1872,1882
1875,1857,1890
1818,1766,1858
1810,1722,1817
1840,1797,1838
1845,1821,1854
1838,1862,1855
1840,1840,1850
1851,1829,1851
1867,1845,1847
1865,1850,1840
1855,1883,1840
1858,1874,1839
1881,1814,1829
1874,1837,1840
1855,1802,1827
1885,1727,1801
1868,1831,1872
1840,1855,1869
1827,1795,1836
1858,1826,1791
1855,1848,1859
1824,1807,1918
1825,1747,1852
1827,1802,1838
1873,1853,1850
1877,1843,1838
1870,1843,1847
1865,1865,1840
1861,1808,1844
1867,1823,1849
1870,1819,1839
1849,1851,1840
1855,1854,1847
1863,1906,1840
1858,1823,1782
1858,1819,1808
1890,1831,1846
1846,1755,1825
1775,1742,1862
1795,1831,1872
1847,1847,1879
1853,1824,1840
1850,1818,1854
1857,1885,1843
1890,1897,1839
1889,1843,1846
1840,1840,1840
1851,1856,1844
1898,1820,1814
1878,1865,1850
1825,1839,1867
1813,1829,1858
1866,1817,1858
1885,1836,1823
1851,1856,1845
1849,1909,1874
1856,1853,1849
1872,1808,1810
1851,1733,1846
1855,1765,1859
1872,1829,1861
1863,1840,1851
1843,1862,1854
1867,1927,1853
1877,1901,1897
1860,1802,1854
1840,1798,1830
1852,1840,1843
1906,1872,1851
1889,1909,1825
1852,1801,1840
1834,1776,1860
1872,1766,1808
1867,1844,1825
1839,1843,1819
1809,1874,1882
1830,1741,1883
1839,1743,1855
1840,1797,1836
1878,1857,1835
1895,1839,1827
1859,1837,1856
1834,1814,1853
1840,1841,1856
1875,1863,1859
1895,1867,1856
1855,1872,1872
1869,1879,1830
1872,1827,1841
1878,1809,1846
1879,1840,1842
1842,1826,1851
1857,1857,1847
1898,1840,1765
1874,1916,1850
1836,1840,1891
1837,1773,1878
1839,1803,1867
1858,1846,1792
1842,1813,1831
1860,1747,1867
1869,1775,1858
1856,1793,1827
1849,1833,1845
1856,1839,1862
1845,1831,1857
1842,1835,1851
1863,1824,1854
1883,1878,1865
1876,1842,1867
1840,1861,1837
1854,1808,1823
1872,1830,1800
1853,1905,1862
1825,1786,1873
1859,1843,1865
1899,1827,1859
1857,1861,1851
1816,1765,1840
1793,1712,1849
1842,1776,1849
1874,1827,1819
1850,1783,1838
1882,1805,1825
1875,1855,1874
1851,1883,1882
1853,1830,1857
1856,1851,1842
1890,1890,1840
1872,1821,1855
1856,1815,1859
1853,1840,1851
1895,1853,1803
1878,1858,1843
1856,1858,1874
1859,1837,1881
1872,1906,1851
1876,1920,1819
1834,1743,1855
1820,1744,1857
1828,1760,1855
1844,1785,1835
1850,1798,1836
1870,1808,1840
1879,1861,1866
1872,1874,1857
1857,1855,1857
1867,1843,1840
1899,1856,1851
1886,1870,1851
1873,1876,1817
1894,1837,1829
1902,1930,1763
1862,1773,1805
1793,1746,1893
1811,1792,1891
1885,1840,1863
1878,1885,1847
1855,1904,1851
1838,1781,1840
1840,1840,1843
1842,1799,1823
1822,1797,1843
1840,1802,1855
1871,1829,1845
1871,1841,1840
1865,1840,1841
1857,1847,1873
1891,1872,1858
1897,1846,1840
1877,1872,1838
1877,1879,1808
1886,1808,1828
1845,1885,1845
1845,1771,1863
1859,1761,1887
1865,1826,1840
1840,1840,1823
1830,1921,1850
1831,1808,1872
1865,1789,1850
1878,1839,1846
1863,1847,1826
1853,1833,1830
1870,1805,1850
1856,1879,1867
1826,1801,1867
1837,1799,1855
1867,1830,1856
1872,1878,1845
1841,1831,1838
1851,1827,1857
1902,1841,1794
1897,1878,1813
1813,1763,1874
1810,1787,1872
1883,1845,1857
1861,1794,1847
1823,1853,1834
1835,1856,1841
1882,1890,1857
1886,1814,1818
1871,1849,1839
1830,1776,1837
1827,1825,1840
1839,1869,1853
1837,1859,1852
1840,1851,1853
1871,1888,1851
1890,1903,1833
1885,1952,1774
1825,1814,1839
1792,1675,1883
1808,1713,1857
1821,1787,1846
1844,1835,1840
1877,1856,1840
1871,1849,1841
1839,1871,1863
1871,1901,1855
1894,1894,1829
1867,1855,1831
1833,1794,1851
1841,1805,1861
1852,1869,1861
1855,1831,1831
1868,1799,1783
1859,1851,1815
1872,1901,1789
1837,1820,1867
1807,1808,1887
1835,1854,1867
1869,1806,1854
1863,1801,1828
1845,1814,1824
1827,1807,1858
1841,1825,1863
1850,1851,1837
1837,1804,1830
1858,1834,1843
1873,1873,1857
1863,1874,1871
1854,1838,1836
1853,1840,1815
1887,1835,1857
1854,1819,1849
1851,1760,1777
1813,1840,1861
1847,1846,1866
1861,1820,1863
1833,1805,1870
1839,1840,1858
1872,1870,1856
1895,1919,1854
1840,1802,1820
1831,1762,1849
1871,1849,1843
1898,1910,1851
1870,1787,1862
1841,1770,1851
1877,1883,1850
1872,1856,1855
1837,1775,1829
1860,1805,1795
1845,1830,1855
1857,1913,1847
1837,1854,1857
1818,1767,1875
1850,1792,1876
1853,1823,1866
1846,1839,1856
1856,1820,1843
1877,1841,1850
1869,1851,1855
1850,1834,1785
1840,1803,1859
1856,1926,1872
1845,1789,1867
1840,1798,1854
1867,1826,1845
1889,1839,1843
1862,1889,1866
1836,1845,1834
1856,1728,1799
1856,1794,1876
1866,1870,1872
1856,1869,1861
1872,1838,1829
1826,1743,1869
1818,1757,1872
1813,1788,1849
1847,1822,1840
1861,1839,1862
1868,1814,1855
1843,1823,1847
1856,1843,1853
1873,1847,1863
1874,1853,1846
1871,1817,1870
1882,1861,1845
1882,1811,1793
1845,1889,1846
1835,1744,1867
1830,1770,1893
1873,1887,1883
1875,1855,1856
1846,1782,1845
1811,1745,1840
1868,1774,1854
1874,1822,1856
1850,1905,1851
1871,1856,1821
1856,1771,1853
1840,1797,1872
1829,1808,1866
1882,1861,1855
1891,1839,1853
1878,1817,1840
1823,1809,1840
1853,1840,1802
1879,1808,1823
1868,1889,1889
1859,1872,1895
1837,1872,1872
1843,1830,1843
1857,1841,1845
1808,1747,1869
1827,1712,1862
1879,1763,1856
1898,1797,1827
1843,1808,1840
1853,1829,1862
1872,1862,1872
1875,1869,1881
1847,1863,1859
1857,1919,1825
1862,1813,1837
1825,1714,1867
1814,1751,1878
1840,1810,1890
1877,1856,1852
1904,1810,1808
1835,1830,1866
1812,1851,1876
1856,1906,1872
1869,1857,1827
1838,1738,1851
1836,1762,1871
1863,1807,1871
1856,1813,1866
1856,1840,1875
1872,1866,1847
1885,1897,1850
1846,1792,1851
1856,1840,1856
1855,1829,1815
1843,1850,1826
1838,1734,1870
1830,1727,1851
1837,1819,1864
1887,1859,1835
1869,1871,1877
1837,1867,1883
1844,1837,1863
1859,1895,1851
1838,1833,1845
1823,1799,1844
1851,1840,1838
1874,1796,1857
1885,1810,1858
1858,1843,1850
1843,1831,1860
1874,1851,1856
1858,1855,1838
1847,1869,1837
1882,1917,1839
1862,1840,1841
1807,1721,1841
1822,1744,1803
1845,1813,1857
1867,1872,1859
1877,1856,1827
1861,1815,1840
1847,1927,1863
1858,1827,1872
1823,1749,1850
1818,1776,1839
1854,1824,1840
1882,1845,1854
1877,1878,1834
1840,1808,1840
1845,1808,1857
1874,1843,1861
1899,1843,1850
1873,1893,1838
1850,1823,1830
1850,1745,1769
1824,1805,1889
1808,1863,1908
1841,1847,1863
1875,1927,1822
1857,1827,1840
1829,1759,1826
1835,1794,1834
1857,1757,1864
1871,1758,1845
1856,1782,1803
1838,1853,1847
1856,1842,1872
1856,1826,1851
1835,1821,1840
1859,1864,1841
1893,1867,1840
1879,1873,1851
1822,1795,1827
1871,1776,1777
1875,1783,1856
1808,1832,1909
1811,1881,1887
1819,1798,1846
1859,1850,1839
1862,1807,1840
1846,1872,1842
1859,1786,1840
1865,1761,1850
1862,1846,1867
1840,1834,1839
1850,1801,1823
1873,1823,1843
1877,1827,1845
1835,1827,1845
1853,1861,1847
1877,1873,1854
1854,1782,1807
1821,1791,1845
1852,1843,1807
1873,1855,1838
1870,1825,1857
1830,1890,1872
1822,1874,1878
1845,1839,1883
1869,1795,1840
1836,1730,1836
1831,1745,1840
1865,1807,1855
1877,1859,1827
1845,1853,1835
1837,1823,1851
1858,1840,1856
1882,1915,1840
1846,1831,1827
1825,1770,1840
1843,1830,1855
1851,1831,1856
1872,1820,1794
1878,1872,1788
1845,1808,1881
1835,1810,1906
1813,1861,1895
1840,1877,1871
1878,1947,1867
1867,1827,1881
1830,1771,1835
1827,1769,1840
1854,1792,1842
1871,1811,1843
1865,1922,1850
1837,1865,1843
1831,1779,1843
1840,1772,1851
1829,1822,1843
1849,1817,1852
1863,1835,1867
1876,1803,1789
1850,1859,1849
1838,1932,1874
1855,1838,1887
1851,1777,1852
1850,1855,1844
1851,1842,1862
1858,1883,1872
1858,1834,1856
1842,1833,1854
1857,1877,1865
1878,1801,1807
1869,1791,1845
1867,1862,1865
1813,1829,1869
1807,1817,1851
1818,1789,1851
1818,1774,1842
1836,1795,1847
1871,1834,1871
1872,1872,1849
1859,1809,1805
1856,1821,1850
1856,1872,1894
1857,1862,1882
1865,1842,1856
1869,1811,1856
1873,1830,1854
1825,1864,1859
1810,1856,1849
1842,1943,1871
1893,1889,1918
1856,1774,1863
1801,1709,1815
1808,1763,1813
1856,1808,1839
1868,1856,1872
1839,1891,1870
1846,1857,1840
1873,1829,1841
1856,1775,1837
1817,1809,1811
1841,1849,1862
1853,1901,1872
1846,1775,1874
1830,1776,1869
1847,1831,1871
1873,1860,1872
1888,1904,1861
1850,1839,1840
1855,1865,1839
1839,1833,1915
1830,1820,1865
1820,1779,1833
1824,1810,1840
1872,1854,1865
1863,1814,1863
1827,1836,1845
1833,1840,1830
1860,1799,1842
1873,1799,1808
1879,1805,1786
1809,1840,1879
1808,1850,1910
1837,1776,1872
1850,1776,1855
1856,1825,1854
1875,1903,1857
1866,1826,1843
1837,1822,1840
1841,1830,1863
1870,1888,1854
1858,1872,1842
1831,1809,1872
1857,1825,1866
1843,1808,1855
1840,1793,1832
1833,1808,1821
1858,1858,1850
1876,1931,1840
1863,1818,1798
1840,1803,1820
1812,1787,1856
1830,1808,1879
1850,1834,1879
1851,1808,1834
1853,1840,1841
1858,1904,1876
1854,1806,1863
1817,1806,1845
1799,1851,1860
1840,1839,1846
1839,1737,1869
1829,1755,1859
1856,1821,1850
1881,1841,1845
1840,1837,1842
1829,1825,1853
1827,1840,1862
1856,1825,1815
1895,1888,1794
1829,1852,1873
1802,1792,1872
1830,1808,1841
1817,1778,1855
1822,1859,1862
1842,1843,1847
1858,1778,1841
1874,1787,1844
1856,1814,1819
1827,1872,1855
1850,1991,1886
1844,1799,1842
1821,1765,1838
1852,1827,1840
1877,1840,1856
1893,1830,1814
1851,1801,1839
1839,1857,1884
1840,1806,1886
1827,1812,1846
1829,1823,1839
1840,1840,1840
1863,1873,1860
1858,1902,1852
1861,1882,1826
1826,1849,1823
1838,1765,1867
1871,1754,1843
1872,1838,1858
1853,1888,1861
1832,1891,1854
1824,1923,1895
1824,1857,1854
1834,1795,1776
1859,1748,1850
1859,1862,1861
1855,1749,1802
1849,1789,1888
1840,1840,1890
1825,1802,1857
1806,1803,1846
1824,1842,1849
1860,1892,1857
1851,1842,1847
1839,1853,1850
1850,1822,1849
1863,1842,1866
1869,1862,1857
1857,1893,1853
1865,1932,1837
1872,1851,1811
1845,1815,1886
1809,1823,1866
1824,1792,1800
1861,1872,1835
1851,1761,1867
1855,1735,1833
1821,1797,1865
1841,1836,1883
1856,1836,1879
1846,1849,1859
1843,1799,1842
1872,1841,1847
1852,1869,1869
1830,1841,1858
1838,1854,1856
1895,1854,1840
1869,1840,1843
1815,1872,1831
1840,1845,1840
1865,1819,1873
1873,1895,1853
1850,1842,1817
1840,1921,1839
1821,1757,1869
1845,1744,1828
1815,1785,1850
1821,1840,1872
1856,1813,1870
1867,1833,1845
1872,1862,1793
1833,1793,1849
1856,1879,1865
1830,1781,1856
1815,1755,1847
1820,1820,1856
1863,1871,1870
1855,1862,1855
1827,1856,1840
1835,1835,1825
1875,1846,1822
1872,1870,1869
1858,1851,1857
1833,1889,1872
1836,1789,1875
1840,1776,1844
1840,1825,1827
1851,1840,1840
1888,1889,1872
1845,1813,1842
1809,1830,1841
1807,1744,1843
1863,1783,1827
1878,1772,1793
1831,1809,1862
1825,1857,1879
1843,1893,1858
1841,1830,1853
1833,1825,1799
1831,1817,1856
1857,1856,1886
1854,1852,1863
1838,1883,1863
1834,1895,1853
1847,1777,1840
1840,1779,1849
1827,1835,1860
1845,1872,1855
1876,1869,1822
1875,1882,1840
1825,1919,1847
1808,1795,1867
1853,1707,1856
1837,1767,1840
1829,1850,1847
1829,1830,1834
1857,1787,1767
1815,1839,1861
1786,1817,1886
1825,1841,1869
1856,1867,1853
1854,1866,1842
1843,1862,1843
1851,1873,1851
1877,1950,1846
1865,1840,1840
1833,1808,1851
1863,1865,1822
1837,1839,1818
1805,1750,1872
1818,1807,1867
1860,1901,1829
1866,1770,1850
1857,1699,1791
1802,1778,1842
1811,1809,1859
1825,1857,1855
1835,1893,1851
1811,1829,1849
1840,1827,1840
1867,1841,1828
1866,1818,1795
1834,1841,1853
1842,1856,1867
1890,1889,1843
1859,1891,1835
1812,1809,1808
1830,1763,1843
1872,1792,1840
1839,1929,1825
1795,1754,1823
1810,1743,1848
1840,1809,1871
1862,1856,1850
1828,1797,1840
1818,1776,1857
1853,1835,1861
1862,1878,1840
1826,1808,1830
1819,1811,1833
1857,1855,1831
1868,1855,1827
1827,1814,1834
1815,1823,1846
1843,1851,1855
1840,1874,1843
1824,1890,1831
1833,1814,1793
1885,1782,1763
1806,1801,1867
1766,1797,1872
1815,1838,1855
1835,1753,1872
1824,1728,1853
1816,1777,1838
1828,1834,1837
1849,1879,1855
1856,1856,1840
1835,1838,1829
1842,1851,1827
1874,1863,1841
1878,1875,1834
1853,1856,1797
1812,1824,1826
1814,1847,1841
1830,1856,1840
1840,1935,1837
1871,1775,1728
1846,1744,1802
1802,1829,1915
1783,1840,1890
1781,1787,1847
1810,1774,1840
1830,1802,1840
1827,1842,1839
1842,1847,1837
1872,1825,1855
1866,1839,1862
1845,1858,1828
1842,1837,1835
1869,1846,1841
1856,1851,1843
1854,1904,1847
1855,1853,1829
1875,1794,1825
1858,1786,1797
1807,1813,1815
1806,1851,1852
1846,1806,1872
1843,1811,1858
1841,1853,1825
1839,1786,1799
1809,1744,1845
1830,1757,1879
1812,1871,1841
1826,1810,1834
1871,1822,1843
1843,1808,1854
1819,1843,1844
1840,1840,1841
1872,1824,1840
1864,1813,1850
1847,1822,1853
1856,1890,1845
1865,1875,1841
1872,1839,1809
1844,1759,1814
1827,1776,1858
1856,1776,1838
1859,1799,1841
1814,1856,1873
1799,1846,1853
1840,1840,1838
1840,1795,1836
1831,1765,1834
1819,1787,1844
1850,1836,1824
1841,1825,1858
1831,1850,1865
1850,1855,1853
1870,1839,1860
1861,1831,1849
1846,1852,1849
1853,1845,1856
1873,1890,1807
1904,1924,1817
1823,1695,1851
1793,1749,1879
1858,1783,1858
1839,1780,1837
1803,1822,1858
1806,1831,1868
1843,1843,1835
1840,1845,1827
1830,1818,1813
1843,1786,1829
1869,1817,1843
1860,1830,1841
1840,1815,1840
1847,1814,1843
1877,1842,1849
1879,1902,1823
1851,1827,1834
1850,1734,1808
1863,1751,1813
1858,1826,1862
1850,1949,1862
1849,1756,1819
1867,1744,1837
1855,1755,1845
1801,1831,1859
1831,1830,1849
1886,1877,1853
1841,1855,1840
1805,1810,1827
1817,1773,1833
1849,1818,1833
1863,1827,1840
1854,1790,1835
1840,1813,1851
1860,1873,1839
1843,1805,1828
1843,1825,1815
1838,1811,1856
1867,1865,1870
1871,1818,1826
1874,1782,1791
1813,1786,1866
1817,1833,1873
1846,1841,1855
1842,1835,1861
1839,1850,1842
1862,1872,1840
1871,1850,1838
1894,1892,1810
1855,1817,1835
1840,1841,1866
1828,1883,1858
1808,1778,1840
1842,1839,1803
1871,1806,1829
1836,1747,1857
1823,1792,1869
1842,1891,1850
1865,1819,1846
