1861,1811,1847
1873,1816,1838
1841,1825,1819
1863,1883,1834
1911,1913,1857
1831,1815,1862
1799,1797,1836
1825,1766,1830
1855,1827,1839
1842,1809,1845
1837,1787,1837
1841,1810,1859
1875,1857,1816
1895,1839,1807
1830,1776,1857
1840,1755,1861
1845,1835,1871
1856,1829,1856
1870,1831,1842
1849,1797,1841
1856,1819,1847
1883,1835,1841
1871,1857,1856
1853,1850,1841
1872,1885,1842
1895,1809,1840
1840,1818,1838
1841,1904,1852
1872,1917,1856
1873,1769,1838
1873,1808,1745
1827,1823,1831
1827,1771,1891
1831,1730,1875
1839,1783,1869
1861,1872,1856
1882,1805,1834
1867,1783,1831
1845,1808,1842
1856,1835,1856
1881,1853,1845
1890,1865,1842
1878,1883,1831
1867,1791,1800
1867,1808,1858
1897,1858,1873
1872,1837,1872
1838,1818,1858
1843,1873,1863
1871,1946,1811
1867,1812,1782
1822,1714,1854
1824,1751,1868
1842,1790,1872
1851,1814,1853
1840,1815,1840
1872,1845,1850
1883,1875,1858
1871,1897,1834
1867,1801,1851
1879,1789,1863
1888,1797,1847
1856,1838,1841
1846,1838,1849
1885,1845,1829
1886,1915,1854
1848,1886,1835
1860,1742,1846
1895,1822,1863
1867,1858,1850
1773,1701,1834
1781,1756,1853
1843,1825,1853
1875,1842,1855
1872,1840,1853
1858,1849,1856
1872,1904,1841
1872,1829,1851
1857,1817,1850
1840,1849,1846
1879,1857,1859
1866,1829,1836
1847,1836,1834
1855,1872,1839
1894,1856,1837
1902,1872,1799
1834,1769,1840
1815,1773,1823
1846,1844,1862
1857,1824,1873
1840,1873,1866
1855,1838,1836
1844,1754,1846
1856,1761,1846
1833,1813,1840
1846,1904,1847
1864,1867,1790
1846,1734,1834
1839,1789,1858
1830,1805,1851
1857,1808,1847
1867,1819,1842
1872,1807,1837
1865,1856,1850
1857,1852,1870
1851,1813,1847
1855,1823,1840
1863,1831,1840
1889,1842,1835
1888,1866,1799
1851,1885,1856
1832,1904,1874
1891,1810,1840
1835,1745,1840
1799,1733,1838
1825,1767,1859
1872,1812,1870
1893,1831,1840
1885,1818,1831
1839,1822,1839
1870,1840,1840
1863,1858,1841
1855,1845,1840
1869,1931,1850
1898,1841,1849
1887,1805,1759
1827,1762,1840
1808,1810,1911
1845,1845,1882
1868,1887,1858
1867,1861,1827
1840,1815,1819
1876,1814,1809
1857,1774,1843
1827,1757,1846
1839,1792,1849
1857,1808,1862
1877,1840,1856
1857,1851,1845
1840,1815,1856
1870,1851,1869
1877,1839,1849
1875,1834,1835
1906,1873,1852
1855,1835,1839
1827,1795,1838
1827,1831,1840
1872,1890,1808
1849,1913,1872
1818,1734,1872
1814,1709,1837
1840,1762,1835
1866,1822,1830
1879,1827,1829
1861,1837,1859
1856,1850,1865
1879,1858,1853
1874,1857,1839
1857,1862,1839
1867,1863,1858
1885,1904,1856
1869,1867,1845
1863,1776,1813
1841,1715,1814
1830,1778,1854
1807,1787,1863
1818,1782,1854
1826,1810,1841
1855,1847,1839
1867,1827,1835
1856,1786,1849
1846,1808,1851
1872,1830,1847
1902,1841,1859
1847,1843,1845
1849,1859,1849
1900,1863,1826
1887,1869,1821
1845,1839,1805
1801,1892,1869
1806,1744,1877
1836,1712,1827
1838,1734,1830
1824,1781,1869
1847,1819,1866
1866,1838,1850
1855,1825,1840
1854,1837,1844
1885,1862,1843
1894,1904,1852
1872,1827,1836
1840,1817,1840
1863,1840,1840
1884,1842,1854
1904,1851,1822
1865,1854,1861
1837,1856,1866
1849,1843,1824
1859,1838,1811
1841,1871,1821
1844,1813,1845
1837,1755,1855
1840,1777,1857
1859,1827,1828
1865,1838,1827
1853,1841,1868
1843,1787,1847
1847,1797,1851
1890,1847,1840
1908,1856,1805
1840,1806,1851
1808,1808,1875
1853,1829,1858
1884,1840,1845
1875,1869,1840
1840,1841,1860
1840,1801,1863
1841,1827,1850
1850,1837,1828
1847,1882,1851
1879,1879,1837
1853,1783,1842
1835,1803,1838
1842,1799,1795
1876,1909,1845
1854,1827,1873
1818,1808,1856
1836,1801,1839
1869,1821,1843
1872,1894,1847
1842,1855,1840
1817,1763,1836
1853,1815,1841
1869,1821,1845
1886,1815,1840
1869,1847,1833
1841,1807,1803
1811,1771,1857
1812,1803,1903
1855,1903,1843
1861,1834,1829
1844,1789,1863
1840,1817,1871
1843,1833,1855
1872,1818,1849
1868,1840,1854
1840,1869,1854
1840,1851,1846
1872,1836,1838
1872,1857,1833
1840,1839,1840
1825,1778,1850
1853,1795,1839
1855,1767,1827
1819,1754,1837
1825,1828,1867
1879,1921,1877
1859,1838,1855
1879,1797,1802
1847,1855,1808
1838,1846,1839
1837,1755,1847
1807,1779,1866
1835,1819,1855
1845,1825,1849
1852,1860,1851
1838,1840,1849
1856,1891,1847
1858,1870,1851
1843,1807,1836
1829,1827,1835
1836,1823,1840
1847,1783,1831
1851,1856,1844
1865,1927,1830
1827,1774,1872
1835,1778,1857
1841,1815,1843
1851,1835,1793
1843,1837,1850
1872,1851,1893
1878,1876,1886
1830,1853,1840
1808,1805,1824
1850,1815,1839
1861,1863,1861
1823,1851,1867
1824,1847,1846
1865,1975,1833
1889,1842,1759
1806,1673,1840
1784,1731,1902
1826,1817,1877
1855,1823,1859
1840,1818,1841
1840,1834,1847
1871,1827,1831
1883,1869,1852
1842,1845,1851
1834,1850,1808
1850,1861,1857
1842,1810,1858
1821,1807,1856
1851,1835,1861
1882,1858,1853
1866,1869,1835
1802,1734,1822
1813,1729,1834
1863,1831,1841
1850,1818,1840
1825,1805,1854
1829,1813,1844
1865,1852,1843
1904,1902,1846
1851,1840,1840
1817,1866,1853
1842,1820,1840
1863,1808,1844
1856,1821,1842
1854,1852,1841
1914,1871,1746
1858,1792,1847
1807,1842,1886
1817,1798,1871
1859,1872,1843
1844,1760,1837
1834,1792,1844
1838,1812,1845
1876,1765,1856
1917,1830,1819
1819,1869,1849
1779,1808,1857
1820,1818,1851
1866,1846,1847
1846,1824,1861
1843,1835,1846
1898,1851,1834
1865,1840,1839
1839,1829,1834
1819,1843,1853
1856,1888,1853
1879,1881,1805
1863,1821,1843
1825,1831,1865
1813,1814,1874
1839,1862,1858
1818,1790,1831
1816,1745,1818
1862,1806,1831
1875,1878,1840
1838,1846,1805
1823,1787,1838
1838,1850,1873
1850,1815,1869
1830,1808,1847
1839,1815,1872
1875,1872,1857
1875,1835,1835
1858,1803,1836
1856,1809,1852
1870,1843,1849
1885,1840,1808
1871,1904,1803
1826,1791,1891
1809,1776,1872
1804,1786,1847
1821,1791,1831
1856,1857,1856
1850,1853,1857
1849,1793,1809
1838,1831,1838
1853,1877,1873
1872,1886,1862
1872,1791,1841
1855,1818,1840
1840,1835,1854
1875,1846,1846
1871,1887,1838
1840,1862,1867
1840,1824,1865
1877,1891,1840
1927,1850,1729
1853,1862,1845
1786,1695,1889
1831,1737,1858
1836,1765,1851
1868,1786,1815
1835,1842,1855
1827,1813,1862
1885,1855,1856
1843,1774,1833
1811,1809,1856
1850,1859,1854
1872,1841,1842
1855,1827,1850
1857,1840,1865
1887,1860,1856
1890,1854,1843
1872,1851,1841
1871,1847,1851
1886,1852,1855
1879,1951,1860
1836,1892,1837
1826,1751,1839
1838,1717,1846
1872,1792,1836
1856,1874,1846
1805,1755,1864
1833,1797,1885
1847,1804,1855
1840,1785,1795
1843,1898,1840
1857,1813,1856
1871,1792,1859
1841,1795,1846
1857,1814,1843
1865,1846,1840
1865,1853,1841
1855,1855,1847
1845,1904,1857
1849,1851,1845
1872,1834,1847
1870,1865,1791
1831,1779,1861
1867,1771,1849
1853,1823,1863
1854,1794,1849
1829,1806,1874
1871,1811,1837
1873,1867,1824
1847,1885,1811
1823,1798,1835
1855,1824,1862
1878,1854,1847
1868,1829,1839
1870,1840,1853
1872,1861,1855
1870,1858,1841
1841,1842,1824
1840,1806,1842
1862,1807,1851
1907,1809,1830
1879,1802,1805
1827,1913,1807
1842,1787,1821
1857,1815,1873
1819,1810,1882
1820,1783,1865
1867,1807,1843
1895,1817,1819
1858,1858,1834
1841,1847,1869
1865,1858,1863
1885,1863,1855
1889,1904,1867
1847,1839,1856
1851,1822,1835
1858,1841,1821
1859,1856,1831
1872,1821,1803
1867,1745,1793
1873,1866,1857
1820,1797,1886
1779,1684,1856
1840,1746,1838
1856,1799,1834
1849,1819,1830
1856,1840,1839
1870,1845,1843
1869,1840,1843
1872,1825,1824
1887,1817,1790
1860,1855,1869
1855,1841,1868
1846,1839,1843
1843,1815,1856
1882,1850,1856
1888,1813,1854
1834,1797,1855
1831,1805,1801
1871,1888,1807
1873,1919,1867
1856,1808,1865
1826,1771,1861
1840,1779,1856
1862,1821,1853
1862,1837,1858
1872,1905,1840
1906,1883,1837
1858,1797,1851
1829,1823,1863
1845,1819,1855
1862,1872,1840
1874,1841,1831
1846,1807,1840
1841,1808,1846
1872,1874,1850
1873,1892,1857
1835,1825,1849
1847,1767,1776
1871,1855,1855
1860,1923,1857
1847,1828,1866
1808,1743,1859
1834,1767,1846
1875,1861,1844
1831,1798,1855
1830,1808,1871
1857,1835,1842
1878,1839,1837
1870,1856,1840
1865,1883,1830
1840,1845,1844
1847,1838,1844
1837,1835,1866
1856,1813,1842
1881,1851,1840
1857,1906,1841
1838,1843,1851
1850,1804,1857
1874,1827,1846
1885,1920,1830
1854,1855,1845
1838,1866,1872
1840,1846,1894
1831,1744,1854
1823,1712,1834
1837,1760,1840
1861,1792,1820
1863,1858,1853
1814,1789,1857
1830,1803,1858
1870,1831,1851
1855,1846,1855
1849,1853,1855
1846,1840,1857
1879,1849,1829
1899,1873,1841
1862,1852,1828
1834,1862,1856
1834,1871,1874
1861,1865,1829
1867,1887,1845
1824,1854,1874
1827,1781,1882
1840,1791,1866
1840,1814,1857
1825,1867,1841
1853,1897,1873
1841,1739,1869
1833,1744,1866
1836,1788,1866
1871,1819,1855
1883,1872,1839
1840,1838,1833
1831,1802,1847
1863,1776,1819
1845,1840,1833
1843,1875,1841
1856,1814,1839
1838,1807,1902
1851,1866,1887
1823,1833,1879
1819,1806,1857
1834,1776,1840
1853,1795,1842
1843,1792,1851
1850,1810,1856
1878,1840,1856
1856,1904,1856
1846,1866,1875
1834,1782,1865
1852,1808,1850
1863,1846,1839
1868,1958,1838
1846,1773,1840
1875,1703,1797
1864,1787,1838
1829,1853,1894
1809,1840,1902
1850,1849,1872
1872,1847,1855
1845,1862,1842
1849,1863,1869
1858,1818,1859
1859,1845,1855
1855,1839,1847
1849,1823,1856
1877,1877,1856
1873,1872,1857
1844,1783,1821
1818,1802,1839
1826,1826,1874
1861,1894,1891
1824,1767,1840
1817,1747,1843
1861,1830,1863
1870,1851,1871
1844,1809,1814
1827,1813,1861
1851,1854,1891
1863,1909,1878
1850,1830,1879
1841,1841,1870
1860,1830,1863
1872,1833,1863
1856,1894,1861
1869,1849,1856
1840,1829,1849
1838,1761,1834
1807,1776,1840
1823,1820,1860
1863,1851,1856
1890,1855,1843
1856,1885,1824
1839,1829,1824
1856,1829,1863
1872,1850,1871
1913,1859,1823
1846,1847,1851
1829,1830,1858
1840,1820,1874
1803,1778,1873
1834,1813,1819
1857,1808,1842
1862,1821,1865
1831,1824,1866
1840,1879,1852
1863,1795,1867
1883,1805,1856
1856,1823,1858
1841,1781,1849
1845,1805,1842
1870,1835,1840
1845,1808,1827
1849,1872,1866
1907,1834,1806
1850,1789,1851
1814,1817,1873
1852,1837,1845
1877,1841,1861
1874,1926,1861
1861,1847,1851
1859,1802,1873
1834,1782,1862
1840,1761,1845
1818,1807,1843
1830,1874,1840
1869,1835,1835
1875,1808,1778
1834,1745,1842
1824,1746,1872
1857,1806,1864
1879,1837,1858
1872,1851,1860
1840,1797,1843
1863,1859,1808
1875,1876,1848
1829,1882,1866
1827,1803,1849
1855,1782,1847
1849,1822,1863
1835,1878,1859
1827,1835,1857
1856,1831,1851
1859,1809,1849
1838,1821,1854
1860,1962,1877
1873,1870,1859
1874,1747,1840
1827,1750,1843
1819,1789,1853
1841,1801,1845
1859,1828,1855
1852,1835,1845
1872,1837,1831
1885,1843,1781
1840,1817,1871
1792,1805,1902
1808,1837,1883
1872,1903,1840
1869,1763,1815
1808,1756,1879
1822,1857,1886
1877,1809,1869
1868,1802,1846
1839,1821,1843
1840,1839,1856
1872,1853,1861
1894,1862,1854
1867,1886,1856
1856,1839,1857
1857,1826,1871
1855,1840,1857
1840,1841,1837
1853,1872,1845
1893,1853,1831
1904,1855,1776
1859,1781,1829
1778,1808,1890
1840,1847,1870
1867,1805,1830
1823,1870,1870
1811,1824,1895
1833,1769,1857
1841,1723,1836
1836,1749,1831
1840,1794,1843
1872,1831,1850
1879,1835,1845
1856,1827,1833
1857,1839,1845
1885,1859,1842
1878,1840,1842
1862,1867,1840
1842,1791,1835
1863,1806,1840
1883,1815,1835
1830,1865,1864
1833,1815,1869
1867,1823,1859
1888,1863,1803
1820,1774,1833
1792,1795,1888
1846,1837,1873
1870,1849,1849
1847,1855,1847
1827,1854,1852
1857,1831,1856
1869,1830,1853
1851,1840,1846
1861,1878,1843
1873,1901,1859
1871,1846,1857
1843,1809,1850
1845,1791,1813
1895,1805,1808
1867,1765,1849
1794,1776,1871
1809,1818,1867
1872,1867,1859
1863,1845,1855
1856,1789,1839
1840,1802,1835
1851,1832,1840
1856,1872,1857
1838,1847,1854
1843,1843,1853
1875,1856,1845
1883,1889,1841
1847,1856,1840
1840,1808,1859
1871,1839,1856
1879,1857,1849
1893,1936,1840
1850,1951,1824
1843,1711,1788
1838,1709,1829
1785,1728,1872
1807,1776,1866
1856,1818,1856
1872,1863,1847
1861,1831,1862
1859,1817,1853
1870,1827,1838
1873,1873,1840
1858,1852,1841
1866,1826,1863
1872,1875,1838
1867,1839,1819
1871,1872,1824
1842,1808,1819
1837,1786,1870
1895,1793,1842
1833,1813,1823
1789,1769,1807
1799,1761,1870
1835,1823,1874
1830,1820,1842
1835,1834,1856
1869,1823,1859
1888,1829,1853
1840,1823,1843
1835,1830,1845
1868,1845,1845
1872,1853,1843
1850,1845,1841
1856,1855,1856
1887,1914,1856
1875,1815,1839
1839,1805,1862
1879,1958,1829
1853,1753,1837
1842,1698,1804
1837,1731,1807
1817,1794,1865
1885,1920,1859
1846,1894,1820
1809,1695,1815
1808,1728,1872
1855,1798,1872
1865,1830,1856
1841,1854,1843
1840,1844,1846
1871,1859,1852
1867,1886,1850
1846,1824,1839
1852,1777,1845
1903,1845,1861
1877,1889,1851
1840,1829,1840
1826,1775,1814
1859,1760,1838
1861,1808,1882
1833,1839,1901
1827,1871,1838
1871,1842,1821
1879,1895,1840
1847,1787,1847
1816,1791,1855
1861,1833,1851
1879,1883,1825
1821,1781,1848
1831,1778,1853
1858,1847,1856
1871,1851,1851
1843,1858,1855
1844,1840,1851
1866,1846,1845
1885,1903,1808
1862,1731,1772
1777,1709,1871
1808,1840,1910
1845,1824,1869
1856,1810,1840
1831,1823,1869
1859,1851,1857
1869,1847,1840
1865,1883,1827
1840,1862,1845
1866,1808,1840
1904,1813,1837
1840,1822,1837
1825,1852,1846
1861,1881,1831
1891,1909,1806
1855,1790,1845
1825,1759,1857
1840,1776,1834
1867,1849,1851
1869,1986,1855
1862,1761,1830
1845,1759,1809
1840,1792,1872
1827,1813,1870
1819,1826,1866
1866,1846,1847
1868,1833,1845
1847,1836,1850
1853,1835,1841
1878,1888,1843
1872,1885,1839
1835,1808,1843
1845,1825,1846
1915,1891,1854
1862,1841,1850
1817,1722,1819
1824,1786,1854
1847,1845,1856
1876,1845,1853
1886,2009,1826
1909,1791,1734
1837,1678,1894
1824,1741,1908
1820,1785,1873
1840,1816,1856
1855,1846,1873
1859,1841,1858
1843,1843,1840
1851,1833,1838
1881,1840,1840
1889,1840,1840
1863,1843,1842
1863,1855,1855
1877,1853,1849
1892,1856,1850
1863,1881,1853
1871,1865,1840
1915,1846,1823
1921,1863,1782
1790,1740,1856
1749,1745,1923
1840,1861,1861
1852,1749,1846
1827,1766,1844
1840,1793,1851
1865,1786,1856
1872,1814,1849
1856,1838,1852
1865,1854,1867
1889,1866,1849
1891,1895,1871
1857,1840,1840
1866,1834,1840
1884,1841,1846
1887,1892,1843
1869,1872,1815
1887,1774,1766
1862,1723,1798
1832,1810,1903
1815,1949,1910
1840,1809,1872
1828,1774,1846
1832,1799,1843
1835,1839,1842
1849,1818,1837
1888,1830,1847
1882,1840,1851
1871,1849,1858
1849,1889,1862
1865,1866,1845
1881,1872,1833
1869,1823,1851
1839,1846,1883
1863,1897,1853
1857,1857,1827
1859,1794,1835
1845,1810,1840
1872,1791,1811
1904,1803,1803
1840,1857,1881
1854,1879,1871
1870,1787,1856
1795,1755,1859
1805,1799,1856
1827,1792,1861
1862,1845,1851
1867,1862,1852
1858,1855,1840
1851,1856,1840
1872,1871,1840
1888,1872,1846
1863,1858,1842
1857,1856,1841
1892,1941,1837
1887,1854,1818
1825,1808,1814
1824,1759,1808
1886,1798,1776
1863,1835,1850
1808,1863,1919
1808,1759,1884
1855,1804,1850
1856,1808,1844
1851,1814,1841
1859,1887,1847
1869,1827,1846
1872,1804,1840
1815,1785,1840
1825,1817,1851
1865,1850,1849
1877,1853,1853
1859,1856,1840
1857,1847,1850
1872,1871,1843
1871,1849,1847
1862,1865,1839
1871,1895,1822
1854,1837,1775
1815,1743,1863
1811,1712,1897
1833,1775,1859
1856,1856,1824
1848,1887,1825
1837,1840,1799
1838,1776,1803
1853,1814,1858
1859,1853,1872
1850,1851,1853
1856,1853,1850
1881,1870,1854
1895,1868,1856
1861,1887,1853
1850,1828,1842
1842,1819,1855
1856,1846,1839
1893,1839,1776
1818,1793,1856
1800,1767,1877
1813,1759,1887
1839,1786,1837
1856,1842,1826
1851,1837,1857
1856,1841,1863
1840,1843,1856
1847,1857,1867
1872,1866,1842
1885,1869,1838
1866,1867,1850
1868,1889,1858
1887,1882,1843
1859,1849,1840
1823,1811,1842
1840,1871,1851
1882,1867,1810
1881,1855,1829
1839,1777,1811
1853,1792,1826
1859,1808,1897
1818,1787,1886
1795,1783,1839
1823,1811,1838
1862,1840,1835
1876,1857,1850
1865,1869,1856
1867,1860,1850
1881,1867,1836
1878,1858,1837
1879,1866,1839
1857,1882,1809
1873,1823,1810
1823,1858,1872
1808,1757,1861
1838,1771,1827
1855,1829,1851
1875,1869,1808
1861,1936,1843
1854,1870,1875
1846,1740,1872
1844,1799,1839
1847,1781,1841
1844,1818,1849
1849,1849,1840
1853,1847,1841
1839,1859,1842
1853,1875,1856
1886,1878,1855
1883,1869,1855
1853,1849,1853
1861,1828,1841
1872,1881,1841
1861,1908,1821
1821,1771,1821
1806,1791,1845
1871,1905,1805
1874,1927,1869
1810,1696,1895
1814,1712,1857
1840,1829,1840
1855,1823,1831
1833,1803,1840
1847,1807,1846
1869,1826,1851
1872,1839,1847
1852,1838,1851
1861,1840,1856
1882,1859,1842
1875,1867,1842
1856,1833,1840
1838,1893,1826
1849,1808,1808
1851,1831,1847
1815,1809,1834
1814,1877,1872
1854,1929,1903
1866,1830,1872
1849,1789,1838
1824,1725,1838
1855,1779,1848
1869,1837,1870
1855,1841,1846
1855,1872,1843
1885,1871,1856
1897,1855,1851
1856,1833,1844
1844,1844,1846
1874,1872,1858
1903,1873,1843
1844,1835,1841
1825,1872,1851
1847,1877,1853
1867,1824,1841
1875,1743,1761
1840,1815,1859
1855,1859,1869
1873,1859,1855
1855,1853,1873
1854,1901,1872
1862,1903,1851
1872,1814,1846
1847,1808,1843
1858,1808,1850
1872,1792,1842
1872,1868,1847
1858,1835,1852
1867,1849,1841
1856,1833,1894
1856,1794,1856
1840,1819,1840
1857,1863,1847
1875,1851,1843
1854,1835,1840
1830,1822,1840
1867,1910,1840
1870,1833,1824
1839,1818,1872
1831,1822,1871
1851,1843,1869
1910,1914,1858
1878,1942,1843
1847,1774,1847
1843,1758,1849
1872,1857,1851
1869,1839,1841
1830,1829,1841
1849,1808,1858
1858,1835,1854
1858,1862,1829
1845,1833,1851
1854,1808,1858
1885,1813,1807
1906,1808,1779
1824,1815,1835
1790,1823,1903
1837,1820,1891
1858,1821,1865
1841,1847,1841
1840,1826,1849
1877,1839,1862
1899,1887,1860
1872,1863,1857
1840,1869,1850
1840,1786,1847
1847,1766,1843
1840,1809,1839
1858,1820,1858
1867,1870,1871
1846,1830,1836
1849,1815,1840
1842,1781,1839
1874,1840,1847
1872,1831,1855
1812,1840,1849
1824,1844,1829
1901,1908,1779
1866,1822,1889
1829,1810,1887
1835,1875,1848
1862,1795,1841
1870,1738,1815
1853,1840,1871
1811,1796,1869
1847,1811,1854
1866,1830,1845
1851,1841,1843
1844,1859,1841
1856,1841,1851
1875,1826,1851
1860,1849,1841
1853,1853,1849
1866,1834,1845
1878,1826,1829
1915,1781,1794
1829,1840,1851
1821,1927,1893
1850,1936,1874
1809,1799,1858
1845,1807,1846
1867,1790,1838
1872,1798,1833
1846,1792,1841
1825,1819,1845
1875,1873,1844
1869,1840,1856
1843,1843,1842
1846,1926,1831
1867,1777,1838
1897,1759,1857
1847,1795,1853
1828,1827,1853
1866,1872,1856
1875,1857,1854
1856,1825,1845
1854,1817,1824
1887,1821,1781
1899,1808,1873
1818,1854,1909
1798,1826,1882
1844,1855,1872
1856,1858,1872
1821,1762,1831
1811,1747,1837
1841,1798,1840
1866,1835,1845
1856,1836,1843
1860,1842,1856
1883,1865,1858
1883,1862,1862
1868,1878,1849
1850,1826,1843
1863,1838,1843
1876,1952,1851
1861,1820,1840
1875,1813,1814
1899,1804,1778
1808,1787,1863
1755,1767,1919
1788,1807,1895
1841,1857,1873
1863,1843,1846
1851,1808,1834
1856,1782,1835
1843,1845,1888
1841,1866,1867
1830,1812,1840
1840,1823,1840
1893,1910,1843
1872,1868,1850
1841,1813,1851
1823,1786,1843
1855,1790,1847
1872,1861,1841
1854,1789,1819
1851,1820,1808
1872,1810,1871
1884,1798,1873
1806,1808,1872
1807,1882,1856
1871,1893,1858
1867,1782,1856
1855,1789,1841
1838,1822,1840
1840,1905,1855
1859,1854,1857
1840,1811,1854
1851,1835,1833
1841,1799,1855
1843,1776,1858
1827,1808,1822
1833,1819,1854
1854,1857,1875
1861,1792,1818
1839,1817,1861
1831,1834,1882
1872,1799,1861
1871,1813,1849
1854,1811,1840
1861,1883,1842
1869,1856,1863
1863,1819,1852
1851,1888,1855
1835,1808,1853
1864,1813,1869
1862,1799,1843
1836,1888,1831
1823,1850,1856
1843,1814,1862
1847,1737,1832
1821,1778,1846
1822,1823,1856
1843,1839,1856
1886,1842,1847
1876,1824,1808
1837,1857,1861
1846,1875,1859
1878,1887,1823
1824,1776,1852
1805,1750,1881
1849,1849,1853
1846,1868,1858
1818,1793,1856
1823,1786,1846
1859,1812,1851
1869,1850,1857
1835,1759,1828
1815,1760,1834
1845,1809,1860
1855,1840,1854
1845,1838,1862
1859,1840,1850
1904,1888,1834
1905,1856,1808
1831,1783,1840
1808,1809,1890
1860,1847,1888
1871,1853,1872
1858,1882,1839
1830,1863,1854
1837,1813,1858
1881,1840,1851
1856,1777,1833
1808,1694,1791
1807,1802,1871
1853,1966,1883
1834,1776,1842
1831,1741,1830
1856,1791,1853
1873,1825,1855
1857,1826,1874
1840,1814,1854
1855,1817,1806
1863,1840,1847
1834,1857,1867
1841,1856,1866
1856,1872,1855
1901,1947,1818
1823,1785,1855
1806,1796,1872
1861,1892,1868
1874,1858,1846
1850,1725,1805
1794,1719,1869
1821,1803,1873
1856,1837,1832
1824,1839,1822
1814,1781,1856
1850,1808,1858
1872,1809,1808
1840,1829,1851
1861,1882,1838
1852,1847,1885
1835,1841,1874
1829,1808,1850
1840,1825,1842
1892,1837,1853
1873,1822,1840
1827,1872,1840
1834,1911,1852
1856,1846,1842
1881,1875,1829
1838,1734,1840
1787,1761,1862
1840,1825,1852
1865,1791,1813
1808,1744,1826
1808,1806,1861
1855,1845,1872
1873,1875,1847
1855,1834,1811
1851,1792,1821
1855,1825,1875
1856,1856,1872
1855,1858,1872
1843,1808,1847
1855,1832,1844
1869,1838,1849
1871,1840,1811
1867,1871,1852
1872,1872,1881
1862,1840,1849
1805,1744,1831
1779,1734,1835
1824,1787,1841
1844,1825,1827
1841,1809,1840
1862,1884,1840
1871,1813,1845
1874,1795,1857
1854,1808,1854
1860,1836,1857
1883,1850,1847
1885,1857,1847
1856,1843,1823
1872,1878,1815
1889,1864,1866
1876,1857,1865
1839,1786,1859
1844,1776,1841
1873,1890,1840
1840,1819,1829
1831,1847,1835
1808,1842,1845
1840,1779,1856
1862,1804,1849
1862,1815,1813
1860,1799,1854
1872,1853,1867
1856,1860,1860
1851,1845,1840
1849,1883,1845
1868,1866,1849
1875,1835,1851
1861,1851,1826
1861,1890,1790
1846,1776,1844
1856,1747,1879
1827,1765,1872
1843,1805,1863
1890,1840,1854
1858,1859,1854
1843,1818,1850
1863,1773,1825
1851,1853,1849
1837,1861,1851
1838,1881,1843
1837,1808,1843
1851,1813,1851
1856,1847,1851
1840,1848,1855
1847,1821,1842
1875,1840,1856
1878,1851,1845
1867,1917,1837
1859,1791,1808
1847,1774,1810
1846,1811,1856
1841,1824,1822
1827,1827,1865
1871,1914,1867
1867,1861,1856
1829,1762,1841
1843,1755,1817
1855,1770,1829
1842,1810,1862
1822,1824,1872
1841,1887,1866
1855,1839,1843
1859,1786,1823
1857,1807,1840
1869,1882,1854
1870,1822,1839
1855,1803,1839
1840,1807,1838
1842,1824,1839
1873,1847,1843
1891,1887,1829
1862,1840,1840
1843,1833,1862
1873,1840,1859
1887,1857,1841
1856,1895,1801
1820,1788,1840
1845,1845,1854
1856,1775,1869
1827,1754,1874
1817,1828,1903
1861,1875,1899
1901,1892,1913
1852,1902,1872
1795,1771,1856
1827,1766,1869
1853,1791,1885
1851,1806,1902
1865,1820,1900
1856,1839,1895
1855,1851,1889
1851,1865,1889
1860,1826,1841
1857,1872,1895
1876,1889,1906
1834,1831,1903
1847,1821,1845
1838,1776,1875
1834,1755,1883
1853,1794,1849
1806,1770,1891
1825,1810,1905
1840,1815,1902
1836,1815,1891
1838,1823,1882
1867,1845,1883
1882,1878,1888
1843,1859,1883
1829,1815,1900
1861,1833,1883
1872,1841,1860
1845,1825,1872
1868,1872,1850
1871,1826,1863
1823,1795,1911
1808,1874,1904
1803,1804,1899
1808,1735,1888
1843,1803,1879
1840,1813,1878
1847,1863,1865
1836,1776,1868
1843,1774,1868
1840,1806,1877
1813,1829,1878
1840,1851,1885
1856,1859,1874
1837,1855,1874
1838,1910,1870
1866,1839,1862
1861,1798,1877
1849,1807,1869
1859,1825,1840
1853,1860,1904
1872,1881,1835
1808,1835,1872
1786,1831,1891
1833,1843,1872
1847,1825,1872
1841,1793,1858
1839,1835,1877
1856,1863,1845
1842,1791,1868
1809,1793,1879
1825,1827,1875
1854,1824,1872
1867,1833,1872
1855,1845,1863
1847,1859,1872
1853,1866,1878
1862,1843,1862
1843,1894,1857
1838,1831,1853
1859,1827,1811
1846,1813,1853
1815,1841,1859
1830,1870,1880
1821,1843,1885
1830,1815,1892
1869,1834,1860
1850,1824,1840
1837,1761,1841
1826,1803,1872
1818,1829,1856
1842,1898,1871
1845,1844,1854
1841,1821,1866
1819,1825,1872
1837,1823,1859
1854,1835,1856
1874,1862,1851
1842,1890,1851
1808,1761,1836
1845,1797,1856
1853,1826,1863
1838,1829,1837
1863,1855,1839
1851,1867,1881
1847,1872,1883
1826,1799,1857
1833,1791,1859
1872,1846,1879
1875,1840,1843
1856,1851,1838
1840,1821,1834
1843,1840,1845
1857,1856,1857
1850,1847,1808
1805,1851,1830
1820,1757,1837
1809,1761,1866
1799,1780,1862
1821,1826,1855
1875,1840,1803
1872,1843,1859
1840,1897,1886
1855,1858,1858
1842,1791,1853
1840,1776,1846
1829,1833,1855
1830,1808,1840
1857,1821,1842
1867,1836,1845
1844,1869,1874
1901,1838,1835
1861,1801,1817
1799,1821,1838
1797,1819,1851
1818,1819,1825
1840,1781,1840
1851,1834,1861
1831,1840,1835
1879,1869,1790
1845,1876,1841
1812,1811,1872
1823,1874,1842
1831,1855,1845
1853,1807,1853
1863,1789,1843
1846,1824,1843
1839,1852,1847
1859,1872,1833
1856,1793,1856
1834,1793,1839
1863,1803,1817
1867,1809,1854
1855,1846,1856
1811,1859,1811
1818,1776,1808
1858,1856,1842
1879,1833,1829
1840,1825,1822
1821,1824,1856
1840,1830,1856
1883,1837,1846
1840,1830,1840
1827,1869,1840
1857,1855,1837
1856,1856,1840
1831,1792,1849
1837,1802,1842
1865,1840,1843
1917,1902,1840
1825,1818,1833
1819,1801,1830
1839,1837,1835
