1915,1763,1827
1915,1876,1879
1855,1835,1865
1831,1769,1855
1859,1777,1824
1884,1855,1843
1863,1797,1890
1856,1808,1883
1883,1808,1872
1873,1808,1853
1872,1831,1847
1882,1822,1856
1878,1827,1853
1872,1825,1847
1898,1850,1853
1915,1853,1872
1885,1881,1873
1870,1805,1845
1911,1709,1762
1886,1838,1857
1867,1989,1811
1838,1725,1835
1846,1717,1894
1892,1761,1881
1861,1874,1857
1837,1753,1853
1846,1738,1869
1857,1773,1840
1847,1776,1852
1863,1791,1850
1878,1839,1853
1890,1851,1845
1890,1837,1847
1872,1827,1843
1883,1845,1843
1906,1827,1828
1895,1834,1855
1915,1791,1750
1881,1811,1843
1841,1837,1920
1855,1851,1893
1905,1958,1843
1852,1770,1843
1806,1698,1826
1828,1742,1834
1851,1798,1843
1878,1831,1857
1893,1835,1858
1891,1845,1840
1873,1846,1845
1898,1920,1819
1901,1850,1831
1872,1797,1871
1867,1776,1808
1916,1823,1836
1885,1791,1883
1808,1809,1904
1827,1861,1837
1839,1779,1820
1838,1745,1840
1840,1771,1855
1843,1803,1851
1872,1824,1840
1883,1863,1853
1882,1856,1867
1850,1826,1839
1868,1843,1829
1889,1840,1824
1904,1793,1794
1850,1802,1875
1813,1822,1895
1840,1836,1861
1859,1831,1837
1858,1863,1843
1887,1838,1811
1893,1872,1807
1828,1676,1790
1796,1645,1872
1779,1729,1879
1810,1813,1867
1830,1810,1843
1845,1819,1846
1860,1792,1858
1875,1799,1847
1842,1806,1832
1840,1819,1840
1857,1834,1844
1876,1831,1841
1880,1887,1867
1822,1795,1840
1840,1779,1803
1879,1744,1783
1817,1712,1835
1770,1757,1893
1792,1793,1875
1823,1798,1843
1830,1840,1845
1849,1767,1871
1802,1745,1840
1809,1774,1839
1837,1810,1817
1829,1743,1847
1802,1744,1872
1822,1789,1882
1839,1777,1851
1830,1821,1830
1833,1808,1856
1847,1791,1821
1835,1834,1861
1837,1788,1857
1822,1774,1883
1819,1815,1884
1785,1693,1833
1814,1651,1807
1835,1826,1871
1805,1713,1870
1755,1681,1851
1746,1762,1866
1805,1799,1861
1840,1811,1856
1839,1807,1859
1825,1808,1862
1840,1811,1868
1855,1821,1876
1841,1810,1870
1821,1806,1859
1859,1776,1837
1857,1826,1886
1823,1907,1872
1835,1757,1813
1805,1739,1910
1808,1755,1902
1807,1745,1861
1779,1647,1859
1811,1712,1861
1818,1712,1865
1808,1790,1873
1781,1776,1886
1818,1780,1881
1850,1795,1866
1849,1798,1867
1840,1804,1883
1843,1808,1890
1859,1813,1876
1843,1818,1862
1851,1765,1808
1866,1763,1856
1870,1825,1921
1870,1965,1889
1812,1754,1841
1776,1691,1885
1803,1677,1866
1801,1687,1875
1808,1733,1884
1835,1782,1866
1858,1805,1873
1855,1805,1878
1859,1847,1872
1857,1783,1855
1825,1783,1901
1815,1776,1856
1859,1717,1856
1839,1793,1898
1836,1844,1872
1872,1920,1815
1813,1830,1851
1776,1705,1905
1791,1664,1888
1825,1712,1877
1840,1749,1871
1862,1788,1877
1908,1733,1831
1790,1765,1881
1778,1786,1910
1833,1806,1904
1850,1821,1900
1846,1808,1846
1844,1795,1840
1856,1758,1872
1889,1795,1840
1827,1822,1897
1802,1833,1920
1839,1799,1894
1849,1767,1870
1872,1839,1866
1860,1795,1855
1840,1825,1911
1839,1686,1883
1806,1733,1897
1815,1759,1887
1825,1775,1872
1840,1736,1890
1878,1738,1879
1840,1834,1887
1828,1838,1859
1826,1775,1826
1793,1746,1874
1809,1776,1894
1856,1807,1900
1875,1826,1872
1869,1824,1859
1872,1911,1837
1870,1770,1857
1819,1824,1915
1811,1808,1875
1811,1701,1862
1841,1770,1866
1898,1781,1911
1840,1789,1867
1813,1804,1846
1841,1814,1849
1874,1822,1853
1872,1830,1847
1838,1835,1821
1823,1815,1856
1846,1825,1851
1863,1840,1893
1805,1789,1904
1815,1808,1871
1874,1850,1840
1845,1805,1870
1808,1779,1867
1838,1814,1862
1870,1853,1872
1866,1874,1853
1837,1847,1885
1846,1744,1845
1854,1776,1855
1853,1857,1882
1854,1819,1886
1865,1858,1873
1893,1789,1807
1802,1730,1863
1791,1771,1891
1841,1823,1867
1935,1819,1831
1798,1746,1865
1771,1760,1887
1817,1808,1889
1872,1835,1885
1871,1838,1874
1846,1853,1875
1875,1875,1869
1872,1820,1843
1859,1825,1835
1847,1807,1850
1872,1863,1870
1872,1818,1831
1859,1802,1856
1835,1889,1879
1836,1793,1849
1874,1734,1819
1825,1739,1898
1827,1799,1884
1862,1856,1873
1872,1829,1873
1850,1821,1858
1825,1807,1865
1856,1821,1868
1904,1845,1814
1853,1838,1854
1811,1843,1888
1842,1861,1882
1875,1863,1877
1874,1911,1875
1853,1874,1857
1855,1826,1831
1893,1841,1850
1895,1904,1840
1878,1776,1791
1840,1726,1890
1840,1805,1902
1847,1806,1865
1808,1798,1856
1854,1841,1876
1907,1810,1834
1840,1847,1856
1799,1841,1872
1838,1854,1860
1875,1857,1853
1879,1858,1854
1870,1871,1856
1866,1872,1855
1888,1878,1850
1871,1873,1842
1855,1859,1852
1907,1979,1823
1901,1914,1821
1791,1737,1885
1806,1693,1812
1853,1719,1795
1859,1853,1918
1847,1829,1887
1841,1808,1843
1858,1850,1851
1861,1871,1851
1858,1854,1838
1859,1840,1857
1879,1871,1858
1899,1901,1845
1894,1873,1841
1870,1888,1852
1871,1859,1848
1904,1906,1831
1904,1938,1792
1806,1782,1838
1813,1745,1863
1894,1829,1815
1903,1776,1834
1795,1725,1872
1806,1808,1863
1867,1818,1842
1885,1811,1834
1866,1840,1840
1872,1866,1850
1889,1882,1859
1886,1863,1853
1885,1856,1840
1879,1886,1851
1893,1887,1842
1904,1829,1806
1860,1847,1809
1880,2033,1821
1866,1791,1857
1820,1742,1870
1837,1756,1834
1852,1740,1840
1867,1781,1845
1845,1811,1842
1867,1886,1833
1860,1829,1846
1872,1834,1857
1868,1843,1840
1869,1856,1842
1886,1877,1849
1898,1916,1867
1872,1814,1839
1886,1766,1782
1895,1898,1795
1856,1875,1873
1836,1841,1894
1824,1822,1854
1840,1869,1835
1857,1855,1856
1872,1794,1795
1831,1727,1830
1838,1786,1857
1865,1869,1857
1862,1833,1845
1867,1837,1839
1871,1848,1840
1887,1855,1840
1873,1862,1839
1871,1851,1840
1917,1842,1808
1927,1810,1776
1822,1890,1859
1795,1872,1877
1838,1857,1857
1886,1806,1845
1900,1808,1857
1856,1879,1835
1831,1728,1776
1840,1742,1829
1856,1808,1859
1868,1842,1856
1893,1853,1819
1888,1780,1813
1863,1823,1851
1839,1846,1850
1872,1843,1792
1894,1847,1831
1863,1870,1881
1851,1872,1861
1883,1906,1846
1891,1841,1829
1878,1841,1837
1833,1886,1820
1859,1822,1841
1883,1863,1846
1845,1822,1851
1823,1823,1808
1834,1803,1811
1876,1831,1803
1873,1745,1786
1856,1783,1824
1829,1795,1895
1845,1826,1879
1862,1850,1865
1840,1840,1840
1863,1857,1845
1887,1886,1843
1895,1872,1859
1862,1844,1849
1862,1845,1838
1874,1879,1831
1870,1855,1836
1899,1883,1841
1920,1806,1823
1824,1791,1829
1786,1796,1831
1818,1815,1838
1862,1840,1846
1903,1873,1813
1916,1941,1778
1852,1803,1869
1815,1689,1879
1825,1741,1854
1846,1790,1824
1863,1826,1831
1883,1845,1843
1904,1915,1855
1862,1827,1839
1840,1792,1828
1873,1835,1845
1920,1913,1855
1889,1731,1803
1841,1792,1831
1872,1874,1853
1891,1874,1820
1846,1805,1841
1837,1817,1872
1857,1823,1868
1914,1923,1805
1925,1845,1796
1811,1809,1859
1813,1813,1872
1886,1808,1856
1863,1793,1841
1821,1737,1822
1846,1790,1843
1904,1826,1855
1905,1808,1830
1850,1845,1843
1843,1851,1843
1879,1858,1839
1886,1850,1840
1895,1825,1791
1879,1847,1856
1872,1857,1861
1872,1867,1849
1899,1824,1810
1861,1809,1844
1859,1871,1854
1872,1838,1824
1856,1744,1842
1841,1723,1828
1830,1755,1865
1811,1787,1854
1831,1808,1851
1872,1837,1854
1890,1857,1846
1872,1849,1826
1870,1842,1834
1889,1859,1840
1905,1861,1821
1891,1866,1839
1870,1860,1872
1856,1817,1867
1857,1828,1865
1851,1830,1845
1850,1864,1831
1891,1797,1804
1878,1843,1821
1846,1851,1866
1840,1780,1884
1893,1759,1837
1887,1823,1837
1873,1819,1809
1840,1807,1840
1840,1831,1849
1871,1894,1856
1882,1851,1842
1863,1763,1817
1851,1841,1833
1864,1846,1839
1882,1852,1856
1873,1786,1824
1865,1836,1840
1868,1850,1840
1846,1839,1840
1847,1879,1858
1884,1888,1834
1911,1789,1787
1868,1738,1818
1840,1783,1861
1865,1823,1819
1872,1854,1869
1846,1845,1871
1842,1839,1850
1873,1884,1840
1919,1805,1802
1846,1771,1838
1827,1840,1859
1844,1847,1861
1877,1872,1833
1887,1879,1858
1836,1798,1843
1837,1779,1839
1878,1828,1837
1875,1836,1820
1839,1833,1857
1855,1866,1872
1897,1843,1856
1859,1783,1851
1851,1837,1843
1865,1824,1855
1895,1849,1812
1872,1829,1854
1871,1780,1840
1881,1866,1869
1866,1825,1856
1841,1883,1861
1825,1795,1850
1824,1759,1856
1870,1767,1790
1887,1841,1837
1842,1811,1878
1840,1829,1871
1867,1841,1846
1875,1839,1840
1872,1843,1847
1904,1858,1865
1885,1842,1856
1862,1831,1840
1850,1845,1840
1900,1937,1828
1922,1747,1812
1833,1783,1867
1796,1817,1846
1840,1803,1874
1867,1794,1891
1865,1751,1843
1858,1770,1797
1872,1847,1885
1859,1857,1895
1840,1865,1851
1847,1808,1851
1885,1797,1853
1886,1832,1856
1857,1840,1858
1845,1840,1849
1862,1845,1860
1891,1870,1867
1887,1827,1855
1879,1831,1840
1840,1894,1854
1856,1852,1870
1859,1781,1822
1903,1821,1776
1821,1726,1876
1794,1766,1901
1807,1772,1862
1826,1792,1846
1872,1833,1859
1877,1843,1858
1872,1845,1849
1872,1815,1839
1878,1826,1843
1873,1877,1874
1861,1871,1871
1845,1855,1866
1873,1846,1855
1872,1910,1861
1847,1841,1851
1840,1806,1849
1878,1829,1828
1904,1856,1802
1808,1693,1879
1787,1711,1883
1840,1775,1872
1907,1760,1853
1862,1817,1849
1822,1840,1835
1842,1843,1866
1878,1827,1872
1876,1823,1860
1847,1829,1860
1876,1843,1856
1887,1855,1858
1872,1840,1847
1828,1865,1852
1857,1854,1870
1899,1795,1823
1850,1805,1850
1829,1968,1872
1864,1834,1833
1854,1762,1854
1827,1621,1835
1835,1781,1855
1886,1810,1872
1858,1827,1872
1837,1799,1866
1840,1808,1863
1872,1834,1869
1888,1840,1851
1902,1840,1851
1869,1844,1851
1853,1830,1860
1872,1840,1863
1872,1846,1862
1887,1860,1824
1898,1873,1853
1846,1808,1879
1847,1744,1807
1811,1826,1902
1858,1834,1885
1882,1847,1881
1885,1847,1835
1843,1783,1825
1834,1758,1851
1859,1792,1872
1863,1846,1869
1848,1851,1854
1856,1787,1853
1894,1777,1819
1856,1819,1870
1839,1862,1887
1856,1835,1887
1887,1804,1851
1879,1869,1853
1869,1855,1855
1861,1801,1844
1862,1821,1840
1867,1901,1875
1888,1815,1850
1866,1789,1840
1851,1779,1872
1854,1837,1871
1842,1803,1866
1872,1847,1859
1919,1770,1834
1856,1851,1881
1803,1764,1872
1841,1776,1871
1896,1819,1856
1882,1801,1844
1849,1810,1847
1856,1930,1854
1870,1819,1858
1866,1779,1853
1845,1787,1872
1872,1827,1889
1872,1840,1867
1877,1847,1827
1862,1856,1839
1853,1841,1856
1891,1755,1833
1875,1774,1860
1850,1843,1898
1879,1807,1870
1859,1811,1854
1856,1821,1866
1858,1831,1872
1898,1875,1854
1872,1770,1856
1867,1742,1853
1829,1774,1859
1866,1808,1850
1887,1821,1847
1890,1827,1872
1875,1873,1872
1879,1817,1887
1886,1899,1852
1862,1795,1840
1846,1821,1843
1886,1774,1801
1899,1808,1871
1870,1831,1879
1843,1786,1897
1856,1837,1883
1893,1831,1865
1895,1875,1863
1894,1821,1821
1840,1746,1866
1837,1783,1878
1865,1818,1863
1874,1888,1870
1842,1796,1905
1858,1765,1856
1858,1785,1834
1853,1812,1840
1904,1808,1795
1887,1803,1872
1870,1840,1894
1840,1842,1878
1865,1840,1865
1904,1841,1864
1904,1834,1825
1843,1831,1861
1850,1904,1869
1875,1809,1877
1865,1813,1876
1853,1815,1841
1867,1796,1853
1897,1814,1858
1883,1829,1867
1890,1904,1845
1892,1827,1883
1874,1850,1840
1838,1718,1831
1815,1744,1862
1872,1811,1865
1887,1816,1872
1875,1802,1866
1858,1803,1859
1872,1839,1859
1887,1856,1872
1883,1860,1858
1891,1868,1839
1872,1792,1840
1856,1776,1846
1847,1831,1875
1855,1889,1862
1931,1769,1825
1904,1765,1826
1835,1873,1894
1838,1853,1895
1869,1805,1872
1884,1809,1863
1879,1826,1851
1865,1837,1889
1871,1840,1874
1904,1849,1848
1887,1815,1840
1870,1823,1860
1897,2005,1857
1891,1839,1857
1825,1631,1841
1815,1717,1866
1897,1839,1797
1877,1715,1806
1845,1838,1888
1840,1810,1889
1862,1797,1882
1888,1810,1863
1885,1845,1856
1875,1845,1856
1875,1811,1863
1893,1831,1856
1885,1827,1839
1883,1857,1857
1858,1862,1856
1843,1797,1843
1865,1753,1825
1851,1817,1856
1868,1890,1881
1871,1774,1834
1871,1806,1811
1861,1871,1801
1866,1819,1837
1860,1754,1889
1835,1741,1886
1843,1780,1869
1886,1840,1863
1882,1838,1858
1863,1818,1857
1871,1825,1854
1873,1872,1843
1872,1813,1873
1861,1815,1847
1841,1825,1837
1914,1859,1840
1883,1791,1826
1870,1775,1808
1830,1774,1831
1841,1845,1885
1856,1824,1885
1841,1806,1865
1840,1799,1849
1871,1840,1857
1900,1882,1862
1872,1855,1808
1854,1799,1826
1862,1806,1875
1867,1797,1871
1867,1808,1855
1855,1828,1856
1879,1851,1859
1925,1923,1890
1869,1823,1823
1807,1765,1817
1826,1776,1835
1871,1835,1856
1904,1895,1803
1871,1745,1814
1795,1753,1870
1821,1799,1872
1846,1819,1858
1855,1840,1855
1872,1847,1847
1910,1853,1840
1877,1887,1840
1846,1840,1842
1859,1819,1845
1899,1879,1839
1901,1886,1818
1873,1808,1837
1847,1798,1858
1844,1770,1872
1855,1774,1856
1899,1836,1781
1875,1806,1808
1836,1849,1850
1789,1810,1859
1807,1751,1856
1853,1781,1849
1883,1823,1846
1875,1840,1833
1857,1840,1834
1876,1858,1849
1898,1894,1856
1878,1869,1839
1853,1798,1830
1877,1862,1842
1902,1867,1850
1886,1794,1819
1841,1840,1790
1843,1808,1839
1904,1836,1840
1834,1776,1855
1812,1766,1843
1825,1819,1840
1862,1863,1840
1863,1837,1838
1841,1796,1840
1859,1839,1840
1866,1854,1829
1867,1853,1826
1866,1845,1840
1882,1850,1839
1897,1863,1845
1874,1850,1840
1876,1861,1833
1873,1957,1825
1871,1827,1801
1867,1679,1806
1803,1762,1886
1839,1819,1861
1872,1808,1830
1863,1776,1807
1825,1855,1845
1846,1857,1845
1859,1815,1858
1846,1787,1846
1840,1787,1834
1858,1831,1840
1872,1844,1845
1861,1834,1835
1850,1872,1839
1868,1786,1808
1881,1830,1806
1824,1825,1844
1807,1821,1855
1837,1807,1854
1871,1847,1842
1859,1775,1830
1841,1781,1840
1857,1857,1867
1899,1872,1841
1889,1798,1834
1840,1763,1795
1847,1837,1843
1877,1941,1853
1871,1788,1808
1821,1735,1825
1810,1780,1855
1842,1856,1849
1901,1883,1799
1844,1853,1843
1786,1712,1842
1826,1753,1836
1840,1795,1813
1853,1812,1809
1867,1863,1823
1883,1852,1830
1855,1843,1839
1855,1866,1809
1866,1820,1827
1886,1859,1825
1935,1835,1797
1845,1783,1783
1821,1814,1795
1809,1799,1839
1802,1767,1855
1808,1802,1850
1872,1881,1837
1881,1837,1844
1849,1789,1806
1827,1798,1807
1858,1860,1824
1879,1850,1821
1884,1843,1825
1856,1840,1827
1846,1781,1815
1858,1819,1822
1878,1851,1781
1872,1831,1758
1839,1776,1854
1833,1801,1871
1841,1831,1854
1853,1792,1820
1859,1791,1808
1853,1811,1834
1853,1873,1829
1879,1856,1826
1882,1825,1830
1872,1833,1819
1872,1835,1822
1851,1851,1821
1864,1852,1826
1891,1858,1814
1893,1877,1776
1856,1870,1815
1857,1847,1827
1878,1828,1836
1872,1794,1812
1814,1790,1811
1829,1786,1840
1868,1776,1839
1852,1797,1825
1859,1809,1808
1872,1830,1807
1904,1815,1819
1892,1835,1806
1882,1846,1846
1872,1872,1856
1879,1882,1837
1872,1851,1819
1859,1845,1817
1893,1844,1830
1935,1961,1833
1856,1840,1815
1843,1757,1791
1888,1731,1778
1847,1733,1823
1823,1729,1837
1839,1791,1834
1881,1904,1823
1914,1799,1762
1884,1804,1840
1862,1843,1855
1893,1861,1841
1924,1872,1827
1906,1858,1807
1887,1831,1807
1894,1860,1830
1926,1856,1835
1895,1839,1835
1874,1855,1833
1904,1888,1827
1907,1865,1866
1846,1785,1811
1837,1776,1791
1885,1828,1808
1919,1727,1825
1904,1706,1743
1856,1808,1827
1840,1871,1885
1879,1867,1863
1904,1851,1829
1893,1843,1814
1906,1860,1830
1921,1862,1835
1909,1855,1840
1887,1868,1819
1911,1950,1811
1936,1778,1836
1903,1765,1840
1861,1872,1830
1825,1758,1839
1900,1759,1759
1879,1775,1830
1870,1827,1871
1877,1842,1853
1906,1869,1840
1909,1837,1825
1903,1827,1829
1919,1846,1832
1929,1861,1840
1921,1866,1830
1936,1893,1801
1899,1825,1815
1883,1840,1851
1925,1967,1845
1907,1797,1817
1850,1791,1821
1889,1810,1819
1919,1886,1770
1852,1810,1861
1861,1840,1855
1908,1764,1856
1915,1794,1846
1920,1828,1829
1916,1858,1833
1923,1872,1840
1926,1872,1839
1914,1856,1840
1927,1904,1834
1942,1882,1836
1934,1838,1841
1913,1847,1840
1945,1870,1807
1943,1821,1797
1904,1718,1808
1834,1837,1875
1857,1840,1899
1925,1818,1872
1884,1755,1829
1881,1801,1815
1926,1798,1762
1920,1852,1847
1921,1879,1893
1879,1870,1893
1889,1859,1856
1936,1878,1815
1934,1858,1795
1904,1819,1856
1913,1887,1873
1946,1840,1847
1905,1750,1836
1857,1751,1824
1898,1822,1842
1927,1851,1843
1938,1831,1811
1981,1897,1793
1885,1850,1863
1858,1865,1867
1879,1856,1851
1921,1863,1845
1920,1894,1847
1930,1894,1841
1907,1895,1849
1919,1867,1817
1923,1824,1842
1955,1853,1858
1931,1887,1875
1898,1862,1833
1929,1835,1837
1947,1790,1797
1890,1814,1842
1872,1875,1877
1912,1895,1871
1952,1939,1855
1958,1926,1842
1938,1882,1832
1889,1815,1839
1892,1823,1854
1902,1859,1854
1911,1883,1845
1949,1918,1862
1949,1933,1841
1905,1876,1841
1913,1853,1840
1947,1904,1855
1977,1941,1801
1936,1794,1801
1890,1801,1854
1901,1923,1879
1919,1877,1878
1915,1837,1862
1906,1825,1840
1927,1904,1849
1967,1934,1854
1935,1854,1844
1903,1855,1842
1934,1851,1842
1933,1871,1854
1923,1892,1858
1927,1931,1853
1935,1935,1831
1929,1856,1842
1954,1851,1820
1897,1766,1854
1865,1795,1851
1875,1949,1867
1894,1914,1854
1886,1792,1850
1904,1809,1851
1932,1906,1856
1930,1866,1843
1901,1845,1855
1918,1875,1862
1945,1894,1856
1936,1918,1850
1923,1919,1855
1917,1887,1859
1922,1865,1854
1966,1957,1840
1939,1822,1789
1874,1756,1872
1848,1855,1904
1889,1889,1863
1892,1849,1849
1902,1819,1809
1904,1867,1869
1902,1889,1871
1903,1873,1863
1924,1910,1866
1943,1921,1858
1936,1891,1834
1911,1861,1843
1902,1855,1872
1931,1871,1874
1925,1911,1858
1902,1863,1854
1920,1918,1803
1958,1862,1847
1898,1822,1884
1841,1824,1920
1889,1814,1886
1892,1808,1843
1887,1843,1849
1883,1861,1854
1913,1883,1856
1952,1884,1819
1925,1873,1850
1904,1872,1882
1915,1888,1881
1915,1895,1873
1909,1885,1863
1902,1871,1857
1904,1878,1859
1936,1936,1858
1934,1893,1856
1951,1903,1792
1875,1843,1846
1840,1759,1887
1892,1776,1872
1897,1836,1912
1865,1797,1877
1895,1825,1847
1923,1839,1840
1901,1882,1851
1885,1859,1870
1918,1875,1872
1919,1882,1871
1897,1878,1856
1919,1879,1830
1934,1875,1852
1896,1913,1876
1887,1858,1860
1920,1869,1803
1947,1849,1847
1837,1856,1878
1815,1827,1877
1858,1867,1863
1936,1963,1854
1894,1843,1859
1835,1727,1862
1856,1773,1855
1898,1845,1870
1896,1883,1844
1878,1863,1840
1893,1867,1861
1929,1867,1859
1907,1873,1846
1891,1904,1834
1904,1866,1823
1910,1840,1835
1889,1872,1860
1882,1844,1859
1871,1838,1872
1902,1858,1865
1914,1934,1856
1863,1872,1839
1870,1780,1871
1877,1840,1859
1853,1820,1847
1847,1829,1847
1872,1857,1850
