1825,1808,1872
1839,1933,1777
1767,1583,1690
1683,1681,1749
1680,1667,1840
1747,1687,1875
1765,1728,1850
1798,1747,1828
1779,1697,1771
1758,1747,1801
1729,1739,1872
1734,1755,1846
1733,1707,1778
1767,1750,1777
1826,1839,1808
1830,1664,1775
1761,1718,1803
1694,1762,1809
1682,1680,1812
1753,1625,1794
1791,1731,1840
1836,1664,1845
1794,1819,1870
1747,1793,1822
1714,1717,1781
1767,1780,1756
1738,1748,1799
1729,1710,1807
1745,1719,1791
1776,1719,1825
1805,1843,1863
1799,1781,1887
1724,1725,1794
1754,1685,1744
1778,1671,1796
1744,1698,1824
1734,1759,1815
1762,1831,1781
1770,1806,1811
1761,1732,1823
1808,1699,1761
1778,1699,1811
1767,1759,1838
1742,1680,1792
1732,1729,1834
1774,1783,1901
1786,1818,1850
1808,1683,1802
1797,1744,1798
1791,1886,1814
1817,1782,1862
1869,1802,1840
1767,1799,1763
1730,1719,1793
1744,1730,1803
1813,1611,1766
1840,1719,1838
1788,1825,1895
1777,1786,1866
1747,1725,1826
1786,1816,1856
1843,1877,1899
1831,1799,1833
1791,1741,1799
1783,1759,1791
1799,1834,1845
1813,1808,1789
1797,1747,1821
1846,1755,1849
1843,1648,1799
1778,1721,1872
1779,1776,1904
1806,1834,1919
1813,1821,1818
1809,1833,1794
1828,1702,1842
1825,1803,1853
1799,1858,1845
1845,1859,1841
1826,1680,1771
1795,1597,1790
1781,1859,1847
1790,1774,1862
1787,1753,1891
1814,1833,1862
1853,1792,1856
1847,1775,1858
1819,1825,1838
1882,1937,1872
1867,1887,1872
1791,1726,1827
1779,1691,1772
1820,1716,1838
1858,1818,1863
1849,1825,1840
1830,1885,1834
1801,1807,1885
1819,1774,1851
1849,1755,1856
1845,1750,1846
1873,1840,1869
1855,1904,1845
1802,1760,1792
1842,1809,1851
1870,1809,1865
1818,1787,1844
1778,1734,1829
1811,1793,1851
1845,1839,1841
1871,1823,1873
1851,1840,1851
1817,1936,1853
1839,1868,1862
1869,1815,1826
1820,1734,1819
1797,1647,1815
1808,1772,1878
1856,1835,1854
1846,1830,1818
1863,1846,1863
1872,1767,1882
1883,1759,1796
1842,1872,1819
1797,1857,1839
1834,1872,1835
1904,1844,1865
1871,1843,1863
1818,1888,1872
1841,1873,1808
1819,1693,1775
1821,1697,1830
1854,1729,1901
1856,1765,1833
1843,1879,1815
1837,1895,1855
1846,1843,1876
1891,1762,1840
1905,1863,1857
1846,1887,1878
1855,1874,1845
1872,1839,1808
1840,1786,1829
1829,1871,1856
1840,1930,1842
1906,1807,1812
1856,1714,1886
1821,1760,1881
1830,1814,1856
1873,1805,1875
1940,1817,1844
1873,1808,1829
1840,1834,1849
1833,1872,1871
1867,1969,1888
1855,1904,1855
1838,1787,1837
1831,1805,1846
1855,1840,1863
1875,1835,1874
1881,1858,1862
1885,1879,1874
1887,1905,1843
1904,1891,1881
1856,1791,1873
1871,1717,1808
1869,1882,1843
1897,1803,1831
1855,1815,1905
1825,1868,1878
1881,1894,1830
1882,1712,1819
1840,1841,1861
1822,1933,1921
1875,1929,1889
1889,1968,1891
1920,1819,1897
1881,1746,1813
1858,1866,1829
1875,1813,1849
1822,1799,1877
1867,1842,1840
1863,1806,1839
1824,1822,1863
1859,1843,1879
1906,1876,1907
1904,1890,1887
1893,1875,1827
1921,1758,1796
1834,1795,1877
1829,1925,1918
1865,1999,1893
1882,1840,1865
1856,1746,1846
1851,1827,1873
1874,1877,1904
1917,1883,1903
1910,1901,1895
1882,1744,1808
1842,1823,1850
1879,1968,1889
1924,1930,1887
1869,1779,1867
1853,1821,1899
1882,1779,1798
1943,1843,1769
1797,1789,1873
1798,1855,1907
1823,1830,1887
1859,1842,1887
1905,1899,1876
1913,1902,1881
1913,1810,1890
1858,1853,1849
1879,1918,1829
1983,1965,1879
1882,1893,1898
1826,1808,1859
1875,1845,1859
1904,1856,1827
1934,1886,1852
1920,1911,1856
1886,1904,1839
1931,1862,1858
1872,1813,1885
1865,1835,1872
1889,1747,1791
1870,1792,1792
1857,1776,1855
1867,1907,1967
1831,1862,1870
1856,1855,1823
1915,1917,1872
1946,1929,1904
1917,1887,1879
1890,1847,1865
1881,1846,1840
1924,1920,1847
1853,1801,1806
1856,1825,1851
1919,1953,1883
1895,1714,1837
1898,1853,1844
1878,1829,1840
1879,1872,1845
1833,1858,1857
1851,1831,1886
1872,1872,1871
1902,1870,1855
1858,1840,1838
1847,1858,1818
1877,1953,1821
1889,1802,1836
1905,1730,1834
1884,1888,1877
1872,1917,1847
1883,1723,1844
1857,1835,1866
1857,1933,1892
1904,1872,1815
1950,1845,1758
1885,1775,1805
1786,1821,1882
1761,1795,1824
1835,1845,1840
1904,1926,1866
1903,1810,1833
1862,1862,1860
1809,1792,1859
1847,1791,1824
1863,1872,1827
1865,1861,1838
1856,1869,1885
1899,1923,1879
1882,1859,1810
1873,1836,1815
1846,1829,1857
1914,1904,1872
1897,1858,1811
1890,1776,1723
1845,1754,1810
1841,1825,1890
1866,2064,1871
1807,1834,1826
1797,1758,1847
1903,1892,1851
1859,1842,1847
1820,1831,1834
1859,1825,1833
1849,1851,1860
1872,1864,1840
1885,1763,1857
1867,1840,1841
1854,1872,1802
1851,1899,1826
1893,1783,1808
1872,1869,1867
1852,1904,1822
1906,2016,1823
1872,1787,1875
1787,1763,1875
1809,1839,1878
1852,1839,1858
1845,1798,1847
1917,1868,1854
1872,1904,1839
1874,1844,1841
1872,1808,1829
1854,1859,1865
1825,1873,1855
1858,1875,1866
1894,1780,1872
1865,1854,1861
1872,1975,1872
1864,1887,1818
1842,1732,1815
1847,1861,1840
1886,1845,1827
1889,1801,1916
1840,1834,1889
1818,1883,1882
1827,1823,1857
1872,1823,1861
1926,1847,1845
1893,1876,1882
1840,1883,1893
1826,1774,1824
1851,1767,1833
1840,1890,1899
1875,1885,1889
1872,1843,1854
1844,1882,1840
1871,1955,1875
1869,1817,1908
1877,1788,1837
1872,1857,1840
1872,1729,1834
1861,1822,1881
1841,1840,1886
1872,1781,1850
1823,1810,1879
1829,1828,1917
1872,1894,1871
1877,1945,1899
1904,1891,1898
1869,1840,1871
1837,1833,1845
1805,1798,1835
1831,1836,1861
1871,1870,1886
1907,1869,1876
1861,1829,1861
1856,1926,1870
1906,1777,1814
1881,1717,1820
1811,1832,1883
1815,1858,1907
1839,1889,1906
1872,1860,1873
1844,1840,1861
1834,1853,1882
1872,1903,1855
1885,1862,1873
1857,1859,1869
1875,1833,1887
1872,1883,1906
1842,1853,1865
1854,1797,1808
1881,1780,1818
1885,1794,1821
1868,1774,1868
1795,1901,1909
1792,1895,1906
1847,1945,1914
1903,1862,1869
1936,1872,1870
1872,1952,1894
1851,1806,1855
1823,1777,1851
1843,1829,1862
1860,1809,1885
1881,1819,1843
1882,1794,1811
1853,1845,1871
1818,1851,1903
1867,1929,1914
1899,1806,1855
1859,1830,1849
1877,1846,1833
1850,1898,1887
1846,1933,1909
1814,1776,1872
1842,1742,1843
1878,1847,1888
1858,1885,1887
1821,1775,1823
1822,1786,1844
1873,1887,1879
1911,1856,1845
1903,1791,1869
1865,1906,1891
1825,1859,1840
1833,1843,1856
1871,1856,1855
1865,1765,1825
1883,1914,1904
1897,1931,1931
1830,1872,1891
1807,1822,1842
1829,1842,1840
1911,1935,1854
1904,1813,1857
1865,1766,1879
1865,1905,1898
1822,1771,1857
1831,1718,1833
1829,1808,1859
1845,1866,1868
1882,1903,1867
1879,1877,1868
1907,1766,1856
1892,1873,1885
1822,1973,1843
1812,1748,1809
1881,1747,1879
1854,1827,1862
1823,1862,1857
1837,1843,1872
1855,1810,1854
1863,1850,1855
1910,1894,1872
1887,1855,1869
1870,1760,1831
1854,1815,1843
1855,1879,1887
1837,1920,1886
1854,1877,1861
1893,1854,1829
1849,1776,1847
1855,1822,1895
1839,1841,1879
1849,1890,1804
1854,1840,1827
1840,1823,1897
1840,1782,1913
1876,1837,1852
1869,1818,1811
1854,1767,1825
1840,1813,1875
1856,1915,1892
1894,1847,1834
1873,1835,1856
1866,1872,1917
1878,1872,1891
1841,1799,1809
1825,1849,1815
1818,1844,1866
1834,1747,1872
1842,1814,1857
1859,1843,1858
1863,1862,1889
1882,1895,1869
1855,1874,1840
1841,1751,1826
1835,1666,1826
1895,1817,1903
1867,1835,1879
1856,1894,1843
1840,1849,1875
1877,1866,1930
1843,1861,1866
1802,1818,1840
1809,1828,1872
1855,1856,1866
1870,1841,1841
1861,1766,1841
1872,1887,1899
1851,1851,1872
1820,1755,1825
1837,1745,1845
1840,1791,1872
1876,1797,1849
1892,1872,1905
1840,1856,1858
1861,1833,1825
1839,1904,1853
1813,1809,1840
1821,1761,1859
1850,1808,1895
1888,1877,1895
1878,1849,1869
1854,1877,1877
1856,1872,1846
1856,1821,1835
1821,1773,1830
1823,1806,1840
1834,1794,1849
1895,1744,1817
1870,1681,1787
1813,1851,1923
1808,1887,1936
1844,1812,1879
1869,1866,1845
1851,1840,1847
1853,1824,1858
1840,1803,1879
1879,1887,1875
1857,1782,1827
1850,1822,1857
1879,1916,1875
1888,1875,1879
1847,1818,1847
1833,1811,1867
1856,1817,1830
1856,1776,1757
1851,1915,1840
1799,1718,1874
1846,1792,1888
1838,1839,1847
1852,1863,1874
1854,1949,1893
1845,1799,1846
1839,1783,1831
1857,1863,1840
1863,1824,1883
1850,1843,1886
1856,1838,1847
1837,1804,1838
1863,1849,1872
1875,1842,1853
1888,1738,1791
1826,1837,1834
1806,1814,1882
1850,1829,1867
1842,1831,1843
1856,1837,1851
1843,1821,1849
1857,1841,1847
1872,1808,1818
1889,1878,1859
1854,1868,1884
1839,1811,1822
1871,1855,1770
1885,1869,1859
1840,1885,1921
1808,1711,1857
1841,1681,1781
1853,1839,1857
1845,1882,1882
1878,1857,1875
1877,1834,1844
1834,1798,1852
1798,1759,1851
1825,1809,1834
1853,1840,1838
1899,1802,1831
1854,1918,1901
1849,1913,1902
1857,1843,1859
1841,1787,1851
1846,1802,1929
1874,1894,1829
1862,1846,1837
1776,1895,1873
1771,1761,1827
1840,1787,1839
1883,1892,1866
1843,1781,1874
1845,1748,1847
1833,1787,1831
1827,1808,1853
1841,1827,1856
1840,1845,1865
1859,1870,1869
1872,1869,1861
1916,1769,1800
1887,1703,1901
1868,1999,1981
1782,1984,1872
1754,1833,1775
1800,1813,1808
1872,1872,1858
1871,1855,1887
1833,1776,1811
1821,1842,1825
1808,1777,1856
1839,1792,1878
1895,1871,1869
1925,1726,1917
1834,1897,1903
1773,1862,1819
1794,1755,1813
1846,1789,1869
1883,1882,1870
1858,1883,1861
1846,1805,1808
1872,1839,1838
1855,1871,1869
1838,1872,1849
1847,1861,1874
1872,1872,1899
1872,1742,1870
1842,1766,1775
1802,1779,1789
1795,1808,1890
1850,1935,1937
1863,1936,1927
1823,1773,1822
1806,1763,1795
1837,1781,1822
1862,1854,1850
1856,1859,1866
1859,1871,1886
1846,1832,1841
1811,1729,1811
1795,1792,1846
1827,1776,1821
1871,1797,1877
1838,1794,1851
1811,1857,1882
1840,1897,1878
1840,1897,1847
1839,1902,1845
1851,1807,1856
1874,1780,1852
1842,1849,1873
1813,1824,1893
1843,1816,1863
1879,1894,1840
1851,1741,1824
1818,1776,1865
1841,1725,1840
1836,1850,1881
1851,1947,1918
1811,1840,1840
1799,1807,1811
1813,1778,1809
1849,1879,1862
1840,1877,1872
1840,1791,1856
1855,1782,1855
1842,1820,1871
1827,1838,1864
1825,1816,1865
1840,1835,1879
1849,1778,1847
1863,1760,1803
1845,1825,1835
1833,1830,1893
1847,1885,1893
1824,1869,1884
1840,1797,1872
1829,1862,1865
1852,1855,1857
1845,1793,1838
1819,1781,1847
1808,1773,1914
1835,1755,1840
1805,1792,1870
1808,1826,1893
1829,1821,1883
1823,1823,1857
1838,1842,1843
1840,1824,1841
1857,1732,1835
1851,1833,1872
1857,1872,1890
1819,1875,1872
1838,1848,1850
1852,1803,1872
1825,1671,1841
1796,1715,1866
1809,1788,1867
1855,1750,1821
1858,1809,1854
1825,1840,1881
1838,1815,1881
1836,1810,1855
1840,1841,1826
1847,1779,1776
1803,1817,1840
1813,1872,1872
1845,1811,1860
1843,1780,1835
1839,1872,1831
1855,1856,1840
1856,1857,1846
1837,1821,1849
1817,1772,1774
1832,1806,1821
1809,1814,1850
1814,1699,1807
1859,1711,1793
1853,1856,1843
1822,1809,1856
1839,1793,1841
1815,1794,1839
1813,1755,1776
1835,1855,1819
1856,1904,1811
1855,1828,1819
1835,1835,1831
1814,1841,1835
1802,1814,1798
1831,1783,1786
1842,1845,1819
1845,1858,1842
1859,1851,1840
1839,1845,1872
1805,1744,1786
1795,1713,1798
1788,1791,1854
1804,1851,1843
1839,1845,1821
1871,1807,1774
1836,1826,1837
1801,1877,1851
1799,1883,1814
1826,1842,1807
1835,1823,1829
1840,1804,1806
1856,1857,1824
1846,1904,1837
1853,1919,1829
1810,1811,1872
1776,1713,1842
1814,1763,1820
1818,1808,1833
1827,1818,1843
1853,1774,1792
1853,1850,1837
1835,1859,1843
1824,1749,1771
1847,1891,1840
1847,1915,1848
1822,1928,1857
1803,1835,1877
1809,1870,1872
1825,1808,1839
1834,1821,1835
1840,1855,1851
1851,1897,1835
1838,1853,1835
1852,1866,1847
1840,1818,1852
1818,1744,1838
1817,1791,1835
1840,1802,1833
1857,1754,1789
1835,1856,1840
1823,1920,1863
1854,1795,1798
1850,1889,1839
1795,1867,1883
1795,1870,1874
1822,1863,1854
1853,1844,1840
1856,1862,1834
1874,1913,1842
1846,1834,1847
1819,1811,1852
1831,1912,1843
1840,1841,1791
1840,1746,1790
1818,1818,1866
1826,1853,1866
1842,1850,1844
1840,1867,1834
1856,1731,1776
1829,1895,1841
1823,1923,1879
1842,1796,1844
1817,1747,1798
1820,1872,1840
1833,1909,1862
1811,1839,1862
1823,1808,1851
1856,1801,1801
1843,1885,1853
1842,1904,1867
1840,1854,1842
1841,1838,1831
1841,1840,1826
1843,1945,1823
1857,1859,1844
1845,1805,1829
1825,1839,1834
1807,1778,1814
1803,1795,1856
1823,1838,1863
1857,1807,1803
1874,1829,1776
1821,1852,1856
1799,1871,1872
1804,1838,1845
1825,1822,1833
1829,1855,1835
1842,1888,1840
1858,1870,1835
1854,1871,1831
1838,1856,1838
1845,1814,1823
1859,1844,1834
1835,1924,1840
1807,1953,1850
1833,1839,1843
1875,1750,1789
1822,1653,1797
1802,1812,1867
1829,1856,1872
1809,1856,1856
1819,1865,1840
1842,1808,1830
1850,1897,1825
1824,1870,1807
1837,1786,1823
1835,1811,1856
1851,1873,1856
1841,1830,1823
1840,1761,1807
1840,1904,1861
1840,1930,1876
1821,1836,1847
1824,1802,1838
1832,1826,1847
1870,1885,1808
1856,1792,1850
1839,1826,1862
1829,1831,1870
1840,1840,1856
1872,1778,1838
1826,1776,1841
1795,1872,1856
1831,1808,1795
1853,1802,1787
1836,1908,1872
1824,1867,1889
1829,1872,1885
1840,1872,1860
1834,1841,1843
1851,1799,1794
1815,1767,1838
1818,1807,1859
1840,1813,1854
1840,1837,1849
1861,1820,1838
1863,1872,1852
1854,1881,1835
1840,1801,1833
1846,1794,1808
1808,1802,1822
1824,1742,1813
1829,1860,1872
1838,1885,1862
1840,1831,1835
1855,1906,1861
1815,1885,1890
1811,1776,1862
1820,1746,1827
1826,1807,1843
1841,1819,1849
1853,1872,1835
1857,1808,1828
1840,1801,1841
1847,1874,1869
1858,1969,1877
1833,1851,1831
1827,1664,1745
1839,1747,1830
1812,1921,1917
1831,1927,1894
1843,1951,1879
1871,1830,1819
1835,1664,1839
1813,1776,1863
1827,1811,1844
1820,1835,1840
1819,1824,1853
1805,1863,1852
1825,1798,1812
1869,1801,1825
1861,1854,1899
1829,1825,1857
1825,1824,1859
1884,2005,1934
1906,1929,1909
1856,1780,1776
1812,1796,1839
1824,1801,1867
1843,1807,1836
1838,1808,1903
1874,1802,1819
1890,1861,1773
1847,1925,1891
1837,1856,1905
1765,1792,1812
1776,1827,1852
1801,1815,1894
1850,1869,1840
1872,1834,1852
1823,1791,1858
1818,1894,1835
1819,1873,1834
1850,1877,1879
1904,1585,1776
1810,1815,1744
1795,1977,1886
1837,1997,1926
1789,1984,1868
1792,1827,1801
1814,1811,1810
1819,1856,1805
1837,1808,1856
1893,1895,1840
1873,1903,1818
1818,1860,1754
1806,1808,1766
1915,1853,1857
1876,1853,1783
1814,1802,1792
1840,1857,1782
1802,1843,1792
1771,1857,1805
1799,1844,1868
1827,1914,1889
1841,1950,1802
1841,1856,1776
1799,1732,1747
1825,1776,1770
1825,1739,1754
1824,1906,1822
1840,1933,1819
1840,1903,1803
1863,1877,1781
1830,1919,1786
1869,1962,1811
1827,1837,1791
1798,1727,1788
1853,1983,1815
1806,1742,1751
1729,1776,1793
1779,1818,1808
1854,1817,1840
1883,1847,1819
1821,1858,1755
1802,1863,1777
1831,1790,1830
1879,1947,1877
1862,1927,1838
1830,1917,1808
1818,1823,1780
1866,1863,1792
1799,1842,1763
1781,1787,1787
1803,1719,1817
1865,1881,1811
1889,1892,1827
1828,1776,1821
1791,1819,1827
1777,1787,1808
1843,1835,1799
1839,1858,1783
1875,1859,1837
1819,1871,1872
1826,1828,1825
1798,1857,1791
1803,1855,1810
1811,1932,1812
1828,1858,1795
1823,1808,1831
1828,1808,1865
1858,1776,1776
1805,1808,1808
1795,1807,1826
1779,1815,1854
1805,1840,1872
1869,1927,1861
1826,1854,1779
1793,1777,1791
1805,1769,1795
1834,1819,1863
1829,1856,1898
1898,1936,1861
1824,1870,1818
1766,1815,1836
1803,1841,1852
1807,1806,1819
1790,1771,1808
1807,1799,1880
1828,1798,1863
1840,1829,1839
1833,1895,1859
1841,1904,1823
1812,1741,1825
1809,1838,1873
1841,1861,1899
1847,1923,1903
1839,1840,1844
1871,1744,1787
1833,1728,1840
1765,1846,1886
1745,1895,1859
1805,1879,1866
1809,1824,1869
1856,1798,1819
1854,1871,1855
1761,1806,1863
1784,1804,1880
1842,1833,1922
1837,1820,1845
1826,1856,1838
1833,1851,1870
1819,1805,1868
1850,1867,1875
1840,1763,1841
1823,1770,1862
1790,1835,1927
1792,1893,1877
1800,1866,1836
1835,1830,1869
1882,1936,1909
1856,1867,1844
1823,1878,1858
1769,1773,1872
1794,1694,1860
1805,1802,1894
1817,1819,1854
1835,1752,1824
1838,1803,1863
1815,1863,1918
1867,1955,1897
1845,1771,1808
1822,1830,1857
1815,1872,1913
1811,1840,1899
1814,1791,1859
1841,1834,1872
1855,1885,1893
1874,1887,1929
1808,1795,1833
1788,1840,1835
1806,1882,1882
1827,1861,1883
1839,1872,1887
1845,1815,1861
1810,1771,1827
1831,1761,1827
1883,1861,1886
1846,1846,1958
1770,1792,1872
1783,1777,1838
1806,1772,1868
1856,1856,1909
1825,1901,1874
1798,1872,1853
1815,1825,1857
1847,1808,1895
1825,1759,1873
1840,1893,1878
1837,1931,1866
1847,1890,1888
1823,1867,1883
1808,1792,1869
1809,1834,1904
1841,1831,1894
1867,1731,1798
1854,1878,1825
1818,1853,1947
1782,1808,1925
1794,1786,1877
1825,1808,1879
1872,1883,1883
1861,1794,1852
1854,1885,1882
1827,1835,1887
1833,1810,1936
1862,1786,1884
1811,1779,1795
1770,1850,1850
1803,1859,1890
1866,1776,1805
1856,1755,1894
1791,1870,1920
1809,1883,1887
1843,1904,1901
1855,1821,1898
1834,1823,1888
1821,1779,1859
1818,1783,1841
1843,1872,1877
1851,1847,1872
1845,1843,1887
1808,1801,1883
1856,1831,1883
1835,1827,1900
1843,1840,1904
1851,1837,1881
1860,1808,1831
1825,1877,1871
1827,1914,1872
1837,1821,1857
1842,1826,1895
1841,1815,1915
1808,1711,1851
1792,1787,1875
1836,1793,1861
1844,1831,1870
1847,1840,1877
1855,1808,1904
1841,1859,1870
1854,1802,1829
1835,1814,1867
1828,1856,1902
1834,1855,1869
1863,1801,1833
1865,1847,1879
1826,1831,1873
1831,1830,1867
1840,1907,1904
1822,1923,1886
1859,1984,1873
1840,1731,1857
1850,1757,1872
1840,1762,1871
1840,1777,1883
1799,1904,1869
1843,1783,1867
1872,1725,1883
1845,1835,1865
1850,1881,1851
1831,1752,1835
1828,1797,1878
1811,1867,1875
1849,1857,1861
1878,1863,1872
1858,1758,1851
1877,1832,1858
1878,1916,1886
1845,1873,1858
1835,1877,1889
1790,1840,1914
1826,1828,1879
1850,1776,1824
1840,1806,1840
1819,1843,1871
1813,1763,1904
1867,1806,1931
1818,1808,1850
1837,1842,1855
1840,1883,1843
1819,1754,1839
1843,1803,1875
1872,1862,1863
1869,1783,1782
1841,1774,1782
1835,1872,1915
1825,1910,1943
1834,1872,1890
1825,1805,1841
1819,1846,1840
1831,1824,1846
1889,1851,1855
1876,1851,1885
1830,1815,1846
1791,1730,1847
1818,1818,1859
1863,1904,1870
1845,1827,1850
1871,1769,1859
1846,1840,1858
1822,1842,1855
1818,1856,1863
1827,1887,1862
1859,1745,1761
1873,1852,1861
1871,1910,1898
1843,1866,1879
1826,1831,1885
1838,1819,1840
1867,1872,1809
1836,1773,1885
1808,1772,1876
1869,1790,1872
1854,1825,1853
1834,1837,1847
1847,1875,1867
1835,1904,1840
1829,1824,1834
1831,1805,1856
1865,1809,1855
1873,1855,1876
1835,1819,1853
1837,1872,1872
1826,1855,1869
1834,1863,1847
1841,1870,1839
1878,1826,1870
1868,1821,1891
1840,1883,1858
1823,1795,1859
1871,1875,1847
1839,1791,1872
1839,1741,1825
1821,1792,1826
1833,1872,1872
1847,1904,1881
1835,1806,1841
1840,1731,1792
1832,1824,1857
1872,1903,1902
1846,1920,1901
1795,1837,1856
1817,1835,1842
1852,1854,1849
1871,1867,1845
1901,1891,1877
1828,1796,1856
1815,1819,1849
1826,1906,1834
1862,1749,1825
1823,1755,1872
1822,1783,1858
1847,1782,1845
1839,1788,1808
1853,1834,1882
1846,1795,1822
1855,1831,1869
1840,1934,1901
1824,1933,1897
1826,1843,1843
1849,1840,1842
1824,1805,1836
1826,1866,1849
1864,1919,1860
1835,1819,1878
1821,1784,1853
1856,1857,1869
1865,1904,1863
1850,1838,1827
1848,1840,1805
1835,1723,1813
1782,1818,1901
1811,1801,1887
1859,1830,1899
1799,1858,1882
1817,1817,1818
1850,1750,1791
1858,1857,1899
1843,1871,1912
1861,1894,1873
1841,1847,1855
1824,1829,1856
1840,1878,1902
1839,1886,1850
1859,1783,1773
1840,1776,1833
1842,1887,1878
1842,1817,1863
1785,1855,1855
1779,1833,1878
1840,1869,1894
1851,1929,1858
1833,1826,1849
1866,1712,1825
1841,1808,1875
1853,1897,1888
1851,1897,1894
1859,1878,1900
1808,1808,1858
1834,1803,1790
1858,1825,1811
1847,1893,1863
1840,1837,1842
1846,1833,1870
1811,1882,1853
1807,1823,1845
1829,1861,1875
1829,1904,1875
1804,1776,1833
1826,1798,1855
1822,1725,1813
1831,1807,1834
1840,1870,1872
1805,1887,1869
1826,1804,1882
1865,1799,1827
1856,1875,1861
1823,1860,1856
1825,1839,1859
1853,1867,1849
1842,1881,1859
1867,1887,1838
1840,1823,1835
1842,1774,1805
1857,1790,1861
1789,1840,1870
1767,1799,1847
1855,1834,1832
1851,1809,1853
1817,1879,1889
1854,1933,1897
1840,1828,1819
1781,1769,1841
1801,1814,1861
1829,1830,1862
1865,1867,1867
1847,1855,1840
1841,1812,1839
1826,1764,1813
1819,1870,1835
1829,1924,1853
1829,1859,1862
1853,1811,1843
1870,1939,1822
1835,1840,1873
1798,1774,1851
1829,1782,1840
1872,1737,1759
1813,1841,1861
1801,1855,1871
1856,1843,1862
1832,1885,1881
1794,1853,1833
1816,1898,1856
1812,1810,1857
1787,1772,1819
1819,1775,1808
1856,1839,1847
1862,1872,1875
1857,1873,1841
1881,1871,1813
1851,1792,1843
1819,1869,1872
1828,1863,1847
1821,1825,1833
1835,1787,1807
1821,1877,1862
1808,1882,1891
1853,1831,1870
1827,1887,1847
1811,1821,1840
1809,1782,1825
1849,1759,1867
1865,1861,1876
1810,1824,1849
1837,1819,1840
1857,1847,1855
1829,1903,1856
1808,1906,1858
1831,1906,1808
1855,1712,1792
1842,1791,1868
1820,1809,1872
1831,1849,1850
1811,1875,1893
1828,1874,1874
1835,1842,1883
1863,1867,1865
1840,1834,1825
1821,1856,1856
1834,1808,1866
1840,1895,1844
1861,1821,1808
1854,1808,1853
1820,1859,1904
1856,1941,1873
1840,1886,1825
1840,1779,1834
1836,1845,1893
1843,1859,1904
1846,1862,1863
1840,1843,1817
1840,1779,1820
1856,1771,1854
1825,1770,1836
1813,1894,1854
1832,1853,1856
1869,1854,1855
1849,1845,1873
1845,1875,1883
1838,1797,1830
1840,1831,1839
1889,1842,1846
1840,1728,1773
1808,1862,1888
1817,1926,1906
1839,1919,1881
1857,1849,1879
1883,1739,1862
1839,1870,1808
1840,1751,1814
1845,1749,1845
1882,1877,1891
1827,1889,1878
1817,1823,1834
1819,1790,1807
1872,1765,1797
1887,1920,1849
1849,1946,1903
1819,1813,1856
1844,1797,1852
1852,1847,1856
1861,1853,1856
1851,1801,1840
1877,1853,1874
1895,1791,1826
1870,1787,1847
1826,1875,1847
1830,1799,1798
1818,1857,1799
1841,1904,1906
1829,1845,1884
1803,1862,1851
1831,1771,1837
1856,1798,1853
1833,1907,1840
1821,1695,1822
1861,1739,1829
1901,1677,1780
1837,1834,1838
1806,1978,1904
1805,1975,1875
1810,1823,1839
1822,1761,1904
1839,1846,1881
1850,1826,1838
1870,1855,1839
1831,1838,1845
1811,1813,1879
1855,1839,1845
1847,1809,1823
1856,1795,1833
1840,1851,1872
1839,1854,1851
1860,1829,1836
1868,1817,1840
1865,1871,1881
1854,1893,1879
1847,1851,1846
1834,1850,1823
1806,1738,1815
1810,1780,1838
1845,1872,1869
1865,1886,1886
1812,1775,1889
1837,1920,1865
1814,1782,1819
1804,1709,1827
1855,1728,1794
1869,1840,1853
1845,1841,1876
1838,1919,1873
1849,1893,1869
1850,1850,1840
1889,1869,1845
1861,1831,1839
1821,1793,1847
1819,1878,1866
1838,1904,1857
1818,1875,1839
1838,1919,1839
1861,1792,1860
1883,1712,1835
1852,1767,1847
1808,1811,1856
1835,1798,1809
1837,1839,1840
1836,1866,1874
1834,1872,1901
1847,1905,1850
1808,1833,1815
1813,1787,1822
1851,1783,1845
1871,1905,1875
1854,1924,1872
1875,1827,1879
1839,1835,1869
1854,1833,1829
1805,1870,1835
1817,1840,1836
1834,1807,1855
1840,1786,1834
1845,1786,1770
1822,1807,1842
1808,1863,1936
1795,1927,1914
1794,1898,1845
1821,1831,1815
1826,1798,1840
1841,1853,1862
1855,1872,1850
1840,1858,1843
1856,1840,1858
1872,1883,1840
1869,1855,1831
1822,1833,1865
1817,1895,1867
1833,1891,1836
1841,1808,1839
1813,1781,1840
1856,1850,1866
1840,1873,1872
1839,1893,1876
1857,1803,1837
1830,1795,1827
1822,2015,1841
1820,1886,1866
1823,1787,1863
1840,1749,1853
1867,1808,1829
1867,1894,1856
1830,1869,1845
1826,1875,1854
1869,1839,1846
1807,1837,1808
1806,1834,1834
1805,1847,1855
1840,1850,1853
1871,1904,1901
1872,1926,1855
1822,1835,1830
1767,1773,1841
1811,1760,1840
1872,1923,1866
1873,1703,1803
1797,1840,1845
1774,1873,1853
1834,1792,1827
1856,1874,1873
1838,1968,1889
1809,1857,1872
1808,1825,1837
1835,1799,1826
1840,1881,1853
1886,1934,1897
1898,1919,1910
1808,1983,1813
1798,1807,1808
1835,1840,1895
1869,1823,1892
1823,1866,1812
1792,1701,1795
1809,1750,1818
1840,1799,1809
1869,1829,1835
1872,1846,1845
1809,1961,1889
1767,1893,1871
1791,1847,1860
1828,1761,1811
1846,1840,1862
1877,1889,1897
1831,1917,1859
1841,1911,1836
1829,1923,1833
1856,1871,1839
1825,1807,1852
1827,1777,1839
1837,1711,1782
1837,1792,1842
1839,1890,1897
1835,1875,1879
1833,1865,1869
1797,1849,1835
1797,1791,1853
1856,1847,1857
1833,1776,1802
1840,1791,1808
1834,1872,1901
1840,1888,1904
1874,1918,1873
1818,1830,1818
1834,1818,1845
1872,1856,1872
1862,1911,1843
1863,1701,1735
1790,1802,1851
1813,1844,1918
1856,1840,1916
1853,1858,1898
1791,1861,1821
1791,1724,1759
1815,1817,1836
1821,1854,1888
1849,1939,1895
1857,1905,1867
1872,1859,1872
1856,1808,1875
1856,1776,1847
1808,1829,1794
1808,1703,1718
1818,1795,1829
1839,1914,1920
1860,1872,1885
1879,1876,1851
1837,1754,1838
1808,1883,1856
1791,1865,1842
1835,1856,1841
1836,1817,1840
1824,1808,1858
