1847,1819,1843
1839,1823,1858
1807,1821,1845
1807,1840,1849
1815,1862,1838
1819,1859,1837
1810,1805,1846
1831,1846,1858
1839,1850,1835
1831,1740,1791
1817,1745,1829
1815,1840,1872
1840,1893,1881
1855,1894,1862
1824,1842,1853
1807,1792,1808
1809,1787,1815
1824,1842,1866
1823,1856,1868
1856,1822,1851
1811,1825,1840
1813,1770,1835
1840,1843,1859
1825,1861,1847
1823,1858,1835
1825,1894,1830
1793,1808,1843
1807,1780,1847
1839,1761,1816
1825,1845,1869
1825,1855,1874
1814,1815,1847
1835,1872,1835
1831,1853,1840
1840,1815,1856
1818,1839,1862
1825,1844,1846
1815,1831,1840
1823,1803,1847
1843,1808,1851
1870,1840,1853
1840,1900,1850
1791,1786,1839
1792,1748,1824
1834,1806,1834
1823,1831,1819
1814,1744,1807
1839,1881,1879
1840,1859,1877
1822,1875,1879
1808,1888,1858
1810,1845,1851
1831,1857,1845
1831,1843,1843
1821,1816,1844
1817,1841,1841
1826,1822,1837
1824,1809,1845
1846,1834,1863
1835,1847,1851
1825,1857,1819
1843,1835,1831
1810,1807,1853
1795,1785,1857
1815,1809,1853
1856,1825,1861
1870,1794,1829
1840,1711,1786
1814,1855,1856
1805,1933,1901
1797,1879,1876
1808,1846,1852
1824,1850,1846
1833,1825,1842
1840,1814,1854
1845,1839,1853
1841,1855,1845
1854,1872,1846
1843,1865,1839
1829,1819,1840
1826,1807,1836
1835,1810,1841
1823,1818,1862
1813,1814,1825
1825,1787,1812
1837,1727,1796
1796,1822,1871
1800,1859,1882
1810,1891,1861
1800,1863,1869
1817,1872,1859
1845,1808,1845
1836,1815,1847
1811,1840,1856
1819,1846,1855
1826,1824,1847
1840,1840,1841
1841,1838,1843
1834,1840,1847
1839,1837,1851
1839,1898,1839
1842,1835,1831
1840,1809,1841
1835,1808,1846
1825,1783,1829
1861,1772,1788
1816,1805,1856
1776,1855,1887
1790,1872,1865
1808,1858,1853
1819,1789,1824
1837,1754,1821
1833,1862,1872
1807,1881,1861
1808,1850,1849
1819,1840,1846
1849,1853,1851
1831,1856,1847
1834,1902,1829
1823,1827,1840
1837,1845,1842
1818,1797,1842
1831,1766,1847
1869,1810,1844
1845,1855,1835
1825,1733,1794
1818,1781,1836
1826,1847,1887
1837,1885,1883
1835,1842,1850
1806,1808,1850
1843,1799,1842
1831,1853,1839
1803,1867,1840
1826,1870,1840
1838,1882,1862
1805,1881,1853
1808,1878,1861
1817,1810,1840
1835,1808,1837
1824,1827,1839
1825,1835,1845
1835,1830,1854
1847,1879,1846
1836,1845,1830
1833,1783,1839
1827,1789,1846
1837,1820,1791
1825,1808,1835
1826,1872,1891
1834,1831,1851
1817,1789,1834
1803,1797,1872
1808,1801,1863
1836,1780,1850
1825,1871,1872
1811,1899,1858
1813,1847,1840
1826,1802,1840
1833,1817,1846
1840,1868,1846
1839,1851,1847
1815,1835,1844
1833,1833,1851
1833,1849,1845
1819,1841,1845
1818,1840,1856
1825,1904,1862
1826,1824,1837
1842,1798,1818
1843,1734,1775
1811,1805,1840
1798,1862,1883
1821,1844,1874
1831,1808,1850
1810,1834,1829
1808,1826,1823
1819,1762,1837
1808,1789,1863
1831,1833,1852
1831,1849,1846
1857,1842,1843
1840,1811,1824
1845,1771,1820
1834,1836,1866
1801,1883,1863
1814,1870,1854
1817,1841,1853
1856,1866,1852
1851,1798,1835
1840,1773,1825
1845,1811,1835
1815,1888,1865
1805,1856,1879
1808,1830,1872
1840,1865,1851
1837,1856,1843
1788,1744,1815
1803,1798,1846
1813,1856,1865
1847,1855,1846
1847,1852,1852
1836,1840,1849
1827,1843,1850
1840,1856,1843
1850,1847,1840
1840,1849,1843
1839,1824,1843
1838,1870,1859
1846,1872,1848
1841,1760,1810
1811,1813,1842
1829,1861,1851
1819,1824,1818
1803,1826,1862
1818,1846,1885
1845,1867,1871
1847,1824,1845
1829,1807,1850
1850,1852,1858
1867,1861,1844
1821,1841,1855
1826,1836,1819
1833,1783,1829
1834,1845,1856
1857,1833,1838
1837,1868,1857
1806,1859,1857
1814,1872,1852
1830,1863,1853
1835,1847,1855
1830,1840,1850
1842,1851,1840
1830,1869,1834
1840,1822,1846
1841,1833,1856
1853,1810,1819
1853,1875,1841
1840,1805,1815
1836,1853,1843
1845,1954,1872
1849,1861,1858
1830,1802,1861
1817,1840,1871
1825,1835,1849
1827,1818,1829
1846,1822,1840
1862,1846,1854
1866,1872,1850
1841,1852,1841
1840,1866,1847
1851,1799,1843
1808,1812,1841
1808,1840,1843
1813,1817,1839
1828,1815,1828
1867,1789,1811
1845,1839,1793
1808,1797,1837
1795,1869,1904
1823,1883,1887
1839,1893,1844
1851,1827,1825
1842,1822,1867
1846,1861,1858
1820,1833,1845
1804,1801,1854
1810,1825,1852
1840,1846,1847
1865,1855,1856
1865,1870,1843
1819,1833,1846
1810,1819,1840
1822,1834,1840
1824,1813,1845
1843,1834,1849
1860,1855,1841
1840,1839,1835
1828,1799,1834
1839,1797,1815
1837,1865,1849
1831,1830,1825
1851,1871,1850
1831,1873,1857
1815,1835,1845
1815,1825,1845
1825,1817,1849
1841,1877,1856
1854,1876,1830
1835,1794,1854
1834,1776,1872
1818,1751,1840
1828,1782,1810
1820,1858,1856
1823,1850,1863
1820,1843,1856
1849,1849,1845
1862,1855,1846
1847,1872,1851
1821,1795,1845
1827,1783,1836
1818,1774,1825
1840,1818,1854
1835,1840,1859
1856,1845,1830
1875,1856,1810
1818,1824,1870
1803,1851,1889
1823,1846,1872
1846,1857,1856
1849,1835,1857
1841,1829,1871
1859,1830,1856
1824,1810,1843
1787,1815,1843
1816,1867,1840
1835,1838,1834
1854,1819,1871
1831,1846,1870
1820,1814,1867
1827,1797,1857
1846,1796,1848
1850,1807,1856
1837,1821,1858
1840,1798,1828
1863,1853,1855
1866,1856,1862
1828,1827,1856
1840,1867,1847
1847,1872,1856
1834,1808,1808
1818,1776,1843
1838,1794,1855
1840,1821,1854
1809,1840,1872
1855,1866,1858
1869,1765,1813
1830,1793,1856
1795,1840,1859
1808,1856,1854
1827,1852,1841
1827,1846,1841
1831,1835,1851
1842,1842,1851
1872,1856,1853
1869,1805,1830
1837,1842,1856
1850,1904,1866
1840,1877,1847
1828,1838,1826
1808,1777,1835
1803,1776,1850
1814,1831,1861
1830,1878,1850
1840,1821,1808
1850,1744,1840
1825,1821,1885
1850,1843,1872
1851,1828,1869
1873,1839,1865
1829,1818,1841
1808,1817,1839
1808,1825,1855
1829,1838,1859
1855,1840,1849
1857,1829,1844
1858,1783,1829
1807,1829,1847
1808,1901,1877
1813,1861,1852
1837,1870,1837
1840,1825,1776
1801,1827,1840
1802,1707,1825
1802,1710,1870
1793,1779,1877
1819,1857,1854
1827,1845,1846
1808,1819,1863
1810,1815,1871
1827,1840,1851
1842,1845,1854
1845,1823,1857
1837,1816,1840
1840,1828,1840
1838,1844,1846
1817,1797,1845
1846,1801,1829
1835,1893,1857
1809,1901,1863
1813,1845,1856
1824,1843,1849
1833,1854,1840
1846,1877,1856
1846,1840,1815
1805,1767,1845
1799,1806,1860
1807,1801,1845
1795,1779,1851
1817,1773,1840
1847,1831,1843
1843,1854,1851
1833,1831,1863
1879,1794,1840
1843,1842,1847
1805,1863,1856
1794,1793,1843
1818,1845,1867
1840,1907,1859
1854,1840,1851
1831,1819,1856
1822,1845,1857
1825,1842,1838
1811,1825,1839
1822,1763,1808
1822,1803,1839
1824,1856,1866
1839,1904,1875
1840,1809,1853
1824,1746,1827
1818,1838,1829
1793,1834,1859
1802,1840,1857
1808,1833,1859
1821,1855,1858
1843,1839,1850
1826,1854,1871
1835,1869,1859
1867,1840,1840
1829,1826,1837
1808,1827,1842
1837,1854,1847
1853,1895,1840
1850,1789,1796
1814,1805,1850
1823,1872,1868
1837,1840,1836
1839,1818,1824
1798,1823,1851
1797,1847,1868
1818,1808,1875
1828,1746,1853
1837,1744,1840
1811,1849,1852
1830,1862,1840
1834,1887,1865
1828,1847,1856
1824,1857,1854
1818,1850,1842
1839,1835,1858
1829,1816,1852
1818,1842,1851
1830,1843,1843
1835,1830,1857
1829,1856,1857
1828,1839,1856
1885,1865,1833
1847,1754,1799
1777,1842,1823
1803,1733,1838
1824,1853,1885
1822,1823,1873
1815,1825,1867
1828,1793,1847
1808,1861,1865
1830,1873,1866
1821,1847,1850
1827,1837,1847
1847,1854,1845
1843,1853,1853
1823,1840,1858
1824,1838,1860
1847,1865,1856
1840,1871,1840
1821,1836,1824
1827,1826,1853
1873,1829,1842
1863,1750,1808
1808,1819,1865
1799,1856,1872
1792,1852,1841
1808,1822,1834
1812,1859,1869
1835,1849,1855
1842,1841,1846
1851,1821,1855
1840,1819,1854
1823,1840,1849
1867,1845,1846
1858,1862,1847
1827,1861,1840
1826,1774,1829
1838,1845,1854
1840,1872,1857
1847,1883,1859
1854,1776,1827
1856,1843,1852
1829,1895,1863
1818,1842,1858
1834,1808,1840
1813,1729,1793
1811,1823,1845
1840,1879,1869
1842,1823,1837
1842,1835,1854
1825,1850,1849
1822,1835,1865
1834,1831,1856
1840,1814,1856
1852,1818,1853
1851,1819,1855
1872,1861,1851
1871,1859,1846
1840,1831,1847
1825,1806,1856
1835,1809,1853
1858,1894,1840
1846,1889,1857
1790,1776,1838
1809,1812,1853
1840,1855,1855
1855,1873,1844
1843,1817,1845
1846,1792,1825
1832,1813,1840
1818,1805,1856
1823,1842,1869
1841,1866,1872
1841,1859,1857
1851,1823,1825
1854,1811,1838
1835,1856,1857
1861,1866,1859
1872,1856,1850
1829,1798,1847
1820,1829,1843
1825,1830,1843
1829,1823,1843
1843,1821,1855
1859,1835,1854
1877,1846,1846
1875,1854,1829
1815,1801,1840
1821,1779,1851
1801,1808,1867
1813,1841,1869
1818,1811,1854
1843,1831,1848
1861,1813,1840
1861,1776,1819
1858,1831,1867
1849,1872,1904
1855,1866,1875
1853,1809,1850
1851,1791,1842
1840,1851,1855
1841,1877,1869
1836,1859,1862
1824,1871,1843
1857,1861,1851
1870,1839,1847
1865,1795,1840
1863,1711,1810
1813,1805,1862
1781,1845,1857
1808,1803,1803
1824,1802,1849
1840,1828,1878
1823,1857,1877
1814,1825,1856
1830,1792,1840
1818,1855,1859
1840,1872,1861
1843,1845,1858
1823,1840,1859
1853,1883,1863
1872,1872,1845
1852,1808,1830
1823,1827,1853
1808,1834,1856
1821,1821,1846
1829,1849,1851
1830,1809,1856
1853,1794,1843
1863,1818,1840
1852,1818,1855
1807,1814,1844
1808,1834,1849
1839,1862,1845
1840,1838,1839
1831,1773,1791
1833,1757,1840
1839,1844,1862
1841,1863,1851
1827,1895,1863
1836,1883,1876
1863,1895,1867
1837,1855,1862
1820,1804,1866
1833,1829,1861
1834,1845,1843
1837,1840,1846
1831,1819,1850
1854,1824,1845
1871,1841,1845
1856,1871,1854
1836,1850,1850
1853,1821,1840
1840,1781,1842
1823,1813,1857
1838,1818,1859
1884,1791,1831
1878,1785,1846
1803,1904,1894
1791,1895,1874
1829,1864,1855
1844,1852,1840
1847,1859,1840
1849,1834,1847
1839,1806,1849
1856,1819,1840
1855,1857,1851
1840,1872,1846
1846,1906,1853
1840,1811,1845
1822,1810,1842
1829,1872,1843
1839,1822,1844
1831,1819,1852
1841,1808,1857
1858,1792,1833
1842,1787,1803
1787,1842,1840
1796,1830,1872
1839,1782,1842
1855,1846,1850
1855,1866,1859
1866,1859,1863
1859,1859,1870
1868,1830,1841
1857,1785,1806
1836,1867,1872
1795,1872,1874
1827,1856,1863
1859,1867,1841
1858,1847,1817
1855,1824,1838
1871,1808,1872
1872,1825,1833
1808,1792,1834
1827,1803,1837
1857,1842,1862
1868,1886,1839
1849,1853,1837
1818,1740,1819
1830,1834,1841
1831,1847,1862
1845,1779,1852
1867,1690,1779
1874,1815,1861
1828,1927,1887
1807,1879,1865
1838,1861,1844
1859,1899,1847
1841,1843,1838
1839,1847,1810
1840,1825,1829
1845,1842,1842
1862,1917,1831
1843,1814,1783
1824,1778,1833
1840,1797,1853
1854,1818,1785
1840,1845,1823
1813,1818,1828
1802,1811,1821
1821,1869,1844
1861,1878,1842
1840,1807,1811
1806,1763,1786
1817,1879,1837
1840,1908,1829
1839,1823,1814
1841,1807,1812
1857,1827,1790
1869,1812,1808
1888,1840,1818
1876,1872,1822
1855,1861,1793
1808,1843,1769
1808,1744,1760
1867,1815,1839
1851,1893,1847
1803,1857,1831
1834,1864,1854
1799,1821,1823
1776,1823,1777
1798,1793,1747
1867,1925,1810
1803,1858,1802
1802,1776,1761
1828,1769,1805
1776,1778,1813
1808,1838,1801
1861,1831,1772
1843,1856,1747
1811,1827,1810
1799,1840,1849
1792,1851,1814
1811,1840,1814
1808,1785,1810
1792,1798,1787
1822,1842,1790
1825,1827,1802
1815,1855,1821
1815,1870,1792
1818,1823,1798
1818,1822,1798
1883,1717,1781
1851,1778,1789
1773,1907,1824
1746,1803,1805
1780,1862,1825
1789,1872,1838
1775,1812,1799
1786,1779,1813
1843,1807,1845
1847,1822,1840
1821,1836,1815
1822,1887,1853
1792,1836,1847
1808,1795,1799
1811,1779,1793
1811,1823,1822
1793,1814,1827
1783,1833,1823
1808,1754,1776
1841,1703,1765
1787,1943,1854
1815,1926,1873
1849,1829,1865
1809,1861,1840
1811,1845,1840
1769,1786,1828
1793,1824,1813
1808,1824,1819
1811,1847,1851
1844,1799,1857
1850,1834,1858
1839,1847,1807
1835,1754,1787
1793,1795,1843
1783,1753,1779
1830,1889,1824
1830,1932,1888
1830,1858,1890
1762,1806,1852
1774,1869,1852
1810,1851,1855
1826,1807,1837
1805,1776,1799
1822,1855,1833
1849,1860,1856
1870,1845,1866
1840,1904,1856
1791,1900,1818
1776,1789,1842
1807,1792,1853
1857,1837,1871
1776,1744,1809
1818,1706,1798
1857,1793,1844
1870,1967,1923
1856,1950,1899
1815,1847,1866
1757,1840,1852
1776,1815,1862
1795,1827,1872
1788,1788,1855
1808,1840,1840
1819,1872,1841
1808,1826,1855
1810,1826,1830
1855,1841,1825
1872,1838,1885
1907,1840,1923
1856,1874,1877
1813,1797,1847
1839,1776,1820
1862,1866,1856
1899,1888,1890
1843,1877,1919
1856,1929,1905
1869,1889,1876
1847,1847,1860
1856,1887,1911
1861,1813,1893
1825,1888,1889
1798,1821,1862
1859,1834,1854
1863,1825,1863
1854,1814,1854
1808,1808,1863
1819,1798,1866
1856,1735,1813
1840,1917,1874
1846,1911,1899
1901,1950,1907
1831,1871,1904
1802,1837,1893
1866,1845,1883
1830,1811,1872
1794,1812,1851
1840,1802,1863
1837,1847,1866
1866,1931,1886
1871,1883,1899
1829,1816,1845
1785,1776,1872
1788,1823,1856
1831,1798,1815
1895,1813,1863
1857,1907,1895
1797,1875,1885
1875,1921,1863
1893,1853,1891
1790,1802,1904
1808,1794,1903
1906,1861,1923
1843,1836,1846
1792,1829,1841
1808,1879,1891
1847,1890,1870
1806,1792,1835
1839,1802,1870
1858,1809,1872
1825,1808,1827
1843,1821,1878
1875,1885,1900
1867,1884,1889
1837,1950,1918
1807,1945,1845
1830,1845,1835
1845,1811,1872
1847,1725,1829
1808,1744,1861
1815,1835,1925
1822,1892,1897
1890,1913,1851
1856,1841,1850
1841,1839,1859
1895,1819,1871
1819,1792,1866
1794,1767,1827
1840,1856,1872
1824,1845,1857
1792,1857,1876
1808,1863,1907
1820,1840,1881
1872,1840,1850
1904,1843,1883
1841,1860,1875
1805,1837,1811
1919,1781,1835
1919,1785,1855
1793,1897,1894
1764,1804,1874
1838,1803,1840
1875,1759,1799
1824,1872,1871
1873,1881,1904
1894,1873,1936
1916,1860,1872
1871,1806,1842
1758,1883,1862
1742,1872,1865
1901,1899,1886
1824,1840,1814
1757,1697,1807
1872,1769,1884
1847,1892,1878
1850,1721,1787
1839,1746,1819
1869,1872,1879
1840,1877,1903
1822,1850,1866
1845,1812,1830
1832,1866,1867
1834,1879,1858
1818,1869,1857
1808,1783,1861
1782,1818,1879
1815,1870,1873
1914,1834,1850
1881,1778,1808
1744,1792,1826
1765,1885,1863
1865,1869,1853
1901,1749,1843
1856,1811,1842
1808,1797,1843
1818,1883,1904
1826,1861,1872
1834,1770,1820
1874,1815,1840
1826,1856,1867
1828,1826,1859
1863,1905,1904
1853,1855,1883
1769,1843,1881
1856,1852,1858
1808,1911,1803
1887,1831,1821
1851,1763,1840
1787,1621,1790
1786,1854,1881
1811,1946,1894
1789,1872,1857
1799,1837,1884
1823,1825,1853
1840,1813,1840
1877,1858,1870
1862,1863,1877
1893,1849,1840
1883,1868,1835
1829,1840,1871
1757,1744,1855
1753,1841,1872
1808,1872,1862
1814,1872,1883
1797,1835,1870
1792,1855,1833
1845,1830,1791
1872,1680,1830
1879,1858,1904
1861,1879,1918
1857,1911,1904
1806,1863,1863
1776,1862,1886
1775,1843,1826
1886,1811,1808
1890,1830,1850
1872,1859,1853
1776,1828,1875
1869,1911,1891
1869,1855,1890
1830,1761,1866
1755,1776,1861
1808,1773,1793
1827,1832,1821
1760,1856,1903
1810,1840,1885
1891,1890,1878
1840,1869,1873
1815,1838,1859
1876,1867,1869
1859,1851,1879
1795,1829,1886
1802,1837,1871
1862,1920,1868
1844,1842,1826
1922,1835,1859
1872,1894,1865
1808,1841,1862
1783,1808,1871
1797,1746,1835
1826,1798,1869
1849,1892,1899
1790,1856,1855
1830,1733,1787
1839,1791,1872
1849,1890,1905
1809,1899,1887
1819,1871,1872
1892,1897,1879
1882,1821,1865
1807,1791,1812
1814,1871,1859
1835,1936,1867
1840,1845,1857
1875,1779,1833
1760,1762,1853
1799,1759,1834
1867,1862,1874
1856,1915,1897
1840,1872,1859
1857,1802,1841
1794,1761,1810
1821,1854,1847
1850,1901,1866
1846,1866,1874
1858,1859,1857
1851,1839,1877
1898,1814,1858
1821,1783,1855
1785,1861,1865
1805,1859,1840
1902,1893,1858
1949,1793,1831
1787,1884,1846
1745,1820,1868
1899,1820,1882
1899,1876,1899
1805,1839,1861
1749,1795,1824
1842,1781,1845
1845,1888,1879
1815,1878,1825
1893,1872,1808
1876,1842,1861
1807,1827,1887
1846,1847,1855
1825,1856,1830
1825,1830,1851
1904,1805,1879
1858,1728,1808
1808,1826,1829
1859,1922,1854
1917,1872,1815
1846,1829,1887
1808,1823,1867
1808,1751,1811
1794,1746,1834
1856,1885,1879
1814,1879,1891
1818,1867,1869
1806,1826,1854
1876,1845,1846
1922,1869,1858
1853,1859,1815
1767,1847,1804
1818,1712,1827
1878,1780,1877
1920,1853,1891
1824,1810,1842
1811,1779,1804
1879,1910,1831
1863,1883,1891
1824,1728,1837
1805,1762,1841
1782,1862,1857
1796,1886,1861
1879,1891,1856
1936,1846,1866
1867,1869,1874
1803,1844,1877
1820,1795,1843
1887,1840,1842
1839,1856,1851
1789,1845,1827
1823,1831,1847
1901,1814,1839
1907,1843,1877
1902,1926,1887
1824,1776,1781
1882,1872,1856
1906,1907,1865
1808,1853,1850
1723,1706,1841
1757,1741,1851
1912,1831,1847
1970,1838,1839
1844,1832,1814
1749,1857,1875
1783,1867,1863
1906,1902,1895
1909,1860,1871
1855,1851,1840
1811,1811,1808
1763,1815,1808
1872,1840,1862
1885,1826,1862
1863,1855,1854
1884,1846,1823
1869,1873,1808
1901,1865,1856
1842,1856,1893
1815,1777,1854
1791,1791,1838
1851,1818,1833
1878,1837,1866
1892,1877,1878
1873,1839,1825
1799,1811,1858
1809,1795,1863
1830,1834,1845
1883,1781,1811
1904,1855,1858
1835,1889,1856
1781,1845,1855
1808,1799,1853
1840,1787,1817
1894,1759,1818
1910,1910,1865
1827,1916,1856
1850,1840,1865
1846,1873,1872
1865,1847,1853
1854,1870,1848
1806,1811,1877
1814,1792,1856
1861,1793,1819
1872,1796,1847
1937,1811,1873
1929,1842,1846
1882,1867,1850
1765,1889,1875
1750,1851,1873
1792,1840,1846
1883,1838,1856
1871,1783,1818
1871,1837,1835
1846,1877,1874
1885,1819,1843
1909,1880,1872
1939,1951,1894
1792,1829,1851
1737,1771,1806
1788,1805,1846
1888,1841,1866
1898,1849,1875
1815,1856,1857
1812,1793,1861
1847,1840,1866
1951,1856,1861
1882,1821,1825
1808,1874,1899
1830,1859,1856
1848,1804,1815
1793,1805,1840
1857,1833,1895
1792,1792,1799
1830,1879,1837
1898,1947,1894
1874,1858,1859
1851,1837,1859
1898,1821,1841
1826,1767,1845
1786,1805,1839
1835,1806,1841
1871,1906,1877
1865,1898,1895
1855,1871,1890
1808,1837,1890
1894,1787,1850
1894,1773,1846
1885,1814,1853
1863,1872,1870
1872,1866,1847
1868,1808,1838
1831,1846,1878
1716,1821,1854
1836,1841,1856
1910,1804,1869
1842,1862,1867
1805,1854,1853
1799,1864,1863
1873,1863,1875
1935,1808,1855
1897,1813,1819
1840,1840,1841
1837,1878,1878
1831,1909,1878
1872,1776,1815
1879,1719,1799
1807,1798,1862
1840,1858,1925
1846,1886,1898
1872,1824,1841
1806,1774,1795
1801,1843,1854
1831,1891,1885
1881,1843,1890
1853,1846,1877
1869,1840,1859
1840,1869,1831
1850,1866,1830
1868,1811,1870
1814,1785,1875
1840,1763,1829
1842,1892,1847
1869,1943,1872
1844,1885,1893
1895,1797,1835
1862,1726,1779
1842,1712,1837
1830,1901,1922
1870,1872,1875
1819,1815,1840
1794,1835,1856
1792,1839,1872
1854,1856,1879
1870,1862,1871
1861,1854,1858
1936,1859,1899
1836,1847,1872
1850,1806,1831
1917,1848,1804
1840,1795,1821
1782,1840,1893
1813,1814,1876
1857,1813,1847
1855,1861,1829
1847,1867,1875
1862,1826,1869
1856,1785,1849
1878,1899,1878
1920,1790,1799
1883,1811,1776
1812,1870,1882
1783,1808,1917
1789,1840,1916
1811,1875,1860
1840,1872,1837
1847,1840,1840
1936,1857,1854
1911,1825,1806
1822,1847,1874
1840,1871,1883
1821,1780,1856
1811,1771,1836
1818,1856,1843
1863,1855,1856
1833,1801,1847
1791,1790,1855
1850,1808,1855
1868,1841,1843
1873,1847,1852
1931,1885,1883
1851,1851,1872
1840,1789,1831
1826,1887,1840
1861,1900,1874
1823,1808,1865
1829,1799,1874
1842,1806,1886
1894,1873,1847
1808,1870,1855
1811,1847,1866
1885,1839,1840
1903,1822,1850
1843,1817,1843
1907,1875,1865
1897,1776,1828
1749,1754,1808
1763,1846,1872
1815,1854,1863
1840,1851,1855
1828,1856,1847
1914,1882,1870
1907,1845,1858
1878,1766,1808
1849,1830,1856
1827,1880,1894
1808,1902,1888
1785,1821,1842
1873,1840,1876
1867,1831,1843
1825,1803,1842
1837,1799,1847
1893,1871,1842
1894,1880,1842
1798,1840,1868
1847,1804,1892
1840,1787,1840
1884,1849,1827
1779,1845,1850
1783,1827,1840
1799,1782,1838
1841,1867,1885
1957,1873,1904
1873,1855,1878
1874,1846,1856
1843,1799,1809
1819,1769,1830
1855,1865,1894
1872,1863,1890
1803,1737,1808
1818,1885,1852
1791,1927,1808
1854,1809,1854
1872,1762,1867
1812,1771,1870
1867,1862,1872
1896,1872,1865
1801,1889,1872
1758,1812,1849
1813,1799,1854
1808,1775,1826
1795,1749,1838
1861,1792,1858
1842,1843,1864
1863,1866,1828
1889,1846,1856
1837,1843,1850
1808,1866,1839
1830,1798,1821
1840,1746,1791
1841,1881,1911
1790,1840,1887
1786,1854,1843
1843,1840,1847
1849,1777,1814
1888,1815,1811
1902,1837,1829
1783,1808,1859
1781,1776,1875
1934,1802,1823
1838,1822,1827
1795,1878,1868
1788,1835,1872
1840,1795,1855
1850,1815,1817
1872,1850,1825
1904,1879,1855
1797,1808,1863
1778,1750,1819
1889,1822,1835
1782,1857,1841
1761,1872,1870
1808,1838,1844
1846,1781,1805
1877,1760,1824
1899,1861,1886
1871,1870,1866
1842,1839,1839
1808,1874,1840
1891,1868,1871
1858,1717,1808
1745,1776,1809
1770,1839,1857
1863,1799,1791
1879,1692,1749
1862,1899,1873
1869,1905,1933
1840,1875,1897
1778,1856,1855
1801,1855,1853
1808,1845,1823
1787,1755,1827
1810,1776,1803
1821,1808,1817
1920,1856,1869
1923,1856,1846
1819,1799,1808
1776,1837,1855
1830,1871,1864
1886,1814,1836
1979,1841,1844
1968,1882,1867
1744,1765,1831
1707,1687,1790
1815,1872,1843
1858,1858,1837
1792,1838,1825
1871,1882,1854
1872,1807,1824
1787,1786,1839
1776,1793,1846
1845,1813,1862
1908,1877,1871
1899,1907,1872
1824,1871,1845
1778,1763,1801
1844,1739,1818
1873,1835,1855
1921,1895,1909
1870,1837,1856
1773,1823,1819
1802,1872,1878
1873,1918,1913
1853,1771,1797
1817,1712,1759
1775,1807,1853
1814,1854,1901
1865,1843,1872
1891,1851,1867
1977,1851,1869
1820,1831,1821
1659,1811,1835
1795,1822,1857
1904,1825,1863
1856,1839,1869
1877,1856,1862
1866,1827,1840
1815,1854,1834
1767,1822,1858
1878,1829,1897
1953,1853,1863
1830,1921,1872
1840,1862,1861
1873,1875,1823
1818,1827,1882
1844,1777,1884
1856,1831,1855
1807,1802,1826
1765,1830,1835
1817,1839,1856
1934,1875,1879
1935,1859,1878
1885,1870,1856
1766,1846,1841
1809,1872,1867
1909,1875,1871
1965,1919,1875
1922,1815,1871
1781,1781,1872
1791,1847,1854
1857,1846,1826
1803,1785,1838
1810,1844,1900
1826,1873,1866
1870,1855,1833
1834,1799,1795
1815,1777,1866
1814,1837,1882
1877,1837,1851
1829,1808,1845
1840,1833,1857
1840,1910,1870
1837,1879,1872
1854,1851,1875
1846,1805,1840
1865,1827,1835
1852,1870,1861
1922,1903,1873
1809,1804,1824
1781,1820,1840
1770,1851,1829
1886,1835,1850
1875,1851,1866
1863,1866,1838
1855,1874,1831
1859,1778,1835
1799,1776,1895
1776,1845,1885
1776,1814,1843
1917,1847,1824
1842,1779,1827
1837,1798,1861
1840,1854,1857
1787,1847,1857
1815,1833,1858
1919,1792,1840
1936,1828,1835
1853,1891,1879
1826,1891,1875
1799,1919,1866
1872,1860,1857
1829,1802,1823
1795,1842,1835
1886,1859,1859
1935,1815,1831
1903,1886,1803
1867,1846,1824
1770,1798,1879
1756,1733,1875
1852,1818,1872
1840,1861,1863
1840,1857,1853
1837,1854,1840
1872,1875,1841
1914,1782,1850
1827,1817,1840
1823,1824,1850
1900,1872,1839
1767,1808,1808
1761,1875,1841
1807,1837,1853
1879,1815,1861
1910,1881,1902
1840,1843,1842
1821,1857,1826
1925,1840,1808
1846,1815,1814
1830,1893,1845
1838,1881,1901
1808,1868,1872
1792,1764,1831
1859,1842,1851
1843,1829,1835
1782,1758,1840
1794,1779,1838
1883,1845,1855
1966,1869,1869
1806,1803,1831
1737,1842,1856
1841,1883,1854
1982,1904,1871
1835,1875,1838
1760,1833,1837
1778,1814,1831
1870,1810,1835
2087,1797,1811
1890,1859,1844
1698,1847,1855
1756,1771,1841
1886,1903,1841
1878,1808,1873
1792,1794,1853
1773,1866,1840
1841,1829,1855
1872,1771,1844
1855,1838,1858
1862,1872,1866
1808,1866,1849
1839,1872,1825
1840,1818,1849
1831,1811,1840
1889,1803,1839
1871,1842,1876
1829,1904,1885
1763,1855,1834
1837,1790,1858
1863,1757,1836
1903,1872,1867
1904,1933,1859
1779,1824,1868
1750,1793,1861
1744,1755,1831
1807,1805,1842
1872,1849,1864
1874,1846,1843
1917,1867,1867
1966,1798,1850
1950,1891,1917
1744,1839,1866
1680,1802,1840
1774,1830,1838
1866,1825,1860
1900,1819,1865
1877,1856,1843
1851,1878,1817
1863,1815,1840
1819,1783,1885
1840,1848,1879
1858,1747,1806
1857,1753,1802
1791,1879,1876
1817,1861,1898
1840,1853,1878
1774,1840,1840
1758,1825,1827
1806,1822,1844
1822,1856,1854
1881,1851,1872
1872,1814,1863
1825,1869,1856
1955,1882,1881
1916,1856,1865
1870,1904,1842
1812,1779,1834
1731,1778,1833
1779,1823,1872
1907,1842,1901
1857,1872,1841
1873,1926,1839
1897,1886,1855
1857,1705,1795
1871,1693,1807
1758,1856,1898
1755,1851,1881
1824,1846,1859
1891,1821,1838
1837,1854,1857
1781,1839,1878
1875,1880,1872
1929,1915,1869
1803,1858,1862
1774,1770,1835
1840,1786,1834
1815,1836,1839
1839,1879,1858
1911,1823,1875
1853,1899,1922
1783,1822,1813
1838,1767,1757
1904,1762,1837
1793,1833,1904
1776,1833,1865
1857,1867,1785
1857,1682,1785
1859,1834,1900
1858,1901,1931
1785,1808,1845
1797,1842,1862
1874,1872,1872
1907,1856,1871
1795,1883,1833
1796,1791,1822
1830,1808,1845
1915,1846,1862
1887,1892,1871
1779,1855,1840
1812,1857,1863
1893,1834,1893
1842,1857,1850
1873,1806,1843
1895,1802,1840
1801,1825,1809
