1821,1849,1846
1852,1809,1819
1836,1803,1823
1809,1872,1855
1806,1866,1859
1822,1840,1862
1808,1793,1832
1808,1762,1829
1813,1838,1867
1815,1840,1861
1819,1825,1851
1840,1869,1840
1835,1847,1851
1809,1815,1859
1808,1796,1859
1837,1804,1856
1808,1761,1837
1829,1841,1852
1809,1884,1867
1829,1842,1867
1840,1839,1856
1853,1840,1854
1840,1836,1850
1828,1817,1851
1831,1812,1835
1821,1863,1854
1817,1858,1861
1823,1840,1855
1843,1846,1857
1825,1843,1840
1807,1886,1850
1838,1883,1853
1840,1830,1849
1835,1851,1842
1819,1785,1845
1823,1776,1829
1841,1761,1814
1824,1847,1866
1809,1867,1874
1808,1813,1854
1814,1833,1846
1821,1859,1853
1828,1861,1856
1831,1855,1847
1831,1806,1840
1805,1809,1840
1801,1808,1841
1808,1831,1856
1835,1808,1836
1831,1840,1841
1818,1844,1844
1818,1889,1871
1866,1904,1871
1830,1894,1856
1799,1839,1835
1804,1811,1855
1808,1826,1851
1827,1789,1805
1835,1824,1856
1823,1821,1885
1808,1821,1872
1815,1840,1852
1820,1798,1843
1813,1798,1857
1830,1849,1851
1835,1845,1847
1815,1823,1851
1825,1822,1851
1844,1863,1855
1840,1874,1847
1814,1856,1839
1813,1808,1827
1842,1833,1856
1835,1873,1870
1807,1840,1863
1808,1827,1863
1840,1846,1855
1843,1871,1847
1819,1825,1840
1811,1790,1830
1841,1808,1825
1817,1813,1840
1791,1851,1881
1805,1871,1862
1843,1835,1845
1822,1807,1862
1802,1815,1863
1825,1823,1862
1817,1834,1851
1823,1850,1857
1843,1857,1866
1819,1825,1862
1827,1825,1850
1837,1856,1855
1814,1843,1856
1815,1847,1856
1827,1851,1858
1839,1851,1855
1827,1807,1841
1828,1808,1843
1847,1872,1866
1829,1906,1867
1815,1872,1851
1839,1808,1855
1815,1806,1856
1824,1808,1856
1809,1763,1836
1818,1789,1825
1818,1903,1874
1833,1936,1893
1813,1829,1869
1819,1805,1855
1811,1830,1844
1808,1831,1851
1819,1856,1858
1830,1842,1871
1827,1839,1852
1836,1806,1824
1823,1822,1841
1809,1858,1865
1837,1922,1860
1839,1850,1849
1817,1828,1856
1809,1799,1858
1824,1821,1856
1846,1829,1856
1847,1863,1859
1822,1840,1854
1829,1845,1849
1840,1755,1809
1834,1765,1823
1808,1866,1882
1809,1882,1878
1831,1856,1857
1836,1851,1855
1846,1857,1862
1841,1827,1857
1821,1849,1845
1824,1815,1847
1839,1836,1847
1829,1826,1831
1819,1857,1858
1817,1854,1869
1821,1829,1858
1851,1875,1855
1840,1895,1846
1819,1810,1840
1823,1778,1844
1830,1815,1847
1840,1859,1851
1821,1840,1857
1821,1846,1845
1835,1838,1851
1839,1837,1846
1843,1840,1857
1853,1821,1857
1841,1807,1843
1831,1839,1853
1829,1829,1857
1831,1837,1857
1826,1850,1854
1843,1856,1835
1846,1818,1825
1816,1853,1879
1834,1806,1861
1844,1862,1867
1817,1874,1857
1818,1821,1850
1821,1871,1870
1821,1856,1866
1824,1833,1855
1838,1840,1863
1847,1867,1857
1846,1887,1849
1837,1824,1857
1831,1797,1862
1856,1850,1855
1835,1853,1845
1825,1808,1846
1835,1795,1855
1829,1808,1851
1826,1824,1841
1849,1809,1841
1808,1837,1855
1810,1819,1842
1831,1825,1840
1841,1843,1850
1825,1803,1842
1823,1755,1822
1840,1766,1798
1826,1885,1875
1819,1904,1902
1857,1877,1879
1823,1823,1855
1815,1819,1853
1826,1840,1857
1835,1840,1852
1842,1844,1846
1843,1827,1856
1839,1833,1858
1835,1846,1849
1839,1856,1856
1840,1825,1856
1827,1815,1854
1831,1851,1856
1827,1855,1851
1831,1849,1840
1849,1851,1851
1852,1801,1853
1841,1810,1854
1817,1770,1856
1807,1825,1857
1826,1827,1843
1863,1837,1849
1821,1759,1824
1811,1830,1849
1835,1840,1837
1851,1807,1829
1831,1863,1878
1817,1875,1888
1829,1870,1873
1822,1862,1862
1822,1837,1856
1832,1837,1861
1862,1870,1861
1842,1869,1856
1813,1819,1856
1811,1818,1851
1835,1848,1856
1840,1865,1856
1858,1895,1853
1833,1850,1855
1811,1854,1840
1813,1786,1856
1827,1774,1865
1835,1799,1865
1822,1827,1866
1819,1811,1855
1833,1787,1838
1829,1823,1849
1842,1863,1868
1852,1865,1860
1829,1839,1859
1811,1836,1863
1827,1855,1859
1834,1842,1853
1829,1822,1856
1848,1821,1858
1853,1875,1853
1831,1867,1842
1826,1808,1852
1813,1821,1849
1810,1850,1841
1817,1849,1847
1819,1840,1855
1830,1864,1856
1851,1846,1842
1872,1798,1811
1840,1796,1833
1813,1839,1872
1850,1894,1857
1863,1886,1861
1795,1775,1862
1801,1774,1870
1830,1821,1859
1850,1841,1857
1840,1814,1849
1826,1790,1835
1859,1795,1827
1856,1847,1861
1829,1847,1865
1849,1851,1865
1847,1872,1854
1836,1840,1850
1840,1825,1854
1843,1825,1856
1839,1849,1847
1850,1853,1841
1819,1813,1844
1811,1826,1856
1841,1865,1850
1843,1835,1847
1839,1841,1840
1835,1822,1840
1823,1809,1846
1825,1791,1845
1831,1789,1845
1826,1811,1847
1836,1859,1843
1850,1918,1822
1832,1779,1837
1831,1775,1862
1843,1801,1856
1830,1782,1840
1821,1793,1834
1808,1829,1859
1828,1850,1865
1834,1854,1857
1826,1872,1853
1828,1821,1843
1835,1808,1846
1835,1823,1849
1830,1776,1837
1843,1799,1839
1836,1850,1853
1824,1847,1855
1833,1849,1862
1826,1852,1854
1840,1835,1842
1847,1829,1847
1840,1806,1851
1846,1811,1857
1840,1823,1854
1841,1822,1847
1838,1841,1851
1820,1827,1857
1843,1840,1850
1857,1859,1837
1824,1756,1826
1807,1794,1867
1824,1845,1871
1835,1849,1853
1815,1823,1846
1833,1839,1857
1862,1847,1856
1835,1830,1843
1821,1817,1847
1836,1840,1859
1856,1884,1854
1829,1862,1853
1813,1815,1834
1826,1767,1855
1838,1803,1859
1835,1840,1856
1831,1821,1857
1835,1856,1855
1840,1841,1856
1841,1840,1858
1823,1815,1855
1835,1808,1859
1840,1840,1853
1838,1840,1853
1829,1826,1854
1844,1829,1859
1841,1853,1860
1860,1892,1854
1854,1775,1834
1812,1805,1856
1813,1869,1872
1840,1855,1856
1821,1825,1847
1808,1782,1855
1840,1829,1870
1840,1841,1866
1813,1817,1857
1818,1792,1856
1839,1815,1850
1840,1844,1856
1827,1837,1852
1835,1827,1861
1839,1829,1857
1843,1840,1852
1835,1828,1851
1840,1831,1850
1838,1839,1845
1843,1872,1838
1842,1786,1847
1814,1783,1843
1835,1822,1841
1839,1831,1843
1856,1843,1841
1845,1770,1829
1834,1823,1856
1818,1844,1855
1829,1834,1856
1831,1824,1857
1834,1840,1840
1840,1855,1840
1831,1828,1843
1840,1857,1851
1839,1845,1840
1831,1808,1834
1820,1802,1837
1813,1798,1841
1831,1863,1841
1850,1818,1840
1831,1804,1841
1826,1799,1850
1853,1845,1839
1838,1846,1840
1802,1821,1847
1795,1797,1855
1823,1823,1843
1839,1872,1843
1830,1809,1847
1821,1797,1850
1841,1839,1842
1840,1840,1842
1825,1791,1830
1824,1801,1849
1825,1838,1857
1826,1856,1856
1828,1847,1845
1815,1822,1841
1813,1808,1840
1846,1811,1846
1826,1812,1850
1809,1835,1856
1826,1851,1854
1824,1843,1843
1827,1825,1840
1827,1793,1840
1834,1819,1841
1829,1833,1846
1831,1847,1844
1840,1811,1845
1835,1807,1850
1826,1808,1846
1810,1798,1851
1839,1837,1851
1843,1840,1842
1847,1809,1842
1845,1803,1844
1831,1801,1846
1830,1835,1850
1825,1831,1843
1824,1814,1841
1840,1853,1856
1842,1856,1853
1827,1803,1838
1827,1743,1840
1823,1738,1826
1827,1831,1854
1811,1840,1858
1820,1801,1856
1827,1808,1856
1837,1826,1850
1815,1824,1840
1820,1826,1845
1840,1825,1851
1843,1855,1847
1821,1821,1841
1801,1776,1850
1812,1791,1859
1821,1817,1852
1823,1807,1845
1825,1789,1840
1824,1797,1847
1839,1812,1852
1863,1866,1855
1822,1818,1846
1819,1783,1856
1824,1805,1857
1822,1792,1842
1830,1783,1843
1831,1799,1854
1833,1815,1846
1832,1839,1841
1840,1847,1846
1809,1782,1840
1813,1793,1843
1839,1831,1844
1824,1811,1841
1814,1750,1826
1819,1807,1840
1834,1813,1849
1830,1808,1848
1808,1837,1842
1830,1808,1841
1839,1813,1850
1830,1797,1845
1838,1802,1851
1840,1811,1843
1836,1826,1845
1811,1793,1844
1825,1819,1854
1851,1837,1847
1823,1783,1840
1821,1776,1844
1840,1791,1856
1825,1809,1845
1821,1818,1847
1839,1810,1855
1835,1869,1840
1832,1779,1837
1819,1765,1840
1815,1776,1845
1824,1777,1851
1827,1799,1844
1818,1831,1846
1811,1808,1846
1829,1812,1857
1840,1815,1851
1841,1825,1840
1824,1791,1829
1829,1763,1829
1837,1822,1852
1841,1814,1851
1808,1803,1845
1808,1791,1844
1815,1820,1845
1833,1812,1845
1811,1810,1842
1808,1809,1840
1840,1828,1841
1844,1821,1840
1825,1808,1840
1828,1812,1855
1838,1835,1850
1831,1855,1845
1843,1891,1839
1808,1785,1841
1822,1813,1840
1825,1808,1842
1820,1813,1823
1835,1798,1843
1811,1797,1854
1799,1761,1853
1820,1744,1841
1838,1778,1839
1835,1827,1846
1808,1830,1852
1808,1821,1856
1833,1803,1851
1850,1817,1843
1827,1833,1847
1813,1839,1853
1811,1810,1849
1840,1823,1846
1838,1867,1840
1839,1879,1851
1875,1827,1867
1815,1756,1839
1799,1785,1835
1808,1821,1840
1819,1776,1836
1837,1777,1847
1830,1792,1845
1819,1821,1846
1836,1814,1843
1831,1794,1857
1842,1775,1838
1837,1815,1861
1840,1847,1865
1841,1850,1857
1839,1840,1853
1823,1814,1849
1837,1813,1853
1835,1840,1847
1838,1836,1841
1836,1821,1852
1845,1835,1863
1846,1850,1857
1846,1833,1847
1843,1802,1850
1811,1831,1858
1810,1866,1851
1809,1813,1850
1811,1759,1851
1837,1813,1857
1839,1815,1847
1838,1831,1861
1824,1782,1857
1825,1807,1855
1831,1793,1853
1833,1798,1852
1827,1801,1858
1824,1819,1851
1845,1807,1851
1841,1795,1852
1809,1803,1850
1815,1831,1859
1825,1831,1851
1833,1793,1827
1837,1808,1839
1821,1854,1865
1840,1870,1858
1843,1836,1844
1812,1823,1827
1806,1823,1847
1814,1777,1849
1820,1761,1843
1823,1804,1847
1838,1850,1855
1832,1818,1840
1849,1829,1840
1840,1823,1850
1831,1805,1843
1838,1799,1840
1840,1806,1840
1814,1810,1854
1825,1819,1851
1837,1842,1856
1837,1856,1850
1834,1781,1829
1849,1829,1853
1851,1871,1863
1815,1835,1850
1808,1808,1851
1809,1810,1854
1853,1853,1851
1843,1842,1845
1825,1855,1854
1822,1826,1851
1844,1877,1846
1828,1816,1846
1808,1762,1853
1812,1777,1860
1826,1859,1845
1838,1830,1840
1821,1794,1861
1834,1838,1865
1835,1842,1856
1851,1802,1858
1829,1785,1858
1822,1789,1846
1840,1805,1825
1824,1857,1851
1808,1840,1859
1815,1821,1856
1836,1831,1851
1831,1850,1850
1830,1839,1856
1845,1856,1859
1822,1840,1854
1814,1840,1853
1812,1831,1854
1845,1831,1855
1851,1842,1855
1846,1877,1846
1815,1795,1856
1819,1807,1871
1830,1827,1859
1839,1874,1854
1854,1839,1857
1827,1835,1850
1810,1818,1851
1819,1839,1854
1817,1798,1853
1819,1814,1856
1840,1841,1847
1858,1857,1839
1835,1775,1809
1805,1795,1866
1811,1840,1872
1840,1840,1862
1831,1830,1855
1840,1831,1854
1840,1851,1849
1823,1824,1840
1827,1809,1855
1833,1819,1861
1842,1831,1849
1840,1841,1850
1834,1830,1857
1830,1825,1861
1839,1839,1862
1841,1840,1851
1853,1830,1855
1854,1861,1854
1854,1823,1843
1825,1848,1843
1798,1824,1847
1807,1775,1839
1815,1769,1840
1827,1802,1861
1808,1838,1863
1829,1855,1849
1834,1808,1856
1825,1808,1865
1808,1802,1855
1815,1822,1858
1831,1835,1853
1845,1840,1854
1835,1834,1856
1828,1830,1862
1852,1867,1856
1873,1863,1851
1822,1835,1851
1825,1839,1857
1843,1857,1856
1841,1851,1848
1827,1853,1839
1829,1813,1843
1823,1793,1850
1823,1814,1842
1833,1808,1833
1834,1823,1867
1830,1825,1871
1825,1792,1855
1824,1787,1851
1833,1823,1865
1847,1851,1862
1842,1852,1857
1838,1829,1858
1826,1820,1861
1827,1853,1856
1837,1844,1846
1835,1850,1856
1821,1831,1857
1840,1872,1842
1840,1837,1836
1809,1808,1854
1819,1833,1872
1860,1899,1865
1835,1846,1844
1794,1827,1838
1801,1775,1842
1840,1793,1852
1854,1858,1857
1840,1834,1850
1836,1805,1851
1834,1809,1841
1852,1840,1826
1834,1842,1849
1822,1844,1867
1835,1840,1858
1840,1829,1841
1836,1835,1847
1830,1842,1853
1826,1849,1850
1845,1845,1845
1830,1840,1849
1827,1840,1856
1835,1851,1855
1827,1847,1849
1838,1835,1854
1827,1834,1854
1834,1867,1856
1840,1856,1845
1844,1830,1854
1854,1849,1858
1840,1865,1845
1823,1875,1831
1833,1743,1829
1838,1821,1839
1827,1835,1859
1840,1830,1866
1820,1814,1856
1822,1822,1857
1830,1836,1851
1838,1840,1847
1838,1834,1844
1840,1847,1846
1840,1855,1840
1849,1854,1843
1837,1850,1851
1840,1844,1855
1867,1866,1847
1843,1841,1840
1813,1829,1841
1814,1837,1850
1835,1845,1840
1835,1859,1842
1840,1862,1857
1825,1852,1859
1835,1855,1846
1837,1835,1843
1835,1825,1845
1840,1845,1855
1853,1871,1842
1872,1936,1835
1823,1804,1836
1788,1744,1841
1808,1773,1847
1820,1808,1854
1835,1819,1849
1838,1830,1851
1841,1840,1854
1847,1809,1834
1830,1842,1840
1831,1877,1869
1834,1861,1860
1813,1822,1841
1813,1814,1840
1819,1815,1843
1841,1845,1850
1862,1861,1849
1858,1841,1851
1830,1845,1856
1826,1866,1851
1840,1851,1846
1838,1850,1849
1822,1867,1852
1833,1846,1843
1850,1857,1851
1855,1862,1841
1853,1837,1845
1839,1788,1840
1834,1789,1845
1817,1815,1850
1828,1861,1856
1834,1812,1857
1843,1817,1845
1837,1781,1827
1862,1814,1856
1838,1872,1895
1826,1875,1870
1825,1838,1833
1813,1830,1826
1842,1856,1839
1850,1867,1850
1840,1854,1851
1838,1840,1856
1840,1857,1856
1865,1874,1854
1830,1840,1843
1824,1829,1852
1840,1840,1846
1843,1843,1847
1853,1853,1855
1846,1846,1852
1853,1856,1851
1841,1853,1853
1820,1833,1845
1855,1859,1860
1897,1905,1858
1822,1805,1843
1791,1776,1846
1809,1818,1856
1840,1846,1861
1853,1855,1856
1842,1817,1840
1824,1823,1850
1840,1849,1853
1853,1853,1847
1840,1840,1841
1829,1839,1867
1856,1872,1872
1877,1856,1843
1850,1857,1799
1831,1808,1855
1840,1851,1872
1898,1901,1875
1841,1842,1861
1839,1776,1839
1821,1787,1856
1839,1816,1858
1834,1790,1802
1840,1776,1798
1863,1911,1891
1879,1882,1823
1904,1825,1874
1857,1840,1856
1825,1853,1855
1844,1891,1856
1887,1907,1862
1879,1899,1842
1903,1862,1811
1951,1854,1827
2035,1809,1863
1951,1845,1805
1811,1747,1785
1777,1775,1791
1979,1882,1854
2053,1952,1892
1872,1908,1818
1807,1833,1790
1781,1870,1839
1813,1932,1830
1840,1876,1795
1826,1841,1791
1833,1837,1808
1821,1790,1811
1834,1802,1753
1791,1845,1784
1790,1851,1806
1827,1877,1827
1847,1829,1833
1818,1840,1811
1808,1875,1823
1855,1948,1807
1818,1900,1767
1791,1805,1765
1809,1835,1768
1829,1876,1803
1872,1905,1821
1821,1952,1808
1792,1891,1811
1783,1913,1791
1772,1906,1790
1774,1749,1744
1807,1831,1806
1794,1882,1840
1809,1881,1831
1790,1889,1782
1763,1888,1779
1765,1891,1789
1821,1851,1805
1825,1841,1845
1755,1856,1803
1760,1930,1835
1770,1929,1830
1791,1935,1803
1813,1856,1790
1835,1890,1801
1850,1929,1857
1803,1946,1842
1768,1936,1839
1769,1938,1798
1791,1781,1745
1787,1899,1825
1758,1871,1843
1755,1824,1845
1789,1875,1818
1779,1921,1823
1781,1904,1828
1782,1913,1829
1798,1954,1818
1795,1837,1787
1775,1843,1840
1773,1886,1867
1812,1917,1862
1870,1968,1877
1806,1849,1843
1739,1863,1808
1750,1882,1792
1791,1942,1846
1793,1873,1843
1802,1916,1855
1795,1866,1767
1791,1894,1834
1757,1869,1870
1776,1846,1867
1797,1893,1878
1839,1919,1872
1785,1842,1811
1783,1853,1829
1810,1886,1823
1803,2000,1811
1809,1866,1854
1842,1813,1869
1759,1889,1872
1773,1914,1877
1791,1875,1845
1755,1840,1859
1839,1894,1847
1834,1906,1843
1785,1890,1857
1781,1885,1872
1779,1903,1856
1795,1888,1819
1826,1820,1809
1809,1910,1866
1783,1936,1891
1776,1967,1856
1802,1813,1859
1837,1826,1861
1877,1921,1886
1799,1870,1850
1738,1835,1850
1776,1847,1872
1813,1895,1847
1791,1905,1874
1796,1904,1908
1778,1857,1869
1803,1883,1838
1782,1886,1850
1834,1924,1891
1866,1840,1887
1831,1845,1841
1816,1917,1885
1764,1859,1850
1803,1856,1859
1807,1914,1907
1805,1950,1899
1803,1936,1895
1809,1892,1854
1834,1861,1850
1833,1810,1872
1776,1796,1857
1790,1842,1872
1800,1845,1862
1819,1900,1873
1829,1899,1903
1847,1931,1885
1825,1947,1858
1820,1883,1884
1808,1808,1872
1823,1817,1841
1808,1871,1872
1803,1876,1879
1805,1890,1862
1818,1814,1810
1827,1895,1877
1781,1883,1878
1775,1869,1872
1834,1930,1888
1839,2000,1901
1818,1878,1870
1775,1845,1847
1808,1835,1862
1855,1884,1871
1868,1961,1881
1831,1875,1887
1761,1806,1872
1753,1841,1856
1810,1918,1866
1833,1863,1870
1835,1846,1879
1838,1899,1882
1828,1883,1872
1820,1880,1873
1808,1870,1859
1856,1904,1873
1858,1857,1831
1811,1838,1840
1810,1903,1878
1840,1859,1858
1809,1911,1887
1826,1872,1905
1839,1843,1878
1849,1838,1889
1809,1826,1879
1815,1840,1871
1869,1898,1884
1831,1903,1849
1834,1839,1881
1808,1833,1905
1819,1840,1874
1847,1872,1885
1846,1878,1853
1831,1840,1834
1799,1818,1865
1840,1856,1875
1840,1879,1874
1837,1791,1839
1830,1847,1871
1825,1904,1881
1840,1889,1891
1872,1964,1888
1837,1795,1840
1823,1834,1879
1809,1824,1873
1778,1781,1868
1829,1816,1883
1828,1865,1865
1851,1812,1859
1840,1787,1861
1810,1927,1878
1835,1872,1870
1807,1855,1857
1791,1835,1869
1824,1847,1901
1858,1872,1888
1859,1904,1879
1840,1839,1871
1849,1822,1847
1817,1854,1878
1821,1872,1877
1845,1875,1894
1798,1842,1870
1815,1852,1855
1840,1872,1865
1851,1872,1885
1856,1845,1898
1831,1795,1858
1846,1880,1834
1822,1846,1888
1810,1819,1905
1827,1811,1896
1839,1774,1845
1851,1821,1861
1808,1899,1873
1808,1846,1858
1847,1820,1872
1877,1822,1894
1818,1861,1902
1803,1868,1872
1839,1867,1851
1859,1845,1872
1814,1791,1847
1850,1807,1808
1855,1873,1859
1839,1878,1896
1854,1884,1885
1857,1860,1872
1841,1823,1859
1802,1817,1840
1815,1797,1856
1827,1806,1872
1857,1818,1882
1838,1856,1879
1829,1857,1834
1825,1822,1873
1833,1822,1879
1837,1787,1868
1862,1803,1872
1829,1808,1839
1829,1812,1812
1840,1861,1843
1843,1871,1874
1834,1805,1853
1862,1773,1843
1813,1856,1878
1823,1852,1872
1845,1873,1869
1846,1859,1872
1867,1847,1876
1863,1834,1865
1839,1834,1861
1808,1816,1850
1819,1839,1851
1855,1847,1874
1859,1808,1870
1840,1847,1840
1792,1777,1834
1804,1788,1852
1859,1852,1883
1872,1840,1883
1842,1778,1824
1840,1821,1832
1846,1863,1883
1859,1919,1875
1861,1841,1841
1839,1829,1846
1813,1805,1856
1808,1729,1808
1828,1773,1851
1845,1807,1851
1836,1877,1881
1841,1870,1890
1811,1807,1855
1830,1815,1857
1859,1841,1850
1869,1839,1843
1824,1843,1840
1824,1840,1837
1842,1812,1844
1859,1850,1853
1861,1809,1865
1839,1818,1858
1823,1781,1830
1856,1827,1857
1872,1822,1840
1857,1841,1843
1842,1869,1867
1822,1872,1840
1822,1812,1831
1883,1840,1891
1870,1782,1850
1821,1776,1823
1799,1756,1795
1829,1795,1856
1821,1871,1894
1815,1840,1862
1839,1803,1846
1830,1805,1856
1825,1849,1866
1853,1850,1872
1859,1781,1840
1867,1741,1826
1879,1895,1882
1850,1887,1871
1840,1833,1893
1851,1810,1877
1822,1815,1843
1823,1814,1843
1835,1807,1857
1870,1853,1871
1843,1839,1834
1850,1792,1812
1846,1739,1805
1830,1837,1895
1822,1802,1886
1823,1817,1853
1862,1840,1859
1861,1835,1859
1856,1845,1883
1840,1840,1855
1845,1841,1844
1838,1885,1851
1821,1783,1840
1834,1764,1858
1841,1771,1860
1862,1801,1899
1867,1804,1857
1894,1765,1831
1840,1797,1836
1804,1836,1857
1826,1856,1851
1843,1834,1853
1846,1787,1848
1840,1850,1873
1840,1847,1857
1851,1803,1843
1835,1760,1825
1863,1823,1872
1852,1855,1856
1825,1765,1804
1863,1781,1842
1874,1861,1915
1869,1885,1878
1872,1879,1849
1833,1831,1840
1821,1808,1856
1863,1919,1857
1879,1869,1850
1826,1727,1845
1795,1757,1840
1833,1840,1845
1887,1835,1845
1875,1803,1856
1835,1773,1854
1836,1829,1841
1872,1786,1862
1834,1775,1849
1826,1819,1845
1857,1856,1849
1872,1869,1858
1866,1777,1842
1837,1802,1856
1827,1818,1850
1857,1775,1813
1871,1808,1850
1851,1904,1905
1838,1854,1871
1855,1763,1840
1865,1808,1853
1851,1850,1846
1859,1844,1851
1872,1866,1856
1869,1902,1885
1851,1789,1861
1891,1861,1840
1863,1814,1853
1802,1750,1835
1787,1744,1822
1849,1831,1842
1868,1817,1840
1853,1808,1872
1862,1879,1873
1842,1811,1846
1845,1796,1844
1819,1815,1846
1840,1835,1851
1857,1847,1839
1863,1783,1817
1863,1715,1811
1862,1879,1895
1840,1893,1872
1853,1827,1857
1843,1861,1856
1835,1842,1845
1837,1840,1833
1838,1839,1850
1840,1787,1847
1853,1822,1869
1862,1819,1808
1850,1824,1840
1828,1859,1846
1842,1802,1858
1840,1821,1858
1869,1814,1840
1846,1796,1862
1821,1793,1856
1862,1837,1808
1835,1834,1840
1844,1885,1868
1850,1802,1838
1827,1792,1823
1852,1833,1853
1856,1843,1843
1850,1825,1845
1835,1829,1841
1857,1847,1840
1892,1820,1853
1872,1773,1826
1850,1859,1867
1870,1879,1872
1831,1849,1850
1791,1818,1852
1865,1875,1828
1823,1811,1826
1813,1770,1847
1852,1798,1862
1873,1853,1844
1840,1791,1824
1827,1796,1837
1829,1793,1856
1838,1823,1850
1881,1837,1841
1866,1823,1856
1839,1830,1856
1840,1857,1840
1851,1807,1811
1836,1803,1807
1827,1840,1843
1859,1857,1871
1902,1891,1864
1846,1809,1836
1841,1776,1824
1843,1801,1837
1859,1823,1866
1840,1845,1878
1841,1829,1843
1860,1800,1765
1815,1831,1812
1794,1843,1877
1831,1856,1867
1850,1859,1834
1833,1795,1829
1855,1808,1862
1837,1840,1865
1831,1806,1849
1861,1793,1840
1872,1808,1845
1836,1803,1845
1853,1839,1851
1829,1849,1814
1813,1794,1821
1808,1783,1857
1840,1840,1887
1861,1872,1877
1842,1839,1845
1838,1776,1835
1853,1842,1826
1851,1872,1826
1839,1808,1855
1873,1753,1857
1831,1849,1841
1795,1821,1808
1802,1875,1863
1840,1856,1883
1856,1828,1856
1837,1815,1841
1849,1881,1875
1876,1878,1844
1819,1813,1827
1803,1790,1844
1819,1808,1872
1835,1808,1858
1840,1810,1840
1837,1871,1835
1839,1861,1857
1845,1775,1853
1838,1779,1846
1839,1834,1851
1840,1850,1861
1832,1827,1841
1825,1794,1839
1840,1808,1876
1822,1871,1872
1799,1882,1840
1837,1844,1825
1824,1808,1834
1827,1819,1843
1842,1848,1863
1858,1840,1871
1847,1847,1856
1843,1886,1860
1847,1882,1857
1856,1807,1782
1797,1734,1807
1808,1800,1882
1825,1799,1863
1836,1863,1882
1860,1881,1872
1836,1856,1859
1795,1787,1852
1818,1805,1845
1870,1857,1856
1859,1864,1872
1854,1879,1904
1809,1847,1851
1811,1835,1830
1840,1815,1827
1851,1835,1835
1827,1827,1852
1839,1856,1876
1839,1807,1846
1827,1815,1838
1867,1813,1842
1878,1856,1856
1841,1808,1810
1838,1830,1831
1803,1857,1872
1772,1806,1840
1817,1795,1845
1861,1838,1873
1839,1830,1858
1825,1822,1864
1838,1838,1850
1858,1791,1837
1858,1809,1851
1849,1793,1845
1811,1850,1862
1838,1897,1897
1844,1877,1847
1813,1835,1835
1791,1808,1822
1810,1829,1856
1845,1887,1877
1842,1881,1856
1824,1795,1830
1812,1810,1833
1827,1844,1852
1840,1862,1845
1819,1797,1839
1859,1788,1824
1845,1846,1853
1825,1828,1881
1835,1819,1886
1814,1809,1861
1845,1808,1830
1837,1811,1835
1818,1808,1829
1825,1809,1862
1858,1835,1847
1825,1872,1856
1808,1808,1838
1814,1821,1860
1840,1859,1874
1827,1855,1851
1837,1853,1870
1835,1846,1841
1839,1845,1841
1826,1812,1838
1808,1804,1847
1799,1824,1834
1808,1857,1838
1840,1840,1849
1840,1817,1854
1835,1825,1859
1862,1861,1875
1842,1841,1831
1819,1808,1821
1824,1856,1861
1853,1840,1874
1836,1836,1865
1806,1839,1857
1793,1795,1818
1851,1719,1799
1810,1840,1869
1797,1872,1886
1814,1817,1854
1876,1837,1840
1843,1823,1856
1827,1837,1867
1791,1830,1855
1795,1838,1841
1842,1847,1839
1821,1813,1875
1840,1831,1890
1823,1830,1838
1817,1788,1817
1829,1806,1837
1817,1810,1847
1842,1881,1861
1852,1827,1865
1842,1838,1840
1840,1844,1835
1825,1833,1857
1815,1830,1870
1839,1840,1886
1838,1867,1868
1839,1840,1840
1842,1766,1773
1831,1831,1825
1803,1841,1878
1793,1835,1884
1827,1847,1837
1839,1728,1821
1831,1841,1862
1836,1904,1886
1823,1889,1847
1829,1837,1851
1840,1825,1859
1822,1774,1835
1797,1825,1823
1829,1827,1845
1840,1851,1877
1822,1847,1846
1808,1831,1834
1809,1812,1840
1842,1858,1845
1840,1872,1854
1857,1829,1873
1812,1776,1825
1813,1811,1838
1843,1841,1853
1870,1856,1869
1856,1809,1843
1829,1744,1799
1817,1854,1847
1827,1872,1882
1847,1855,1888
1840,1815,1855
1823,1840,1830
1823,1843,1840
1850,1873,1841
1831,1753,1819
1815,1763,1831
1817,1854,1835
1827,1847,1862
1840,1807,1872
1840,1850,1849
1855,1857,1854
1843,1859,1872
1798,1840,1840
1823,1854,1839
1847,1831,1836
1851,1851,1847
1847,1856,1861
1824,1846,1855
1808,1837,1819
1857,1856,1860
1833,1826,1852
1835,1763,1813
1851,1837,1847
1855,1893,1887
1824,1815,1863
1840,1841,1842
1877,1791,1824
1826,1813,1848
1801,1903,1865
1823,1814,1845
1830,1723,1826
1801,1799,1850
1825,1862,1869
1851,1871,1854
1826,1854,1858
1802,1817,1852
1819,1822,1845
1840,1850,1839
1845,1847,1840
1851,1825,1841
1863,1862,1883
1872,1814,1829
1847,1808,1826
1782,1869,1845
1802,1933,1856
1855,1846,1878
1837,1857,1872
1835,1847,1842
1846,1801,1847
1827,1776,1839
1823,1791,1829
1815,1826,1856
1840,1861,1885
1861,1920,1881
1861,1890,1862
1813,1762,1836
1807,1766,1834
1835,1831,1865
1819,1865,1861
1821,1810,1842
1808,1812,1842
1821,1841,1866
1846,1884,1886
1839,1808,1866
1847,1811,1845
1840,1853,1840
1840,1872,1851
1830,1859,1875
1850,1808,1841
1885,1798,1791
1847,1869,1855
1777,1793,1870
1808,1839,1873
1855,1840,1865
1851,1847,1863
1799,1814,1856
1808,1771,1825
1826,1851,1840
1853,1904,1863
1838,1857,1867
1815,1829,1856
1820,1843,1835
1855,1872,1845
1837,1808,1842
1836,1829,1847
1845,1824,1849
1843,1825,1843
1841,1769,1830
1873,1855,1861
1863,1887,1852
1835,1907,1856
1814,1840,1854
1812,1810,1841
1853,1776,1807
1856,1856,1855
1827,1855,1858
1849,1923,1856
1843,1834,1872
1830,1799,1863
1817,1781,1840
1837,1815,1847
1879,1853,1870
1856,1777,1846
1811,1840,1839
1821,1872,1840
1837,1859,1859
1846,1850,1872
1839,1815,1840
1835,1823,1850
1851,1847,1849
1863,1883,1857
1865,1831,1867
1831,1808,1850
