1840,1826,1842
1847,1840,1856
1847,1855,1856
1850,1847,1853
1872,1884,1856
1879,1862,1853
1839,1830,1846
1835,1818,1850
1849,1828,1856
1873,1862,1853
1871,1865,1853
1846,1840,1853
1852,1823,1854
1870,1861,1857
1870,1860,1856
1856,1829,1851
1855,1861,1842
1851,1814,1840
1872,1778,1797
1866,1776,1829
1851,1831,1873
1862,1879,1875
1843,1906,1878
1823,1875,1840
1838,1845,1832
1860,1826,1852
1849,1840,1865
1835,1796,1854
1820,1789,1843
1840,1842,1856
1863,1878,1856
1856,1837,1843
1849,1810,1850
1872,1779,1803
1871,1835,1835
1850,1872,1877
1855,1863,1879
1872,1878,1855
1840,1811,1826
1835,1847,1843
1844,1849,1853
1861,1851,1870
1861,1846,1855
1847,1871,1846
1849,1815,1840
1879,1855,1831
1856,1879,1838
1837,1819,1861
1840,1811,1859
1858,1712,1786
1831,1791,1836
1851,1830,1869
1853,1810,1844
1808,1872,1860
1851,1810,1879
1855,1855,1829
1866,1904,1801
1790,1808,1840
1770,1819,1873
1783,1856,1833
1808,1770,1859
1810,1785,1882
1841,1825,1856
1839,1869,1808
1822,1767,1808
1829,1798,1841
1829,1839,1855
1846,1850,1850
1846,1826,1842
1840,1847,1846
1851,1871,1841
1873,1891,1835
1861,1774,1829
1851,1809,1874
1825,1819,1860
1831,1824,1840
1853,1879,1835
1855,1829,1855
1858,1818,1829
1867,1726,1832
1840,1850,1904
1838,1825,1867
1830,1827,1847
1810,1849,1845
1833,1844,1840
1845,1889,1841
1843,1953,1833
1829,1840,1849
1840,1823,1867
1855,1805,1856
1853,1843,1831
1830,1826,1840
1833,1829,1843
1872,1821,1834
1863,1949,1851
1833,1803,1842
1839,1742,1853
1845,1785,1859
1825,1840,1866
1819,1855,1843
1833,1856,1835
1831,1829,1857
1840,1825,1860
1840,1825,1855
1870,1792,1821
1854,1845,1850
1836,1856,1843
1823,1808,1847
1830,1891,1887
1841,1877,1840
1808,1811,1808
1809,1811,1848
1843,1872,1867
1861,1811,1854
1839,1776,1840
1826,1780,1840
1824,1810,1858
1840,1834,1847
1847,1831,1844
1858,1815,1856
1872,1866,1861
1855,1861,1840
1851,1749,1795
1835,1829,1857
1837,1872,1885
1840,1872,1872
1857,1854,1863
1830,1841,1851
1841,1869,1803
1851,1749,1829
1840,1787,1857
1826,1802,1854
1819,1825,1862
1808,1930,1872
1830,1866,1846
1838,1811,1841
1845,1811,1831
1840,1830,1837
1831,1849,1875
1835,1862,1871
1821,1838,1841
1831,1835,1858
1841,1866,1867
1829,1823,1858
1811,1776,1856
1835,1846,1843
1840,1817,1845
1831,1819,1865
1845,1842,1869
1849,1840,1847
1872,1775,1823
1848,1810,1862
1809,1845,1858
1837,1873,1846
1875,1842,1821
1842,1822,1849
1808,1837,1866
1827,1843,1856
1858,1870,1840
1850,1840,1831
1839,1806,1862
1857,1821,1872
1839,1887,1861
1805,1808,1833
1796,1839,1852
1822,1851,1857
1834,1847,1855
1846,1823,1844
1871,1790,1828
1837,1835,1840
1835,1827,1831
1835,1847,1837
1822,1869,1870
1838,1847,1861
1840,1895,1853
1839,1851,1856
1843,1840,1859
1854,1868,1872
1857,1873,1843
1835,1845,1840
1849,1734,1827
1821,1811,1843
1836,1845,1851
1845,1775,1834
1843,1841,1839
1833,1774,1777
1833,1927,1834
1789,1863,1894
1788,1819,1904
1825,1841,1850
1851,1828,1828
1844,1842,1845
1827,1808,1861
1833,1819,1866
1831,1835,1840
1837,1829,1838
1840,1834,1834
1859,1802,1808
1840,1808,1846
1825,1845,1838
1829,1733,1825
1822,1861,1869
1830,1934,1872
1811,1808,1823
1777,1755,1840
1791,1809,1872
1812,1827,1879
1798,1808,1861
1829,1819,1847
1850,1791,1850
1834,1827,1851
1826,1900,1871
1818,1852,1851
1843,1840,1780
1841,1754,1829
1854,1792,1858
1839,1854,1866
1838,1861,1833
1808,1801,1861
1818,1785,1840
1827,1793,1856
1815,1863,1882
1808,1809,1847
1817,1917,1872
1816,1813,1872
1832,1824,1857
1846,1856,1849
1843,1833,1851
1815,1868,1871
1798,1831,1857
1807,1831,1849
1835,1869,1840
1840,1794,1830
1855,1862,1840
1857,1743,1778
1819,1803,1867
1783,1847,1902
1798,1870,1879
1813,1847,1861
1822,1842,1840
1819,1776,1859
1839,1875,1886
1845,1855,1859
1842,1844,1840
1830,1821,1840
1813,1836,1845
1810,1839,1854
1824,1861,1845
1840,1840,1854
1840,1804,1833
1845,1800,1825
1837,1899,1861
1815,1850,1872
1840,1785,1845
1851,1759,1825
1830,1811,1839
1803,1839,1855
1808,1926,1851
1822,1787,1862
1822,1854,1866
1823,1847,1850
1823,1806,1836
1844,1814,1829
1840,1792,1840
1857,1789,1827
1851,1837,1852
1826,1884,1870
1811,1866,1872
1815,1826,1871
1835,1833,1850
1845,1851,1840
1837,1875,1845
1823,1830,1835
1840,1757,1837
1820,1863,1867
1808,1918,1863
1795,1889,1850
1808,1785,1833
1815,1740,1807
1807,1806,1852
1833,1759,1790
1817,1825,1876
1817,1856,1894
1810,1836,1869
1815,1840,1859
1838,1855,1849
1850,1858,1845
1838,1814,1839
1808,1829,1854
1825,1845,1836
1822,1837,1834
1837,1836,1841
1838,1843,1858
1840,1859,1861
1833,1853,1837
1856,1835,1812
1823,1818,1815
1838,1867,1845
1834,1747,1808
1791,1810,1872
1783,1883,1898
1810,1905,1872
1840,1904,1839
1815,1741,1837
1808,1699,1827
1808,1808,1855
1819,1840,1855
1817,1840,1855
1843,1876,1843
1834,1855,1851
1838,1851,1859
1842,1854,1869
1857,1851,1872
1835,1829,1857
1799,1824,1837
1828,1786,1825
1838,1867,1871
1839,1894,1831
1839,1810,1840
1829,1859,1886
1822,1925,1877
1840,1881,1845
1835,1791,1814
1798,1766,1847
1813,1826,1872
1826,1819,1866
1846,1822,1846
1844,1839,1850
1811,1827,1865
1819,1833,1856
1835,1840,1842
1830,1824,1850
1847,1840,1856
1856,1878,1861
1844,1870,1856
1841,1740,1779
1837,1741,1831
1801,1951,1925
1805,1965,1888
1787,1834,1867
1813,1831,1863
1825,1829,1840
1837,1815,1815
1808,1801,1831
1815,1840,1853
1826,1833,1865
1818,1810,1855
1829,1808,1847
1854,1921,1845
1840,1822,1843
1809,1785,1851
1808,1806,1853
1834,1825,1856
1840,1856,1847
1845,1859,1843
1840,1790,1808
1841,1830,1849
1821,1870,1872
1821,1875,1862
1842,1811,1835
1823,1857,1855
1851,1878,1862
1813,1857,1866
1807,1856,1863
1829,1900,1879
1843,1839,1825
1833,1787,1818
1830,1778,1833
1875,1883,1851
1840,1855,1831
1783,1779,1794
1795,1748,1809
1797,1840,1893
1805,1873,1887
1822,1817,1857
1815,1803,1856
1834,1820,1846
1849,1826,1845
1825,1870,1870
1813,1840,1867
1827,1836,1871
1840,1851,1859
1863,1867,1853
1840,1872,1855
1831,1856,1862
1835,1813,1856
1830,1843,1850
1827,1854,1872
1855,1843,1866
1824,1811,1835
1856,1791,1808
1808,1835,1854
1791,1872,1871
1791,1904,1859
1815,1950,1847
1828,1788,1823
1811,1750,1840
1819,1856,1872
1822,1862,1869
1813,1828,1847
1808,1796,1840
1819,1824,1839
1835,1840,1850
1840,1835,1853
1847,1869,1858
1851,1878,1856
1840,1919,1840
1805,1807,1838
1808,1695,1819
1822,1712,1815
1808,1855,1878
1809,1894,1892
1823,1872,1887
1840,1815,1871
1831,1859,1852
1824,1847,1839
1823,1856,1849
1840,1901,1857
1815,1893,1846
1793,1794,1854
1809,1791,1854
1823,1814,1843
1834,1838,1843
1841,1838,1846
1838,1853,1851
1825,1877,1840
1831,1829,1843
1826,1850,1847
1827,1858,1851
1834,1818,1808
1837,1862,1843
1809,1846,1875
1823,1897,1859
1845,1830,1827
1831,1773,1825
1817,1777,1833
1826,1856,1859
1790,1839,1874
1798,1842,1854
1828,1819,1842
1840,1882,1845
1840,1854,1827
1835,1822,1850
1828,1815,1859
1822,1833,1855
1845,1867,1846
1851,1870,1846
1854,1887,1847
1840,1855,1856
1829,1821,1836
1823,1798,1808
1821,1805,1835
1807,1833,1867
1814,1898,1871
1829,1877,1866
1822,1843,1829
1803,1831,1840
1807,1831,1830
1813,1818,1840
1808,1839,1842
1808,1813,1854
1814,1818,1855
1843,1901,1853
1853,1905,1831
1813,1766,1831
1802,1815,1856
1827,1790,1838
1857,1680,1774
1813,1820,1871
1820,1829,1877
1815,1907,1866
1807,1874,1851
1815,1920,1845
1812,1803,1839
1813,1782,1841
1808,1782,1840
1821,1821,1849
1828,1851,1858
1835,1839,1845
1808,1850,1833
1815,1827,1827
1829,1883,1856
1830,1861,1855
1839,1763,1799
1813,1789,1834
1799,1808,1857
1807,1872,1860
1840,1838,1865
1838,1849,1872
1810,1872,1849
1808,1823,1838
1809,1793,1838
1838,1813,1840
1830,1838,1838
1829,1866,1835
1820,1807,1858
1827,1806,1807
1856,1833,1841
1834,1803,1840
1808,1779,1813
1776,1831,1861
1797,1878,1858
1830,1873,1846
1840,1854,1843
1822,1904,1834
1814,1810,1853
1822,1840,1866
1825,1850,1849
1815,1778,1829
1846,1805,1845
1840,1808,1854
1820,1729,1818
1806,1830,1843
1826,1875,1858
1824,1841,1847
1817,1807,1842
1810,1823,1861
1843,1857,1844
1854,1856,1835
1854,1815,1831
1835,1815,1803
1839,1873,1861
1823,1885,1869
1828,1792,1825
1808,1798,1855
1840,1835,1861
1841,1904,1849
1815,1920,1845
1808,1840,1840
1808,1734,1830
1821,1763,1855
1826,1794,1860
1835,1840,1858
1862,1844,1834
1845,1849,1834
1808,1821,1838
1825,1790,1843
1838,1819,1850
1842,1823,1812
1806,1869,1842
1811,1856,1857
1856,1889,1849
1840,1869,1839
1821,1819,1830
1813,1823,1841
1840,1905,1842
1844,1851,1838
1812,1839,1829
1802,1811,1847
1822,1877,1837
1836,1808,1810
1822,1821,1845
1827,1844,1861
1819,1843,1847
1824,1760,1819
1822,1819,1825
1818,1808,1863
1843,1839,1840
1839,1825,1815
1815,1907,1871
1824,1831,1849
1809,1818,1831
1813,1829,1831
1830,1811,1840
1844,1850,1841
1859,1921,1842
1831,1809,1814
1843,1793,1823
1829,1846,1842
1835,1857,1851
1841,1859,1852
1833,1824,1840
1821,1802,1840
1817,1840,1831
1823,1840,1834
1814,1791,1799
1820,1803,1839
1845,1850,1849
1837,1855,1861
1810,1872,1863
1819,1872,1854
1829,1781,1837
1829,1826,1851
1818,1861,1863
1831,1872,1856
1838,1834,1813
1840,1725,1782
1819,1825,1844
1804,1826,1874
1840,1862,1869
1822,1834,1840
1808,1845,1844
1826,1841,1854
1856,1887,1840
1846,1840,1834
1842,1754,1808
1804,1825,1845
1794,1904,1855
1805,1839,1855
1818,1782,1843
1840,1792,1840
1855,1872,1862
1843,1873,1858
1835,1883,1839
1809,1792,1808
1802,1790,1856
1814,1834,1867
1819,1827,1857
1828,1862,1866
1836,1872,1842
1840,1854,1826
1822,1785,1837
1833,1798,1852
1843,1857,1855
1841,1855,1849
1825,1842,1851
1837,1786,1814
1844,1854,1851
1854,1952,1873
1855,1803,1818
1842,1711,1827
1788,1837,1861
1801,1915,1873
1819,1854,1862
1821,1819,1872
1827,1817,1840
1852,1785,1811
1830,1872,1840
1808,1849,1854
1834,1875,1856
1859,1890,1859
1852,1808,1854
1810,1799,1850
1825,1810,1845
1868,1801,1808
1840,1882,1847
1814,1890,1878
1813,1831,1859
1833,1851,1856
1831,1828,1847
1842,1905,1865
1826,1799,1831
1829,1727,1817
1831,1814,1871
1819,1808,1858
1815,1805,1840
1808,1863,1844
1814,1859,1850
1823,1849,1842
1838,1859,1839
1854,1852,1854
1863,1765,1813
1827,1794,1838
1809,1901,1885
1811,1876,1859
1814,1853,1845
1840,1882,1857
1846,1845,1855
1827,1824,1840
1807,1854,1840
1815,1821,1828
1839,1825,1847
1844,1808,1845
1838,1779,1824
1830,1826,1839
1840,1839,1845
1842,1843,1856
1833,1863,1873
1855,1856,1871
1842,1854,1847
1834,1840,1834
1835,1761,1818
1824,1823,1847
1795,1923,1866
1815,1859,1853
1829,1824,1843
1838,1828,1839
1833,1866,1858
1834,1851,1840
1826,1803,1821
1819,1810,1865
1845,1794,1845
1827,1786,1840
1820,1824,1863
1823,1841,1862
1855,1888,1850
1849,1847,1862
1826,1813,1847
1821,1771,1818
1856,1737,1798
1792,1809,1859
1803,1837,1875
1823,1820,1868
1844,1837,1853
1847,1851,1840
1830,1819,1853
1840,1869,1872
1833,1868,1847
1840,1865,1842
1840,1819,1837
1840,1794,1830
1841,1792,1817
1823,1817,1844
1809,1848,1856
1831,1851,1872
1857,1869,1866
1878,1893,1855
1839,1866,1796
1815,1674,1766
1818,1770,1858
1838,1904,1878
1826,1811,1870
1807,1807,1869
1812,1825,1854
1842,1825,1850
1839,1836,1859
1827,1811,1856
1834,1830,1829
1842,1837,1830
1840,1810,1838
1861,1796,1839
1867,1801,1847
1808,1870,1847
1812,1846,1840
1824,1843,1857
1840,1810,1809
1840,1863,1831
1808,1877,1859
1794,1872,1884
1803,1785,1845
1823,1755,1844
1808,1776,1844
1827,1808,1848
1845,1856,1840
1851,1830,1846
1858,1769,1819
1826,1783,1852
1831,1855,1874
1840,1870,1883
1830,1819,1862
1833,1813,1845
1840,1810,1817
1835,1867,1845
1837,1843,1866
1843,1856,1873
1840,1808,1823
1846,1847,1831
1808,1817,1865
1822,1851,1862
1813,1838,1858
1797,1840,1869
1806,1831,1856
1825,1822,1854
1854,1856,1846
1829,1847,1839
1826,1819,1840
1835,1865,1843
1840,1811,1826
1842,1781,1833
1833,1809,1865
1841,1840,1872
1845,1853,1841
1823,1830,1828
1845,1846,1840
1849,1840,1856
1857,1834,1840
1858,1808,1805
1819,1827,1869
1819,1841,1885
1851,1856,1863
1849,1808,1813
1835,1758,1840
1795,1803,1872
1808,1851,1867
1835,1859,1855
1851,1812,1855
1846,1821,1855
1819,1821,1840
1834,1838,1827
1836,1897,1863
1831,1872,1866
1822,1873,1840
1830,1846,1850
1823,1813,1859
1825,1823,1849
1852,1844,1824
1871,1841,1799
1850,1925,1839
1815,1829,1874
1822,1752,1847
1837,1819,1855
1836,1875,1858
1851,1806,1859
1841,1817,1846
1823,1819,1840
1825,1837,1840
1842,1790,1837
1846,1871,1849
1854,1882,1863
1825,1856,1855
1825,1786,1852
1813,1831,1854
1834,1862,1852
1823,1827,1844
1849,1788,1813
1859,1851,1855
1824,1873,1894
1830,1887,1877
1840,1806,1841
1845,1818,1840
1842,1837,1843
1849,1824,1847
1834,1811,1845
1851,1851,1847
1867,1885,1840
1840,1809,1803
1825,1736,1783
1791,1798,1869
1803,1843,1885
1827,1838,1872
1835,1834,1857
1846,1849,1851
1838,1887,1850
1839,1808,1827
1851,1742,1821
1855,1837,1871
1836,1874,1882
1835,1850,1874
1850,1851,1870
1854,1881,1856
1841,1820,1847
1818,1783,1845
1827,1834,1861
1867,1889,1874
1845,1835,1846
1837,1776,1821
1811,1828,1851
1861,1851,1840
1814,1872,1856
1808,1858,1842
1825,1854,1849
1818,1787,1866
1823,1808,1842
1842,1755,1827
1807,1765,1828
1797,1783,1856
1821,1851,1885
1839,1852,1867
1809,1821,1852
1845,1824,1855
1851,1861,1855
1831,1840,1835
1838,1861,1827
1825,1823,1843
1840,1801,1866
1876,1862,1879
1871,1811,1830
1835,1797,1815
1818,1901,1873
1787,1907,1856
1850,1903,1847
1829,1805,1883
1809,1739,1877
1822,1769,1809
1798,1812,1816
1827,1846,1849
1841,1846,1857
1847,1816,1819
1846,1840,1856
1829,1851,1862
1820,1834,1825
1825,1829,1822
1840,1821,1809
1847,1902,1840
1844,1861,1873
1874,1766,1845
1814,1850,1840
1791,1917,1863
1820,1883,1869
1825,1872,1877
1873,1840,1870
1865,1846,1831
1761,1782,1808
1743,1776,1803
1803,1895,1851
1811,1820,1822
1839,1826,1817
1845,1811,1808
1819,1829,1811
1842,1839,1834
1839,1858,1854
1841,1859,1877
1827,1841,1823
1865,1797,1757
1861,1814,1756
1795,1904,1842
1797,1870,1889
1823,1840,1875
1808,1894,1794
1776,1805,1783
1795,1877,1815
1815,1791,1803
1835,1792,1834
1847,1847,1861
1846,1838,1839
1815,1838,1810
1794,1811,1771
1828,1841,1792
1827,1786,1812
1825,1837,1873
1845,1875,1840
1819,1887,1802
1769,1832,1799
1797,1873,1805
1886,1881,1811
1835,1794,1818
1802,1809,1825
1791,1809,1795
1829,1793,1797
1792,1795,1788
1785,1721,1840
1829,1791,1821
1843,1883,1808
1829,1870,1821
1847,1785,1806
1859,1915,1870
1829,1872,1841
1781,1851,1826
1807,1874,1828
1821,1839,1811
1841,1759,1776
1831,1778,1797
1828,1789,1839
1874,1947,1815
1781,1827,1780
1776,1791,1801
1834,1838,1870
1872,1894,1861
1808,1749,1795
1803,1719,1791
1855,1765,1808
1862,1852,1815
1830,1839,1834
1797,1891,1872
1802,1872,1850
1881,1918,1839
1829,1913,1814
1823,1818,1815
1805,1749,1807
1841,1761,1840
1827,1859,1876
1800,1847,1839
1841,1857,1791
1827,1747,1805
1840,1841,1823
1840,1838,1854
1810,1797,1840
1835,1753,1782
1829,1746,1790
1837,1843,1888
1815,1857,1872
1836,1847,1853
1834,1860,1814
1808,1831,1811
1835,1846,1872
1883,1874,1865
1847,1865,1824
1841,1776,1815
1867,1806,1794
1813,1740,1808
1794,1799,1867
1796,1840,1872
1819,1850,1850
1841,1826,1823
1842,1819,1808
1830,1886,1827
1860,1818,1824
1847,1725,1791
1827,1840,1875
1831,1887,1869
1824,1785,1825
1797,1751,1830
1795,1854,1862
1840,1857,1894
1871,1819,1851
1890,1821,1839
1845,1851,1830
1786,1865,1840
1810,1923,1830
1840,1699,1825
1814,1776,1859
1827,1822,1827
1837,1861,1868
1843,1919,1893
1827,1889,1859
1840,1855,1808
1799,1650,1805
1792,1769,1895
1821,1846,1879
1835,1851,1867
1837,1804,1842
1842,1814,1859
1815,1851,1854
1831,1862,1861
1834,1854,1870
1839,1831,1857
1851,1845,1846
1887,1863,1866
1841,1794,1858
1812,1809,1860
1841,1840,1836
1845,1853,1840
1781,1810,1871
1807,1855,1855
1830,1822,1823
1809,1802,1843
1841,1853,1881
1856,1841,1867
1819,1756,1851
1810,1807,1858
1857,1838,1865
1876,1807,1838
1840,1904,1857
1808,1826,1863
1821,1792,1867
1839,1785,1851
1842,1787,1853
1827,1842,1838
1837,1728,1767
1822,1869,1847
1854,1953,1898
1817,1859,1895
1808,1813,1887
1845,1851,1861
1875,1870,1859
1842,1822,1845
1840,1802,1858
1861,1850,1870
1882,1842,1871
1889,1762,1797
1776,1887,1840
1786,1943,1856
1821,1840,1851
1838,1814,1898
1871,1845,1895
1834,1781,1819
1808,1805,1814
1831,1858,1862
1882,1840,1843
1786,1853,1840
1808,1843,1842
1814,1814,1875
1826,1827,1871
1851,1841,1895
1822,1840,1872
1821,1766,1829
1828,1795,1840
1858,1873,1853
1865,1905,1887
1856,1931,1862
1835,1840,1837
1792,1783,1843
1802,1783,1855
1829,1856,1863
1856,1872,1893
1845,1770,1857
1865,1780,1834
1835,1873,1868
1831,1853,1872
1830,1882,1867
1823,1898,1861
1799,1886,1882
1776,1794,1848
1843,1873,1866
1823,1835,1863
1808,1801,1850
1823,1808,1863
1838,1843,1878
1866,1790,1879
1852,1840,1859
1831,1824,1854
1840,1902,1863
1856,1872,1857
1854,1831,1894
1830,1838,1890
1854,1861,1887
1833,1745,1793
1843,1739,1811
1856,1920,1952
1834,1883,1920
1815,1851,1863
1835,1808,1854
1845,1909,1877
1846,1955,1896
1838,1934,1877
1869,1879,1903
1843,1808,1849
1854,1773,1845
1872,1808,1881
1797,1808,1840
1808,1790,1845
1825,1802,1909
1800,1831,1875
1821,1798,1873
1855,1819,1856
1855,1835,1841
1842,1903,1903
1826,1921,1907
1814,1823,1856
1829,1834,1874
1901,1872,1895
1851,1903,1908
1808,1847,1879
1874,1796,1837
1877,1863,1873
1853,1873,1904
1821,1885,1873
1849,1982,1854
1811,1787,1806
1783,1751,1870
1824,1808,1901
1840,1856,1882
1863,1883,1874
1854,1801,1870
1842,1869,1878
1810,1849,1847
1814,1831,1855
1841,1715,1827
1836,1826,1867
1829,1909,1887
1856,1878,1873
1886,1873,1892
1869,1920,1901
1842,1838,1863
1821,1825,1842
1831,1795,1840
1840,1819,1861
1844,1971,1899
1820,1973,1909
1794,1789,1871
1860,1807,1857
1878,1799,1843
1823,1829,1808
1820,1750,1830
1807,1803,1888
1818,1896,1934
1843,1936,1898
1840,1895,1904
1823,1839,1873
1837,1846,1863
1858,1862,1865
1835,1811,1859
1840,1828,1865
1862,1899,1890
1880,1858,1875
1848,1833,1838
1827,1867,1859
1840,1861,1890
1857,1831,1861
1840,1842,1856
1835,1841,1869
1846,1857,1845
1850,1841,1839
1845,1787,1872
1826,1805,1882
1827,1861,1882
1861,1904,1890
1861,1930,1857
1814,1761,1802
1856,1789,1886
1875,1856,1913
1809,1859,1856
1759,1808,1838
1821,1847,1871
1843,1851,1862
1841,1817,1855
1806,1834,1841
1830,1813,1857
1866,1867,1866
1846,1873,1875
1840,1856,1862
1858,1890,1870
1851,1852,1856
1856,1835,1851
1821,1814,1792
1837,1884,1865
1850,1874,1891
1811,1798,1871
1788,1808,1870
1814,1777,1827
1872,1851,1831
1833,1877,1855
1840,1866,1903
1851,1858,1910
1820,1799,1856
1805,1802,1849
1824,1836,1856
1836,1853,1870
1867,1845,1874
1856,1872,1856
1829,1834,1845
1836,1837,1857
1863,1868,1893
1877,1831,1870
1838,1845,1849
1805,1855,1856
1838,1872,1843
1899,1811,1859
1884,1821,1861
1795,1827,1843
1766,1857,1850
1814,1855,1909
1877,1819,1872
1840,1839,1867
1815,1870,1878
1814,1840,1863
1811,1831,1860
1849,1874,1899
1871,1839,1851
1849,1805,1850
1846,1903,1868
1842,1835,1857
1824,1787,1835
1854,1862,1892
1840,1840,1866
1850,1799,1794
1843,1757,1817
1821,1904,1927
1840,1938,1925
1840,1846,1873
1847,1821,1844
1843,1828,1866
1820,1808,1856
1838,1897,1855
1841,1854,1871
1874,1840,1899
1861,1762,1865
1840,1887,1839
1808,1855,1819
1830,1837,1885
1853,1839,1889
1869,1842,1856
1870,1870,1850
1877,1839,1858
1809,1808,1840
1844,1843,1845
1855,1875,1848
1849,1851,1870
1856,1787,1821
1865,1904,1859
1895,1901,1878
1829,1862,1870
1781,1799,1868
1787,1779,1813
1829,1775,1846
1825,1791,1861
1847,1839,1872
1895,1873,1856
1808,1824,1827
1778,1765,1840
1808,1815,1866
1872,1904,1903
1836,1894,1871
1811,1844,1844
1837,1830,1860
1846,1842,1852
1840,1823,1831
1863,1819,1856
1883,1882,1885
1872,1820,1853
1850,1811,1825
1819,1821,1866
1834,1945,1887
1833,1809,1846
1849,1815,1847
1845,1782,1830
1857,1771,1833
1802,1785,1840
1822,1893,1893
1859,1895,1897
1840,1808,1880
1840,1807,1846
1849,1855,1835
1824,1814,1847
1865,1866,1895
1872,1854,1892
1854,1865,1862
1826,1861,1823
1823,1845,1859
1844,1907,1857
1842,1857,1820
1829,1795,1809
1826,1767,1806
1872,1925,1894
1858,1891,1887
1837,1881,1856
1846,1788,1836
1846,1675,1830
1881,1761,1858
1799,1861,1871
1809,1871,1846
1817,1838,1809
1827,1860,1859
1852,1866,1879
1825,1859,1843
1819,1840,1840
1839,1781,1839
1893,1837,1863
1862,1852,1904
1811,1857,1886
1820,1840,1825
1821,1798,1827
1827,1767,1808
1828,1850,1848
1850,1872,1873
1851,1901,1857
1856,1767,1860
1825,1767,1871
1872,1867,1890
1869,1851,1853
1843,1858,1813
1815,1757,1839
1863,1800,1858
1851,1808,1837
1830,1833,1834
1821,1865,1853
1810,1830,1843
1840,1823,1871
1852,1837,1877
1857,1846,1891
1839,1858,1855
1872,1887,1861
1890,1840,1853
1855,1796,1810
1803,1840,1840
1808,1827,1859
1831,1842,1858
1883,1891,1869
1860,1879,1862
1807,1833,1846
1836,1810,1849
1879,1793,1825
1835,1841,1837
1821,1856,1889
1837,1808,1889
1835,1821,1847
1831,1809,1808
1834,1825,1840
1861,1863,1871
1842,1802,1833
1825,1796,1838
1886,1728,1843
1840,1813,1871
1785,1901,1873
1808,1852,1867
1823,1811,1842
1829,1827,1842
1847,1834,1827
1895,1893,1856
1865,1830,1844
1816,1830,1850
1842,1857,1847
1840,1779,1789
1827,1903,1843
1813,1841,1876
1811,1811,1862
1842,1791,1821
1823,1807,1840
1843,1843,1854
1867,1846,1847
1855,1847,1850
1791,1808,1842
1834,1813,1828
1837,1759,1821
1851,1839,1838
1855,1840,1849
1841,1859,1886
1857,1918,1856
1836,1826,1835
1831,1818,1840
1808,1776,1840
1837,1797,1853
1851,1822,1870
1841,1819,1862
1849,1856,1840
1849,1827,1808
1842,1777,1823
1855,1872,1899
1843,1853,1877
1830,1822,1851
1840,1854,1867
1821,1827,1829
1815,1872,1825
1825,1859,1837
1863,1821,1840
1842,1783,1840
1840,1855,1877
1887,1887,1862
1835,1834,1813
1834,1737,1799
1793,1821,1833
1834,1879,1874
1840,1847,1873
1812,1790,1825
1811,1807,1821
1835,1857,1841
1871,1904,1855
1859,1876,1829
1872,1822,1824
1826,1749,1857
1787,1821,1868
1849,1870,1900
1840,1813,1865
1812,1858,1809
1792,1808,1810
1841,1810,1856
1826,1809,1861
1838,1838,1830
1873,1845,1831
1871,1839,1877
1843,1856,1893
1808,1824,1793
1824,1808,1795
1835,1824,1852
1830,1839,1872
1851,1862,1851
1855,1856,1829
1871,1873,1862
1843,1787,1831
1840,1841,1850
1833,1859,1846
1822,1808,1829
1851,1844,1858
1843,1855,1839
1867,1843,1847
1868,1904,1872
1787,1763,1845
1839,1757,1791
1849,1857,1840
1824,1814,1868
1808,1817,1865
1843,1817,1858
1872,1897,1874
1817,1801,1840
1826,1777,1852
1842,1856,1851
1815,1794,1813
1819,1793,1856
1853,1825,1891
1859,1825,1860
1846,1837,1845
1834,1840,1871
1843,1807,1855
1839,1789,1815
1821,1857,1846
1830,1833,1859
1833,1831,1869
1855,1921,1893
1835,1892,1866
1813,1790,1840
1797,1761,1808
1854,1759,1813
1835,1832,1845
1835,1850,1893
1850,1874,1872
1837,1842,1829
1808,1827,1815
1821,1828,1840
1839,1825,1859
1872,1904,1854
1866,1786,1836
1827,1805,1871
1783,1830,1866
1795,1851,1815
1806,1841,1817
1823,1840,1863
1862,1808,1890
1840,1819,1851
1825,1807,1845
1831,1830,1856
1875,1872,1819
1887,1840,1840
1797,1834,1872
1806,1815,1871
1818,1841,1861
1821,1822,1831
1825,1876,1840
1825,1806,1862
1829,1792,1853
1886,1860,1884
1842,1818,1840
1795,1802,1813
1826,1856,1859
1865,1854,1840
1823,1840,1810
1829,1827,1843
1819,1832,1869
1818,1867,1847
1837,1869,1856
1837,1911,1823
1849,1789,1856
1872,1812,1878
1837,1808,1840
1801,1788,1844
1815,1799,1860
1847,1808,1812
1840,1812,1824
1840,1878,1879
1840,1915,1887
1805,1815,1845
1825,1824,1853
1863,1862,1862
1837,1827,1856
1835,1815,1842
1818,1840,1840
1779,1897,1840
1826,1835,1852
1867,1828,1875
1843,1840,1859
1823,1801,1826
1808,1807,1826
1871,1904,1859
1850,1845,1882
1824,1839,1813
1823,1802,1834
1810,1825,1843
1811,1803,1834
1833,1811,1856
1866,1827,1870
1863,1834,1882
1837,1840,1867
1818,1808,1847
1829,1751,1834
1856,1872,1857
1888,1927,1854
1829,1835,1839
1801,1828,1859
1827,1855,1875
1856,1841,1871
1840,1845,1857
1851,1866,1856
1872,1841,1859
1840,1850,1845
1840,1869,1857
1794,1800,1838
1824,1801,1873
1808,1808,1840
1796,1841,1825
1847,1851,1863
1849,1841,1837
1854,1823,1840
1824,1820,1861
1831,1809,1871
1821,1815,1832
1855,1885,1853
1855,1953,1841
1838,1757,1797
1860,1760,1843
1824,1825,1875
1824,1946,1902
1808,1794,1853
1809,1799,1840
1832,1831,1859
1815,1813,1872
1800,1815,1855
1839,1829,1850
1855,1857,1847
1825,1845,1835
1823,1840,1851
1827,1821,1855
1841,1846,1863
1840,1831,1855
1840,1846,1861
1845,1837,1830
1837,1850,1830
1834,1851,1850
1845,1815,1859
1845,1854,1845
1835,1827,1872
1828,1825,1862
1845,1837,1837
1865,1747,1772
1824,1882,1856
1813,1903,1900
1780,1835,1882
1834,1847,1898
1831,1805,1854
1799,1791,1827
1825,1843,1843
1841,1839,1851
1837,1798,1843
1829,1849,1871
1824,1853,1874
1811,1808,1819
1836,1829,1841
1862,1855,1868
1842,1888,1859
1846,1894,1823
1814,1793,1841
1795,1758,1856
