1825,1814,1862
1808,1845,1844
1808,1808,1828
1837,1831,1861
1840,1838,1851
1831,1840,1840
1828,1811,1839
1811,1834,1833
1826,1808,1857
1847,1813,1856
1820,1843,1853
1825,1808,1825
1855,1762,1793
1815,1857,1847
1806,1919,1896
1809,1867,1872
1821,1933,1866
1823,1821,1843
1808,1803,1835
1799,1783,1844
1819,1794,1848
1849,1837,1845
1843,1812,1840
1808,1827,1855
1813,1869,1851
1834,1810,1841
1826,1803,1838
1826,1814,1845
1846,1851,1847
1834,1870,1856
1837,1830,1838
1836,1833,1841
1837,1855,1842
1858,1859,1837
1840,1760,1801
1823,1763,1821
1808,1937,1875
1817,1904,1873
1823,1920,1866
1813,1840,1843
1824,1796,1841
1819,1790,1855
1815,1795,1856
1820,1831,1837
1810,1815,1846
1851,1821,1842
1814,1818,1835
1795,1821,1843
1814,1840,1845
1840,1843,1840
1853,1840,1846
1819,1823,1839
1831,1844,1841
1847,1835,1810
1840,1786,1822
1799,1840,1872
1808,1883,1875
1828,1856,1861
1857,1807,1838
1850,1870,1854
1811,1861,1847
1808,1815,1840
1826,1812,1844
1847,1808,1835
1838,1802,1847
1808,1830,1856
1806,1825,1856
1823,1855,1855
1831,1813,1847
1827,1812,1842
1836,1814,1846
1842,1818,1844
1844,1837,1853
1847,1866,1845
1849,1862,1845
1826,1758,1823
1814,1792,1837
1825,1856,1865
1829,1893,1895
1821,1872,1882
1807,1842,1836
1825,1806,1837
1840,1808,1845
1833,1762,1850
1824,1826,1861
1827,1872,1840
1799,1783,1840
1803,1811,1863
1813,1831,1853
1837,1865,1835
1837,1840,1837
1827,1795,1859
1837,1814,1870
1826,1833,1857
1815,1834,1853
1835,1831,1860
1839,1842,1854
1845,1849,1854
1840,1779,1814
1840,1758,1823
1843,1878,1872
1833,1891,1879
1829,1864,1861
1821,1809,1859
1858,1858,1860
1842,1890,1849
1809,1754,1850
1815,1759,1846
1823,1820,1856
1823,1837,1902
1830,1853,1861
1825,1854,1831
1822,1808,1837
1814,1777,1823
1831,1817,1840
1849,1821,1819
1822,1876,1856
1808,1872,1882
1801,1825,1871
1813,1808,1856
1828,1825,1853
1838,1838,1844
1848,1840,1855
1827,1795,1846
1835,1819,1840
1849,1863,1830
1823,1815,1840
1813,1760,1845
1825,1828,1855
1819,1859,1859
1817,1856,1863
1839,1837,1856
1849,1906,1843
1821,1808,1823
1810,1745,1829
1826,1766,1823
1828,1850,1869
1808,1890,1877
1797,1887,1872
1806,1840,1856
1815,1829,1842
1824,1851,1854
1819,1840,1841
1841,1836,1846
1825,1811,1845
1824,1825,1854
1818,1817,1843
1826,1847,1839
1852,1882,1827
1830,1807,1831
1798,1783,1846
1809,1765,1825
1808,1842,1850
1818,1922,1850
1833,1850,1829
1804,1793,1857
1802,1811,1872
1808,1841,1859
1831,1869,1841
1853,1837,1843
1805,1805,1847
1802,1808,1841
1810,1807,1840
1829,1808,1840
1856,1840,1841
1846,1859,1845
1826,1845,1843
1826,1854,1838
1815,1854,1829
1832,1811,1837
1823,1781,1835
1827,1794,1838
1819,1852,1854
1851,1794,1823
1847,1783,1818
1809,1904,1869
1805,1856,1879
1827,1823,1870
1834,1812,1859
1840,1879,1844
1845,1820,1839
1805,1795,1840
1794,1797,1838
1834,1822,1843
1857,1855,1840
1855,1846,1840
1829,1825,1840
1808,1809,1838
1814,1829,1835
1840,1843,1838
1841,1830,1837
1841,1857,1840
1840,1822,1839
1847,1728,1791
1840,1782,1831
1821,1850,1851
1793,1933,1885
1794,1859,1854
1793,1815,1852
1813,1801,1855
1842,1831,1847
1858,1834,1831
1835,1829,1841
1811,1836,1858
1852,1853,1841
1834,1838,1838
1835,1870,1855
1808,1804,1850
1818,1837,1830
1827,1808,1832
1813,1798,1838
1813,1803,1836
1839,1771,1802
1835,1831,1840
1816,1851,1873
1825,1862,1874
1821,1846,1856
1816,1843,1861
1810,1791,1851
1823,1818,1845
1837,1879,1856
1856,1902,1840
1837,1831,1841
1807,1782,1855
1812,1830,1854
1860,1843,1831
1834,1785,1845
1808,1781,1853
1815,1817,1840
1838,1851,1847
1839,1808,1858
1845,1742,1819
1835,1783,1821
1816,1969,1879
1808,1892,1862
1837,1808,1855
1825,1803,1856
1817,1836,1858
1819,1825,1850
1825,1814,1856
1840,1819,1847
1858,1857,1847
1823,1843,1858
1809,1813,1846
1834,1815,1833
1851,1839,1840
1839,1835,1831
1820,1790,1830
1829,1841,1853
1847,1854,1853
1830,1799,1854
1830,1793,1851
1841,1803,1839
1851,1847,1846
1850,1854,1845
1836,1851,1840
1855,1802,1803
1843,1828,1812
1839,1878,1871
1830,1850,1894
1822,1840,1872
1856,1837,1852
1860,1810,1851
1807,1840,1855
1809,1815,1872
1836,1840,1853
1803,1803,1854
1810,1817,1847
1819,1870,1840
1819,1833,1841
1829,1815,1801
1842,1712,1798
1827,1863,1885
1838,1873,1881
1833,1883,1853
1857,1815,1846
1840,1820,1865
1799,1814,1859
1808,1804,1855
1841,1758,1854
1858,1859,1867
1813,1909,1840
1811,1792,1803
1823,1776,1823
1802,1875,1872
1806,1858,1872
1813,1845,1871
1831,1869,1857
1848,1853,1842
1854,1812,1855
1828,1773,1858
1845,1775,1846
1843,1841,1851
1858,1866,1851
1857,1907,1854
1833,1829,1855
1808,1782,1847
1808,1819,1843
1818,1824,1837
1836,1810,1862
1853,1821,1859
1873,1834,1856
1825,1833,1856
1811,1847,1857
1828,1865,1854
1857,1871,1851
1835,1823,1821
1841,1783,1802
1835,1868,1895
1801,1889,1888
1808,1791,1850
1819,1806,1851
1842,1827,1842
1854,1846,1853
1824,1839,1882
1823,1837,1867
1809,1829,1845
1825,1857,1835
1813,1808,1843
1811,1804,1867
1866,1844,1859
1859,1810,1840
1841,1775,1828
1827,1855,1859
1818,1886,1853
1834,1827,1824
1821,1869,1867
1826,1875,1873
1855,1888,1866
1824,1846,1859
1834,1797,1841
1830,1840,1849
1835,1887,1859
1849,1844,1834
1836,1807,1819
1819,1748,1854
1839,1839,1859
1829,1825,1861
1813,1806,1866
1820,1806,1854
1846,1809,1839
1851,1847,1819
1811,1837,1856
1857,1747,1830
1847,1862,1869
1803,1899,1878
1810,1882,1872
1810,1843,1862
1827,1836,1853
1835,1835,1840
1830,1813,1850
1829,1833,1859
1838,1840,1857
1843,1854,1854
1853,1872,1856
1850,1835,1849
1831,1866,1847
1825,1776,1854
1841,1721,1861
1834,1819,1819
1813,1843,1840
1808,1839,1871
1827,1824,1859
1865,1771,1818
1863,1870,1869
1826,1855,1854
1824,1839,1856
1835,1870,1874
1829,1850,1857
1835,1857,1841
1840,1834,1854
1849,1829,1856
1808,1830,1865
1837,1831,1851
1827,1825,1853
1827,1866,1866
1832,1852,1839
1846,1807,1818
1825,1767,1854
1831,1806,1866
1861,1807,1862
1846,1827,1837
1847,1810,1802
1826,1853,1858
1837,1906,1875
1867,1876,1865
1831,1793,1847
1834,1801,1854
1851,1838,1855
1867,1857,1845
1840,1808,1837
1814,1783,1846
1844,1862,1857
1850,1869,1853
1831,1782,1840
1824,1819,1853
1846,1827,1826
1855,1904,1835
1869,1784,1863
1831,1743,1863
1840,1792,1835
1837,1876,1866
1821,1853,1866
1845,1883,1866
1855,1821,1867
1843,1832,1847
1845,1835,1843
1841,1824,1849
1827,1813,1834
1842,1813,1851
1847,1826,1859
1862,1845,1840
1850,1837,1840
1857,1794,1842
1839,1871,1872
1815,1840,1872
1845,1830,1845
1847,1798,1817
1855,1802,1799
1846,1857,1873
1826,1844,1889
1833,1859,1883
1840,1897,1891
1853,1846,1840
1839,1818,1826
1823,1856,1847
1829,1797,1819
1823,1727,1809
1811,1877,1886
1822,1873,1877
1840,1814,1865
1856,1841,1847
1849,1823,1841
1833,1836,1853
1843,1838,1870
1862,1887,1888
1872,1742,1825
1853,1776,1809
1814,1867,1838
1824,1966,1873
1825,1853,1872
1808,1825,1875
1815,1815,1872
1835,1826,1862
1851,1861,1855
1841,1846,1847
1830,1854,1846
1822,1792,1841
1839,1831,1861
1843,1872,1861
1843,1903,1851
1843,1842,1858
1833,1799,1866
1835,1793,1855
1851,1796,1838
1814,1833,1853
1825,1807,1828
1824,1821,1866
1841,1893,1905
1833,1865,1869
1813,1857,1856
1822,1836,1840
1846,1872,1811
1817,1774,1837
1795,1805,1866
1793,1825,1859
1822,1825,1853
1833,1843,1856
1837,1847,1851
1841,1840,1842
1841,1837,1855
1853,1871,1855
1855,1838,1839
1869,1808,1828
1849,1778,1821
1829,1826,1861
1815,1907,1881
1855,1871,1843
1808,1840,1870
1792,1827,1878
1840,1857,1872
1858,1792,1850
1815,1755,1831
1798,1818,1842
1823,1851,1840
1836,1851,1846
1825,1840,1840
1826,1815,1860
1839,1826,1865
1846,1830,1851
1842,1808,1847
1841,1855,1851
1857,1771,1808
1840,1872,1853
1819,1856,1872
1825,1838,1824
1854,1847,1841
1825,1934,1873
1796,1822,1883
1825,1819,1871
1808,1794,1835
1810,1813,1826
1839,1822,1835
1839,1863,1850
1839,1859,1841
1846,1817,1831
1826,1823,1845
1840,1832,1855
1838,1838,1841
1838,1815,1802
1834,1823,1840
1840,1872,1881
1846,1926,1862
1841,1831,1837
1858,1774,1829
1840,1776,1840
1849,1920,1867
1866,1904,1840
1797,1751,1867
1791,1798,1870
1808,1835,1853
1839,1842,1843
1840,1840,1858
1822,1843,1863
1829,1879,1850
1855,1815,1817
1842,1744,1807
1838,1845,1875
1837,1881,1877
1830,1865,1855
1837,1823,1843
1833,1833,1856
1846,1846,1850
1850,1898,1841
1842,1827,1834
1840,1826,1856
1840,1839,1857
1846,1864,1855
1861,1750,1830
1823,1806,1851
1840,1882,1862
1843,1879,1857
1840,1825,1840
1865,1862,1834
1834,1856,1834
1813,1821,1871
1835,1792,1856
1856,1759,1808
1849,1846,1855
1853,1908,1890
1839,1887,1853
1797,1798,1815
1818,1883,1840
1840,1866,1850
1852,1872,1849
1824,1815,1838
1813,1753,1827
1822,1844,1851
1834,1842,1862
1826,1835,1861
1824,1843,1849
1830,1850,1834
1851,1815,1837
1867,1884,1821
1858,1830,1809
1814,1851,1901
1801,1807,1872
1801,1797,1861
1824,1782,1840
1836,1866,1857
1852,1889,1867
1871,1854,1867
1827,1789,1834
1808,1787,1821
1802,1785,1847
1818,1853,1867
1825,1834,1856
1825,1856,1856
1843,1831,1850
1840,1807,1862
1835,1861,1870
1837,1862,1849
1833,1791,1790
1819,1844,1850
1821,1851,1875
1831,1929,1881
1833,1871,1849
1842,1792,1862
1846,1729,1838
1845,1797,1854
1840,1760,1833
1823,1791,1840
1783,1892,1875
1791,1881,1878
1827,1861,1858
1822,1807,1857
1811,1809,1856
1826,1857,1862
1838,1866,1860
1850,1866,1853
1869,1833,1835
1873,1801,1845
1840,1841,1795
1824,1719,1751
1791,1834,1874
1795,1860,1871
1839,1822,1881
1817,1769,1871
1762,1792,1856
1782,1851,1854
1789,1825,1828
1811,1823,1829
1825,1787,1801
1849,1871,1867
1851,1888,1892
1866,1898,1862
1858,1803,1836
1815,1814,1825
1767,1807,1813
1777,1771,1829
1786,1863,1863
1808,1808,1836
1840,1860,1870
1840,1802,1860
1818,1787,1886
1821,1876,1870
1819,1841,1844
1839,1735,1771
1799,1808,1837
1831,1861,1869
1877,1840,1818
1853,1857,1854
1834,1854,1851
1825,1931,1798
1760,1776,1776
1749,1783,1847
1793,1831,1877
1885,1902,1861
1915,1897,1850
1851,1831,1854
1887,1863,1895
1891,1878,1873
1890,1847,1837
1879,1808,1783
1815,1905,1829
1806,1822,1799
1934,1936,1829
1807,1843,1843
1750,1835,1793
1786,1822,1776
1859,1770,1843
1839,1813,1836
1796,1863,1839
1814,1808,1795
1886,1776,1814
1842,1840,1778
1847,1891,1831
1812,1932,1842
1779,1910,1809
1807,1843,1827
1833,1842,1808
1825,1840,1748
1841,1919,1779
1840,1819,1781
1835,1811,1792
1825,1751,1794
1856,1822,1745
1840,1811,1728
1741,1829,1814
1775,1826,1825
1790,1792,1776
1835,1774,1768
1817,1888,1807
1791,1877,1802
1763,1808,1791
1790,1849,1782
1849,1836,1783
1878,1819,1797
1786,1805,1770
1826,1870,1807
1839,1872,1792
1862,1881,1783
1817,1837,1789
1773,1859,1814
1829,1840,1799
1840,1795,1741
1789,1815,1754
1745,1763,1808
1822,1760,1815
1904,1840,1833
1809,1870,1835
1737,1836,1803
1811,1839,1794
1820,1858,1793
1806,1847,1814
1817,1767,1803
1823,1834,1821
1831,1898,1813
1805,1927,1829
1776,1677,1777
1840,1776,1776
1791,1857,1823
1798,1856,1852
1810,1792,1827
1821,1843,1811
1821,1905,1841
1808,1888,1813
1826,1777,1818
1778,1821,1846
1805,1883,1819
1877,1861,1872
1837,1853,1858
1785,1769,1762
1828,1794,1794
1844,1712,1803
1869,1808,1856
1856,1927,1870
1793,1825,1792
1799,1942,1847
1808,1808,1794
1734,1797,1821
1746,1808,1863
1814,1831,1867
1834,1820,1861
1844,1830,1858
1844,1847,1850
1790,1841,1850
1797,1857,1840
1825,1851,1860
1830,1826,1862
1856,1782,1826
1863,1819,1841
1840,1822,1829
1775,1776,1843
1780,1808,1861
1840,1840,1888
1843,1853,1845
1864,1837,1834
1842,1901,1848
1814,1842,1877
1820,1904,1909
1859,1887,1829
1827,1776,1830
1808,1807,1858
1799,1846,1846
1840,1870,1873
1891,1837,1856
1889,1810,1866
1838,1813,1827
1850,1840,1868
1840,1825,1891
1808,1877,1887
1840,1918,1909
1843,1899,1851
1847,1813,1842
1849,1920,1882
1862,1849,1843
1798,1799,1886
1771,1840,1866
1814,1751,1840
1842,1782,1889
1843,1893,1886
1859,1782,1834
1898,1735,1842
1849,1866,1883
1792,1856,1862
1767,1916,1931
1840,1971,1969
1813,1881,1834
1815,1805,1808
1872,1811,1859
1875,1842,1901
1828,1839,1824
1845,1887,1877
1794,1829,1855
1797,1765,1869
1841,1847,1874
1888,1874,1895
1841,1727,1842
1827,1785,1853
1808,1962,1904
1839,1872,1883
1823,1827,1870
1806,1867,1865
1842,1839,1925
1851,1873,1869
1866,1757,1862
1836,1837,1867
1826,1906,1895
1850,1920,1885
1805,1797,1843
1782,1831,1872
1853,1937,1879
1860,1947,1831
1856,1798,1863
1821,1754,1885
1834,1777,1883
1935,1750,1810
1867,1853,1843
1778,1865,1885
1767,1828,1903
1820,1823,1918
1890,1899,1900
1872,1860,1869
1808,1836,1850
1823,1808,1866
1931,1863,1910
1845,1858,1877
1840,1782,1886
1851,1825,1842
1794,1824,1867
1830,1878,1879
1831,1806,1861
1873,1819,1895
1850,1834,1858
1897,1846,1867
1830,1866,1908
1827,1785,1904
1793,1771,1845
1888,1889,1865
1885,1799,1835
1774,1827,1872
1867,1852,1904
1850,1873,1887
1914,1885,1902
1813,1745,1882
1797,1786,1856
1831,1859,1857
1838,1783,1838
1859,1808,1847
1861,1915,1920
1856,1885,1899
1801,1829,1859
1786,1826,1877
1871,1838,1901
1911,1791,1838
1802,1775,1867
1808,1895,1908
1830,1843,1886
1897,1815,1863
1889,1871,1857
1810,1891,1873
1794,1872,1873
1845,1853,1871
1904,1793,1855
1856,1770,1872
1777,1808,1892
1779,1792,1852
1856,1774,1850
1945,1951,1910
1873,1840,1859
1805,1776,1872
1776,1856,1897
1821,1907,1907
1840,1867,1899
1831,1809,1872
1809,1801,1840
1878,1825,1868
1857,1815,1871
1863,1840,1874
1854,1773,1854
1872,1924,1901
1862,1936,1904
1853,1839,1867
1807,1756,1840
1882,1754,1805
1914,1746,1830
1824,1861,1913
1777,1888,1941
1918,1876,1893
1855,1810,1863
1772,1809,1878
1787,1865,1887
1869,1859,1857
1936,1904,1871
1868,1850,1863
1875,1844,1894
1872,1875,1901
1856,1762,1853
1808,1773,1827
1853,1850,1874
1819,1862,1894
1840,1831,1877
1858,1750,1839
1867,1697,1819
1873,1893,1926
1920,1958,1911
1869,1787,1850
1776,1856,1882
1797,1872,1894
1795,1837,1871
1867,1904,1876
1907,1792,1839
1858,1806,1883
1839,1937,1904
1845,1915,1861
1865,1811,1850
1917,1837,1859
1837,1844,1863
1823,1810,1879
1807,1726,1825
1811,1783,1875
1815,1854,1883
1888,1895,1911
1904,1846,1854
1862,1841,1843
1817,1779,1872
1811,1853,1872
1840,1840,1846
1936,1791,1846
1856,1902,1919
1766,1857,1850
1824,1806,1862
1889,1757,1812
1837,1822,1871
1842,1865,1931
1904,1948,1895
1891,1849,1818
1865,1822,1805
1786,1739,1866
1794,1872,1915
1898,1906,1909
1875,1878,1895
1855,1736,1846
1869,1639,1835
1840,1920,1875
1808,1922,1836
1841,1888,1825
1861,1887,1873
1840,1842,1904
1851,1886,1917
1846,1904,1878
1871,1763,1834
1873,1728,1813
1838,1837,1870
1834,1778,1841
1851,1803,1861
1866,1967,1879
1854,1818,1845
1905,1679,1833
1869,1782,1883
1819,1953,1908
1786,1893,1873
1841,1809,1843
1902,1761,1853
1913,1800,1857
1827,1893,1874
1840,1859,1879
1850,1854,1885
1863,1879,1882
1904,1828,1888
1815,1708,1824
1819,1828,1792
1808,1823,1851
1814,1848,1895
1867,1803,1879
1882,1875,1882
1872,1839,1882
1873,1871,1876
1791,1815,1866
1827,1808,1829
1904,1859,1844
1950,1875,1894
1942,1897,1907
1874,1891,1857
1805,1744,1827
1783,1797,1866
1848,1887,1872
1850,1872,1845
1891,1831,1870
1837,1763,1865
1833,1680,1790
1915,1826,1851
1819,1847,1873
1802,1957,1883
1903,1922,1901
1873,1859,1872
1797,1797,1857
1830,1815,1900
1887,1895,1875
1903,1872,1845
1894,1854,1845
1906,1872,1851
1820,1843,1840
1810,1798,1871
1840,1838,1872
1867,1771,1840
1861,1786,1838
1882,1767,1776
1889,1762,1829
1837,1886,1919
1845,1923,1925
1872,1877,1841
1750,1807,1806
1792,1804,1859
1935,1879,1907
1840,1878,1847
1900,1936,1895
1881,1855,1891
1825,1839,1839
1810,1818,1826
1857,1840,1869
1854,1876,1894
1835,1791,1867
1831,1734,1809
1871,1867,1842
1911,1978,1840
1850,1799,1862
1785,1763,1857
1840,1889,1840
1872,1953,1872
1891,1883,1904
1825,1819,1850
1843,1780,1805
1856,1815,1879
1867,1851,1919
1813,1853,1847
1878,1876,1846
1852,1728,1801
1963,1821,1899
1865,1944,1900
1749,1860,1872
1794,1805,1856
1879,1744,1847
1893,1819,1853
1834,1941,1853
1811,1856,1861
1874,1834,1861
1874,1840,1826
1837,1894,1841
1838,1886,1872
1827,1766,1847
1834,1776,1835
1856,1826,1861
1852,1787,1827
1841,1807,1889
1869,1791,1873
1907,1873,1843
1937,1870,1891
1735,1858,1854
1767,1866,1845
1851,1731,1805
1873,1774,1827
1872,1895,1878
1808,1866,1859
1862,1888,1870
1883,1843,1851
1843,1796,1855
1787,1794,1853
1818,1875,1867
1851,1849,1872
1826,1804,1847
1840,1807,1836
1830,1807,1840
1862,1807,1856
1901,1891,1889
1893,1898,1845
1846,1770,1808
1853,1761,1855
1827,1878,1885
1840,1884,1856
1887,1841,1851
1827,1791,1811
1826,1757,1821
1872,1879,1901
1857,1847,1894
1867,1893,1909
1855,1836,1845
1808,1902,1870
1821,1831,1841
1840,1813,1840
1840,1841,1856
1897,1869,1869
1862,1773,1815
1790,1777,1851
1839,1904,1897
1963,1791,1871
1847,1774,1871
1762,1841,1859
1767,1904,1840
1855,1821,1841
1891,1834,1860
1854,1842,1862
1823,1830,1870
1829,1793,1873
1889,1830,1823
1811,1905,1808
1821,1808,1858
1856,1811,1891
1879,1840,1850
1790,1825,1853
1853,1795,1872
1895,1785,1834
1801,1841,1855
1767,1894,1847
1769,1850,1851
1872,1759,1856
1882,1845,1867
1823,1818,1840
1815,1791,1839
1819,1846,1853
1839,1870,1856
1877,1840,1883
1904,1859,1859
1898,1808,1833
1870,1785,1812
1839,1845,1859
1850,1829,1830
1837,1829,1763
1819,1803,1809
1968,1903,1925
1856,1899,1891
1741,1851,1855
1774,1834,1840
1827,1766,1859
1888,1733,1855
1840,1819,1839
1850,1911,1854
1806,1814,1858
1831,1827,1872
1842,1841,1847
1850,1808,1841
1934,1904,1877
1913,1877,1882
1903,1803,1838
1774,1775,1828
1765,1728,1835
1795,1764,1808
1901,1751,1807
1893,1935,1841
1823,1916,1904
1837,1859,1903
1808,1839,1841
1814,1828,1853
1874,1824,1862
1871,1859,1870
1850,1870,1840
1791,1682,1825
1789,1744,1845
1843,1879,1870
1870,1904,1869
1872,1898,1871
1856,1813,1803
1874,1831,1833
1863,1821,1863
1767,1763,1822
1803,1757,1785
1836,1827,1855
1855,1936,1891
1850,1935,1884
1869,1870,1831
1838,1806,1849
1783,1871,1872
1804,1943,1811
1785,1778,1846
1863,1733,1839
1857,1735,1810
1840,1741,1781
1793,1731,1786
1812,1868,1886
1872,1892,1914
1897,1862,1875
1796,1823,1857
1808,1776,1797
1873,1833,1831
1904,1917,1874
1843,1872,1891
1777,1753,1809
1810,1902,1840
1831,1901,1854
1846,1833,1847
1840,1826,1865
1879,1897,1899
1847,1779,1845
1859,1793,1830
1875,1851,1835
1813,1842,1817
1806,1778,1796
1825,1837,1872
1766,1814,1865
1792,1801,1845
1813,1836,1861
1875,1845,1850
1915,1919,1835
1910,1936,1822
1844,1751,1822
1819,1727,1831
1840,1857,1888
1829,1819,1818
1845,1810,1810
1879,1852,1839
1885,1757,1855
1863,1840,1872
1831,1930,1859
1793,1892,1855
1812,1830,1865
1895,1847,1824
1932,1873,1811
1936,1849,1827
1834,1776,1850
1772,1852,1888
1842,1836,1847
1823,1834,1830
1845,1859,1851
1901,1936,1871
1836,1787,1814
1772,1779,1792
1872,1894,1858
1915,1986,1899
1809,1862,1853
1777,1744,1854
1867,1738,1851
1778,1715,1835
1839,1883,1790
1779,1899,1811
1728,1739,1826
1823,1840,1891
1891,1935,1889
1840,1891,1839
1909,1783,1803
1893,1867,1870
1833,1822,1866
1744,1844,1854
1737,1778,1808
1861,1831,1837
1906,1839,1819
1806,1763,1847
1793,1844,1887
1849,1893,1855
1843,1933,1859
1822,1829,1842
1798,1770,1839
1875,1837,1867
1826,1758,1824
1815,1663,1822
1754,1886,1838
1745,1858,1830
1829,1802,1812
1899,1874,1890
1909,1904,1907
1805,1936,1856
1819,1819,1833
1856,1807,1883
1779,1803,1853
1788,1803,1776
1846,1806,1840
1876,1808,1881
1856,1843,1879
1859,1862,1840
1837,1936,1853
1835,1854,1874
1776,1794,1841
1881,1808,1806
1983,1810,1799
1851,1886,1894
1772,1856,1891
1761,1783,1810
1786,1835,1833
1857,1854,1873
1830,1837,1819
1765,1754,1808
1853,1881,1872
1824,1877,1898
1851,1867,1913
1910,1923,1887
1893,1891,1815
1793,1798,1792
1761,1766,1802
1776,1792,1830
1837,1802,1862
1855,1789,1867
1852,1777,1847
1839,1841,1841
1831,1845,1843
1797,1878,1876
1919,1926,1885
2023,1966,1904
1808,1837,1847
1717,1729,1802
1890,1808,1840
1968,1897,1891
1921,1809,1871
1744,1801,1829
1809,1840,1861
1920,1829,1781
1893,1872,1873
1782,1854,1927
1717,1893,1889
1824,1747,1810
1914,1793,1808
1863,1842,1831
1738,1812,1867
1773,1867,1879
1950,1780,1853
1890,1836,1849
1774,1883,1876
1868,1959,1904
1811,1872,1847
1819,1797,1869
1750,1769,1815
1811,1781,1808
1915,1839,1849
1872,1919,1856
1904,1852,1849
1808,1763,1795
1774,1794,1830
1793,1869,1911
1776,1842,1899
1807,1789,1837
1947,1840,1810
1850,1860,1858
1806,1846,1867
1773,1778,1872
1845,1840,1864
1778,1881,1840
1877,1862,1855
1858,1892,1877
1867,1856,1887
1887,1781,1863
1823,1819,1873
1829,1833,1818
1871,1771,1805
1839,1770,1831
1794,1781,1856
1821,1975,1845
1887,1973,1863
1834,1799,1862
1747,1753,1851
1895,1763,1874
1861,1789,1862
1847,1870,1872
1815,1903,1883
1734,1773,1833
1782,1779,1794
1821,1781,1841
1881,1849,1890
1984,1946,1887
1838,1833,1854
1814,1810,1850
1706,1759,1840
1753,1792,1843
1872,1731,1778
1965,1846,1839
1890,1932,1920
1791,1874,1882
1745,1860,1840
1829,1891,1872
1915,1853,1858
1822,1781,1808
1909,1814,1851
1865,1799,1891
1734,1802,1897
1718,1763,1838
1889,1858,1814
1997,1897,1877
1808,1830,1829
1726,1804,1787
1814,1865,1858
1917,1877,1883
1919,1807,1835
1776,1741,1811
1797,1881,1875
1858,1887,1870
1871,1850,1867
1830,1860,1881
1814,1901,1869
1778,1808,1843
1863,1855,1860
1869,1860,1853
1915,1777,1827
1867,1847,1819
1839,1879,1853
1819,1859,1878
1838,1905,1869
1840,1717,1794
1776,1777,1861
1853,1844,1904
1908,1821,1867
1882,1853,1882
1893,1917,1858
1875,1826,1811
1825,1764,1830
1726,1861,1879
1777,1901,1872
1854,1859,1866
1909,1843,1861
1830,1801,1845
1841,1849,1854
1920,1853,1861
1856,1872,1857
1776,1849,1855
1757,1869,1835
1872,1869,1867
1833,1843,1844
1744,1761,1819
1858,1897,1798
1945,1793,1815
1776,1776,1875
1755,1839,1906
1812,1764,1831
1914,1818,1844
1837,1856,1840
1801,1825,1870
1791,1828,1861
1838,1862,1843
1839,1853,1853
1802,1834,1853
1833,1854,1873
1904,1845,1885
1839,1826,1848
1766,1796,1840
1842,1826,1840
1913,1905,1841
1833,1823,1843
1830,1802,1853
1936,1841,1881
2027,1867,1895
1793,1856,1835
1677,1871,1831
1751,1850,1885
1927,1811,1858
1861,1781,1755
1782,1779,1814
1792,1840,1900
1885,1889,1885
1835,1853,1854
1883,1831,1870
1878,1809,1851
1806,1821,1830
1734,1838,1850
1763,1805,1839
1819,1827,1838
1950,1856,1843
1860,1840,1824
1839,1746,1810
1904,1869,1868
1839,1887,1872
1846,1915,1869
1868,1735,1790
1920,1862,1866
1873,1881,1908
1832,1921,1908
1851,1856,1847
1795,1808,1856
1730,1799,1840
1835,1803,1856
2000,1891,1897
1819,1782,1829
1717,1831,1822
1817,1880,1865
2047,1933,1886
1881,1860,1869
1741,1771,1856
1775,1853,1858
1838,1825,1840
1852,1821,1857
1875,1851,1863
1901,1856,1862
2017,1882,1862
1936,1872,1870
1732,1892,1853
1869,1920,1853
1903,1725,1822
1819,1737,1854
1749,1808,1861
1780,1872,1871
1801,1810,1858
1821,1808,1868
1908,1861,1903
1973,1888,1872
1904,1965,1872
1787,1845,1872
1793,1767,1837
1879,1808,1851
1877,1823,1840
1841,1806,1833
1843,1819,1861
1859,1851,1859
1904,1867,1842
1796,1878,1856
1840,1818,1819
1833,1799,1849
1808,1778,1873
1849,1923,1886
1885,1909,1867
1918,1854,1858
1822,1776,1853
1809,1817,1847
1849,1798,1853
1861,1827,1866
1835,1843,1827
1828,1841,1840
1885,1871,1874
1887,1835,1845
1847,1789,1875
1776,1829,1872
1817,1770,1817
1891,1835,1840
1839,1808,1846
1840,1856,1863
1984,1883,1863
1930,1848,1856
1721,1777,1814
1776,1797,1846
1868,1961,1862
1890,1893,1895
1827,1789,1842
1759,1731,1833
1804,1787,1859
1874,1888,1843
1920,1857,1847
1861,1835,1867
1781,1819,1854
1777,1834,1851
1917,1882,1862
1919,1807,1872
1854,1851,1867
1774,1820,1840
1853,1862,1867
1919,1807,1840
1876,1847,1840
1949,1834,1815
1730,1776,1829
1719,1766,1811
1780,1726,1828
1846,1844,1885
1826,1862,1892
1832,1875,1893
1998,1936,1911
1968,1881,1872
1767,1776,1793
1742,1773,1842
1783,1827,1844
1855,1841,1844
2011,1899,1868
1899,1825,1847
1766,1803,1843
1910,1827,1846
1958,1829,1825
1825,1835,1849
1745,1776,1824
1716,1793,1840
1808,1854,1901
1869,1853,1874
1860,1865,1827
1919,1808,1792
1812,1744,1857
1839,1846,1887
1833,1893,1863
1824,1760,1813
1901,1820,1853
1808,1780,1881
1776,1806,1872
1817,1862,1839
1894,1841,1808
1825,1804,1827
1855,1898,1859
1894,1874,1859
1779,1774,1818
1780,1776,1813
1909,1888,1889
1949,1943,1862
1835,1844,1839
1799,1811,1833
1786,1767,1798
1754,1802,1845
1782,1766,1889
1855,1831,1872
1906,1868,1840
1790,1832,1835
1755,1809,1863
1877,1892,1856
1894,1883,1838
1852,1821,1846
1785,1791,1861
1791,1821,1853
1887,1802,1851
1915,1847,1872
1881,1861,1870
1803,1808,1840
1822,1797,1827
1803,1804,1799
1760,1870,1846
1815,1846,1855
1945,1820,1834
1872,1787,1798
1773,1834,1847
1773,1837,1856
1904,1825,1879
1856,1805,1815
1824,1840,1875
1794,1875,1879
1787,1876,1863
1904,1904,1850
1886,1815,1809
1830,1808,1822
1792,1825,1825
1820,1873,1840
1892,1835,1839
1855,1835,1847
1790,1787,1834
