1834,1792,1840
1849,1731,1809
1822,1819,1850
1808,1885,1876
1840,1885,1866
1846,1828,1824
1815,1727,1780
1803,1853,1859
1808,1859,1888
1822,1849,1863
1811,1844,1850
1805,1794,1833
1813,1808,1849
1833,1829,1853
1845,1776,1817
1837,1865,1855
1840,1835,1856
1831,1836,1847
1838,1853,1871
1853,1876,1885
1840,1865,1871
1825,1821,1841
1840,1856,1841
1838,1805,1828
1840,1830,1803
1825,1833,1863
1839,1782,1836
1806,1872,1885
1777,1862,1856
1825,1841,1826
1813,1862,1830
1781,1792,1828
1791,1762,1853
1825,1795,1856
1856,1810,1831
1831,1808,1833
1829,1775,1835
1838,1789,1856
1855,1853,1861
1819,1918,1865
1812,1958,1859
1819,1869,1845
1827,1829,1841
1834,1839,1847
1845,1854,1863
1857,1840,1841
1868,1839,1811
1813,1867,1875
1783,1835,1859
1819,1788,1804
1821,1781,1837
1808,1823,1872
1813,1827,1872
1808,1840,1850
1819,1846,1841
1833,1810,1847
1837,1842,1865
1859,1897,1835
1866,1820,1821
1829,1846,1867
1826,1874,1863
1840,1814,1832
1835,1776,1803
1808,1831,1843
1833,1846,1859
1859,1857,1845
1845,1823,1827
1799,1858,1846
1814,1803,1814
1821,1873,1848
1824,1855,1869
1818,1849,1868
1827,1787,1844
1830,1833,1860
1856,1769,1809
1834,1842,1851
1794,1891,1874
1814,1850,1845
1828,1837,1850
1824,1822,1850
1836,1830,1857
1846,1830,1841
1842,1834,1840
1827,1838,1847
1838,1856,1852
1837,1862,1843
1840,1856,1836
1841,1770,1816
1823,1743,1817
1809,1717,1795
1839,1865,1843
1813,1901,1865
1814,1902,1887
1806,1874,1878
1827,1837,1867
1823,1827,1859
1827,1827,1847
1838,1878,1853
1827,1814,1826
1822,1799,1833
1826,1818,1840
1840,1821,1840
1845,1871,1824
1840,1769,1830
1829,1722,1809
1827,1776,1823
1831,1934,1875
1841,1926,1877
1857,1808,1805
1822,1805,1806
1790,1883,1872
1808,1790,1891
1807,1780,1853
1814,1851,1841
1826,1793,1839
1821,1783,1839
1841,1815,1866
1842,1840,1851
1847,1817,1833
1851,1894,1825
1840,1798,1830
1855,1806,1840
1841,1680,1817
1849,1734,1786
1801,1974,1877
1802,1929,1900
1825,1844,1875
1798,1792,1852
1807,1799,1846
1840,1850,1831
1851,1791,1840
1822,1806,1857
1833,1840,1862
1855,1865,1854
1834,1869,1867
1833,1847,1836
1845,1787,1815
1842,1772,1837
1841,1799,1852
1845,1774,1833
1840,1766,1815
1829,1861,1868
1838,1973,1879
1811,1849,1872
1808,1821,1861
1836,1809,1837
1855,1830,1824
1845,1847,1842
1791,1819,1856
1818,1814,1845
1840,1823,1839
1857,1797,1834
1855,1776,1815
1833,1891,1867
1839,1825,1808
1838,1862,1851
1882,1872,1866
1856,1832,1866
1822,1860,1821
1818,1840,1847
1815,1819,1855
1834,1834,1856
1862,1837,1831
1856,1834,1835
1823,1819,1872
1838,1806,1853
1839,1846,1845
1859,1779,1836
1847,1807,1863
1833,1842,1841
1823,1863,1869
1824,1860,1872
1826,1856,1855
1872,1835,1808
1856,1763,1811
1841,1809,1851
1835,1922,1883
1846,1873,1863
1847,1881,1846
1840,1840,1837
1840,1872,1830
1837,1815,1850
1839,1790,1836
1855,1800,1809
1820,1798,1845
1822,1834,1871
1828,1836,1873
1834,1854,1875
1854,1850,1855
1863,1815,1851
1873,1818,1845
1853,1809,1843
1813,1840,1846
1840,1863,1849
1840,1842,1839
1856,1839,1840
1840,1776,1830
1840,1888,1846
1837,1907,1840
1833,1813,1845
1856,1727,1829
1840,1826,1872
1847,1783,1833
1839,1798,1824
1827,1899,1859
1826,1931,1889
1872,1843,1856
1853,1814,1851
1808,1811,1862
1790,1798,1854
1822,1791,1857
1837,1805,1859
1822,1865,1861
1837,1819,1843
1844,1806,1840
1841,1808,1840
1839,1817,1862
1838,1847,1855
1840,1822,1859
1834,1839,1836
1850,1803,1790
1859,1803,1829
1871,1781,1835
1819,1868,1878
1802,1883,1892
1839,1820,1829
1847,1889,1840
1826,1850,1868
1828,1855,1872
1853,1903,1840
1841,1795,1834
1806,1808,1866
1823,1802,1872
1824,1817,1861
1829,1871,1875
1839,1824,1881
1856,1805,1843
1846,1841,1831
1851,1745,1781
1825,1759,1852
1815,1861,1889
1827,1883,1856
1860,1846,1865
1835,1780,1861
1789,1776,1861
1822,1836,1841
1856,1882,1791
1808,1756,1846
1796,1823,1897
1822,1866,1872
1837,1854,1845
1840,1877,1840
1854,1792,1840
1839,1802,1851
1830,1825,1849
1839,1829,1856
1847,1851,1863
1851,1881,1845
1846,1767,1803
1831,1851,1845
1825,1866,1872
1845,1847,1815
1833,1803,1829
1825,1685,1838
1831,1858,1873
1860,1879,1872
1847,1856,1845
1855,1918,1815
1786,1763,1807
1807,1696,1795
1801,1759,1855
1799,1840,1910
1829,1860,1905
1824,1844,1845
1819,1828,1834
1831,1812,1839
1837,1838,1847
1849,1870,1871
1844,1856,1841
1841,1790,1811
1851,1872,1840
1841,1856,1842
1855,1822,1855
1850,1818,1833
1840,1807,1840
1831,1808,1819
1809,1795,1830
1794,1885,1873
1819,1891,1883
1847,1904,1855
1840,1863,1865
1821,1838,1867
1843,1859,1856
1842,1857,1842
1822,1895,1834
1819,1827,1807
1824,1695,1823
1819,1776,1870
1844,1865,1872
1856,1837,1854
1840,1779,1846
1819,1810,1842
1832,1850,1850
1830,1710,1808
1822,1749,1825
1818,1942,1874
1793,1905,1897
1796,1861,1867
1821,1828,1847
1840,1845,1850
1831,1851,1856
1823,1865,1860
1840,1893,1856
1831,1837,1850
1840,1842,1862
1825,1814,1866
1829,1825,1861
1842,1854,1865
1841,1840,1861
1856,1799,1819
1840,1868,1825
1851,1852,1798
1829,1825,1843
1811,1858,1885
1829,1829,1883
1831,1732,1809
1817,1770,1855
1804,1831,1876
1823,1866,1857
1840,1872,1840
1809,1776,1826
1799,1760,1841
1808,1856,1866
1825,1893,1859
1813,1867,1846
1823,1833,1851
1840,1836,1851
1850,1862,1851
1865,1862,1854
1843,1840,1845
1840,1810,1827
1859,1812,1807
1817,1857,1855
1817,1878,1883
1843,1920,1859
1842,1910,1875
1835,1737,1821
1819,1807,1824
1838,1729,1822
1798,1819,1862
1796,1867,1872
1814,1851,1856
1840,1857,1853
1845,1881,1843
1859,1823,1844
1839,1821,1845
1840,1837,1853
1810,1829,1840
1831,1776,1794
1830,1846,1850
1808,1862,1860
1791,1856,1857
1813,1866,1857
1829,1835,1859
1859,1936,1845
1843,1697,1780
1792,1682,1804
1798,1801,1837
1803,1869,1867
1822,1873,1866
1825,1822,1828
1819,1807,1836
1811,1863,1872
1842,1873,1866
1841,1863,1856
1821,1846,1854
1829,1853,1851
1836,1867,1847
1840,1845,1843
1840,1865,1841
1841,1855,1840
1859,1793,1840
1831,1808,1867
1832,1929,1863
1867,1897,1853
1859,1824,1842
1832,1694,1808
1803,1729,1818
1819,1873,1863
1845,1818,1809
1862,1825,1871
1808,1858,1891
1774,1830,1871
1802,1827,1854
1822,1856,1847
1830,1822,1855
1838,1842,1852
1840,1857,1856
1850,1853,1857
1858,1818,1850
1845,1842,1866
1847,1859,1847
1840,1845,1835
1814,1810,1855
1833,1815,1858
1872,1813,1792
1854,1719,1840
1795,1859,1893
1821,1879,1885
1831,1904,1858
1830,1844,1857
1832,1776,1838
1840,1842,1851
1846,1793,1837
1838,1841,1865
1825,1859,1878
1840,1840,1871
1843,1888,1844
1853,1851,1846
1840,1954,1874
1833,1761,1838
1843,1749,1831
1841,1783,1853
1840,1802,1843
1840,1773,1783
1849,1787,1830
1841,1869,1904
1829,1895,1909
1825,1804,1846
1838,1839,1856
1839,1841,1846
1841,1904,1865
1835,1868,1871
1845,1830,1858
1842,1808,1849
1822,1809,1857
1837,1819,1865
1860,1742,1813
1867,1843,1843
1850,1888,1870
1847,1829,1857
1811,1872,1875
1829,1843,1840
1840,1858,1865
1847,1883,1870
1837,1849,1840
1799,1770,1841
1775,1776,1840
1817,1789,1855
1856,1824,1859
1849,1829,1847
1824,1870,1854
1843,1855,1852
1851,1842,1863
1847,1820,1851
1840,1792,1840
1854,1826,1843
1861,1744,1777
1867,1738,1766
1824,1904,1919
1822,1949,1919
1851,1883,1856
1841,1818,1854
1849,1852,1867
1834,1837,1863
1852,1758,1824
1840,1811,1869
1818,1869,1844
1820,1858,1830
1840,1798,1845
1851,1830,1856
1840,1932,1869
1856,1920,1826
1856,1733,1842
1803,1754,1861
1827,1803,1867
1855,1840,1850
1881,1744,1759
1834,1776,1825
1824,1807,1878
1828,1870,1879
1821,1827,1863
1810,1808,1856
1810,1838,1865
1834,1840,1855
1851,1867,1842
1856,1835,1847
1840,1883,1840
1839,1865,1864
1841,1841,1841
1859,1793,1817
1866,1797,1827
1856,1845,1875
1859,1952,1860
1859,1846,1783
1826,1792,1837
1821,1831,1874
1812,1775,1855
1820,1739,1838
1834,1734,1817
1841,1847,1856
1859,1838,1850
1840,1857,1855
1840,1841,1854
1855,1799,1808
1857,1841,1834
1843,1883,1874
1851,1872,1910
1826,1821,1840
1834,1831,1814
1850,1745,1824
1851,1843,1821
1838,1913,1844
1856,1902,1856
1831,1815,1785
1826,1786,1839
1857,1904,1873
1840,1825,1869
1848,1776,1841
1809,1792,1835
1813,1803,1840
1846,1702,1793
1829,1831,1867
1835,1841,1875
1825,1877,1874
1834,1856,1855
1833,1826,1856
1830,1829,1839
1841,1840,1850
1859,1869,1856
1858,1853,1840
1872,1763,1856
1869,1955,1821
1806,1827,1845
1808,1729,1822
1829,1804,1855
1858,1866,1870
1872,1805,1828
1833,1862,1862
1790,1836,1861
1823,1955,1857
1853,1855,1860
1846,1745,1841
1818,1760,1838
1823,1808,1840
1840,1834,1838
1833,1808,1834
1840,1729,1809
1838,1818,1855
1821,1883,1870
1825,1859,1857
1847,1830,1852
1851,1904,1860
1847,1855,1830
1819,1791,1837
1827,1811,1857
1841,1875,1856
1875,1915,1808
1832,1780,1843
1802,1695,1842
1808,1808,1860
1843,1887,1886
1848,1862,1856
1817,1799,1853
1820,1850,1859
1831,1840,1842
1854,1812,1840
1852,1835,1861
1823,1925,1866
1837,1821,1851
1840,1755,1841
1808,1771,1837
1819,1792,1823
1849,1783,1825
1829,1853,1872
1840,1923,1871
1850,1837,1883
1825,1849,1855
1799,1808,1851
1798,1808,1872
1839,1826,1856
1867,1839,1839
1837,1753,1834
1820,1810,1861
1840,1803,1827
1826,1863,1858
1829,1889,1901
1830,1878,1893
1819,1849,1862
1821,1823,1840
1837,1823,1837
1853,1792,1813
1857,1844,1851
1831,1904,1877
1835,1919,1878
1840,1888,1817
1840,1753,1810
1819,1792,1886
1808,1809,1861
1809,1797,1856
1834,1803,1858
1840,1864,1872
1870,1902,1835
1840,1743,1812
1799,1765,1840
1801,1892,1870
1825,1835,1866
1822,1829,1859
1845,1802,1808
1860,1763,1809
1817,1883,1883
1808,1889,1877
1862,1885,1849
1875,1857,1819
1803,1826,1862
1790,1798,1859
1824,1841,1856
1834,1844,1840
1840,1868,1840
1831,1888,1856
1844,1803,1829
1866,1713,1789
1821,1829,1872
1815,1865,1886
1842,1856,1871
1858,1825,1843
1865,1733,1783
1791,1897,1859
1791,1925,1877
1842,1850,1853
1839,1815,1855
1833,1835,1838
1808,1742,1793
1813,1805,1831
1808,1842,1872
1829,1830,1888
1843,1854,1871
1835,1869,1847
1830,1814,1833
1845,1847,1830
1821,1849,1853
1854,1805,1799
1840,1815,1840
1805,1858,1897
1813,1879,1861
1850,1878,1836
1824,1835,1847
1848,1840,1862
1827,1897,1855
1821,1864,1839
1817,1814,1829
1819,1649,1815
1819,1779,1869
1822,1874,1875
1835,1841,1866
1838,1796,1850
1843,1847,1847
1839,1830,1840
1821,1819,1837
1837,1829,1858
1840,1869,1855
1850,1869,1839
1840,1862,1859
1808,1837,1885
1818,1841,1857
1844,1876,1850
1819,1845,1854
1805,1846,1871
1822,1885,1842
1852,1861,1803
1822,1827,1838
1795,1779,1889
1798,1823,1871
1830,1861,1842
1831,1788,1838
1833,1741,1833
1846,1709,1763
1811,1822,1843
1794,1913,1904
1792,1927,1900
1809,1865,1869
1845,1909,1856
1843,1776,1840
1794,1771,1849
1808,1840,1855
1823,1879,1847
1831,1939,1862
1811,1891,1861
1840,1788,1859
1819,1754,1808
1835,1692,1747
1808,1856,1872
1808,1815,1878
1832,1879,1881
1825,1906,1872
1821,1846,1858
1831,1873,1853
1830,1909,1840
1798,1799,1851
1806,1755,1849
1840,1830,1857
1872,1833,1819
1836,1851,1869
1794,1825,1863
1808,1744,1780
1830,1850,1871
1794,1803,1897
1805,1710,1836
1813,1854,1856
1811,1898,1857
1838,1925,1856
1846,1797,1820
1813,1782,1859
1842,1839,1872
1842,1873,1854
1834,1824,1835
1815,1835,1840
1813,1839,1849
1830,1821,1802
1851,1815,1835
1853,1968,1870
1815,1821,1833
1790,1766,1903
1792,1769,1861
1803,1791,1831
1841,1787,1806
1808,1823,1842
1809,1827,1857
1831,1840,1837
1838,1817,1830
1835,1787,1835
1831,1872,1850
1840,1859,1821
1842,1755,1821
1846,1790,1840
1829,1881,1839
1842,1875,1828
1826,1959,1873
1789,1806,1869
1779,1791,1855
1825,1694,1808
1821,1789,1836
1815,1832,1845
1805,1840,1847
1823,1869,1840
1851,1859,1843
1840,1808,1838
1837,1821,1853
1838,1847,1842
1858,1863,1848
1847,1834,1847
1850,1781,1829
1875,1837,1846
1863,1872,1857
1804,1872,1863
1827,1861,1811
1847,1867,1819
1797,1813,1829
1779,1821,1852
1806,1744,1824
1821,1782,1852
1827,1842,1881
1835,1823,1854
1839,1783,1842
1826,1808,1840
1855,1793,1805
1854,1886,1871
1852,1904,1885
1846,1781,1839
1817,1821,1840
1814,1801,1825
1835,1824,1845
1849,1853,1855
1853,1887,1856
1853,1904,1842
1815,1759,1786
1809,1730,1806
1811,1901,1874
1837,1833,1879
1835,1824,1867
1838,1716,1821
1855,1813,1853
1858,1835,1835
1840,1882,1857
1792,1782,1844
1792,1813,1833
1819,1840,1845
1843,1826,1847
1815,1859,1847
1834,1891,1840
1862,1798,1797
1845,1855,1863
1831,1831,1872
1837,1808,1847
1843,1792,1854
1843,1767,1843
1851,1776,1809
1840,1831,1842
1824,1821,1856
1819,1845,1888
1834,1874,1859
1851,1841,1835
1839,1767,1850
1857,1794,1863
1849,1834,1846
1811,1841,1854
1803,1839,1851
1805,1851,1874
1841,1849,1851
1871,1775,1808
1847,1856,1865
1839,1934,1849
1834,1827,1841
1838,1774,1846
1830,1808,1866
1805,1815,1872
1813,1794,1843
1838,1767,1809
1831,1803,1860
1799,1813,1894
1825,1824,1861
1843,1853,1833
1837,1870,1842
1823,1806,1870
1849,1830,1873
1866,1856,1859
1836,1842,1867
1827,1726,1798
1847,1776,1829
1892,1884,1878
1830,1974,1847
1777,1824,1851
1802,1783,1861
1847,1826,1840
1845,1718,1835
1842,1837,1863
1871,1856,1873
1858,1787,1807
1793,1808,1838
1818,1833,1871
1838,1849,1859
1857,1808,1837
1846,1843,1894
1869,1859,1888
1857,1797,1835
1884,1787,1893
1927,1905,1960
1882,1904,1833
1827,1856,1806
1783,1882,1823
1805,1807,1822
1827,1795,1822
1859,1823,1843
1872,1851,1871
1856,1806,1872
1853,1705,1790
1819,1826,1834
1818,1867,1878
1818,1827,1843
1826,1799,1825
1815,1829,1859
1822,1868,1859
1850,1713,1830
1872,1817,1834
1827,1937,1886
1793,1938,1866
1798,1937,1866
1782,1781,1862
1811,1742,1782
1871,1829,1888
1870,1936,1897
1799,1863,1831
1776,1798,1808
1829,1782,1808
1891,1814,1848
1869,1915,1901
1856,1990,1863
1845,1887,1840
1799,1783,1835
1865,1712,1840
1863,1885,1883
1811,1897,1803
1776,1826,1786
1771,1722,1796
1818,1776,1840
1859,1850,1876
1820,1975,1834
1840,1815,1825
1840,1808,1856
1849,1831,1842
1813,1798,1801
1806,1871,1879
1835,1917,1837
1884,1879,1820
1870,1808,1828
1845,1873,1833
1827,1813,1776
1828,1872,1808
1829,1876,1855
1849,1856,1853
1888,1851,1794
1861,1851,1809
1828,1861,1837
1825,1731,1839
1857,1846,1849
1813,1809,1836
1808,1815,1808
1813,1792,1801
1836,1819,1837
1818,1870,1834
1876,1758,1805
1826,1927,1829
1831,1907,1841
1840,1814,1780
1851,1854,1792
1854,1840,1790
1851,1816,1777
1871,1922,1868
1817,1825,1835
1809,1826,1819
1826,1808,1789
1835,1805,1798
1861,1866,1795
1883,1705,1806
1867,1719,1838
1869,1826,1797
1814,1762,1828
1784,1797,1824
1764,1938,1837
1808,1889,1835
1925,1966,1843
1829,1840,1808
1738,1695,1770
1792,1763,1776
1857,1797,1823
1876,1813,1846
1849,1776,1792
1807,1836,1783
1835,1856,1867
1821,1854,1850
1876,1924,1827
1872,1855,1804
1783,1754,1783
1779,1643,1775
1803,1826,1811
1811,1913,1858
1845,1855,1850
1878,1762,1815
1809,1868,1829
1798,1839,1808
1822,1773,1770
1766,1692,1843
1776,1758,1833
1833,1904,1847
1801,1799,1824
1805,1746,1834
1824,1845,1853
1856,1882,1853
1840,1834,1823
1835,1803,1821
1827,1861,1789
1811,1758,1786
1825,1862,1883
1814,1872,1867
1807,1821,1789
1840,1841,1809
1818,1793,1848
1808,1763,1850
1845,1795,1858
1815,1781,1809
1796,1743,1856
1818,1804,1877
1792,1742,1837
1822,1802,1835
1833,1843,1876
1783,1833,1843
1827,1798,1814
1877,1806,1776
1858,1904,1872
1837,1951,1871
1807,1731,1823
1791,1727,1875
1795,1851,1847
1804,1807,1840
1840,1826,1872
1843,1834,1863
1807,1802,1823
1857,1804,1816
1872,1840,1888
1840,1840,1872
1729,1788,1813
1776,1823,1856
1840,1754,1839
1872,1707,1827
1813,1778,1878
1814,1734,1876
1808,1905,1872
1783,1947,1853
1840,1830,1897
1837,1791,1883
1847,1837,1840
1829,1793,1835
1779,1782,1852
1807,1803,1889
1820,1826,1857
1792,1841,1831
1773,1743,1831
1839,1776,1870
1911,1779,1857
1827,1837,1876
1776,1856,1887
1809,1840,1860
1814,1779,1875
1795,1794,1854
1831,1837,1902
1872,1867,1915
1797,1841,1822
1824,1842,1808
1798,1807,1836
1793,1712,1854
1817,1786,1899
1845,1825,1936
1839,1855,1902
1891,1899,1911
1847,1776,1808
1840,1725,1807
1813,1856,1921
1773,1869,1907
1791,1889,1845
1841,1814,1902
1801,1791,1905
1776,1742,1865
1808,1785,1820
1832,1770,1834
1849,1830,1872
1878,1791,1872
1840,1889,1818
1802,1794,1863
1782,1775,1866
1828,1834,1895
1872,1742,1841
1857,1874,1872
1838,1899,1904
1837,1873,1904
1821,1795,1844
1803,1809,1808
1839,1842,1865
1840,1872,1888
1819,1825,1856
1795,1747,1846
1805,1758,1873
1846,1798,1899
1883,1871,1871
1854,1850,1836
1787,1823,1859
1809,1840,1907
1825,1811,1840
1871,1673,1778
1876,1805,1860
1840,1863,1927
1794,1900,1911
1806,1929,1872
1840,1856,1883
1878,1853,1937
1835,1877,1870
1823,1839,1809
1799,1813,1834
1856,1882,1909
1886,1826,1904
1834,1739,1813
1804,1753,1807
1790,1822,1897
1788,1923,1877
1814,1824,1840
1846,1802,1856
1829,1729,1878
1840,1712,1867
1891,1869,1929
1874,1904,1887
1809,1865,1858
1808,1791,1851
1840,1856,1856
1830,1899,1885
1853,1831,1870
1851,1859,1875
1813,1842,1872
1837,1861,1870
1825,1865,1847
1858,1877,1871
1904,1897,1881
1834,1686,1814
1779,1715,1830
1808,1875,1893
1871,1970,1936
1847,1878,1865
1807,1712,1840
1833,1751,1851
1829,1799,1869
1856,1845,1872
1840,1787,1861
1790,1826,1837
1808,1854,1858
1836,1866,1887
1870,1865,1884
1867,1898,1893
1841,1855,1856
1861,1802,1831
1856,1872,1898
1808,1811,1825
1825,1797,1806
1861,1845,1854
1863,1801,1871
1857,1840,1891
1903,1871,1891
1862,1920,1859
1830,1943,1849
1786,1814,1837
1805,1750,1887
1840,1813,1901
1892,1847,1879
1840,1778,1856
1836,1785,1837
1833,1829,1852
1860,1830,1855
1899,1969,1938
1918,1953,1923
1850,1917,1822
1785,1674,1767
1828,1769,1835
1861,1823,1854
1843,1863,1878
1820,1830,1878
1830,1846,1872
1863,1875,1817
1840,1835,1804
1823,1840,1872
1823,1771,1887
1838,1826,1863
1842,1846,1882
1873,1856,1870
1856,1810,1834
1855,1871,1873
1839,1840,1895
1855,1859,1872
1854,1883,1872
1870,1856,1821
1856,1872,1872
1876,1936,1892
1835,1856,1856
1840,1827,1847
1874,1869,1873
1812,1795,1876
1840,1755,1856
1872,1830,1856
1808,1866,1846
1851,1920,1872
1877,1843,1840
1855,1729,1818
1798,1847,1883
1808,1926,1907
1858,1855,1840
1873,1835,1846
1844,1873,1826
1808,1713,1810
1822,1857,1904
1882,1936,1923
1862,1851,1891
1839,1807,1842
1889,1867,1855
1883,1955,1861
1830,1809,1861
1808,1783,1849
1831,1773,1857
1885,1854,1857
1861,1841,1817
1869,1803,1843
1893,1840,1891
1850,1855,1830
1836,1827,1839
1790,1845,1878
1817,1902,1890
1905,1961,1875
1887,1840,1867
1817,1783,1845
1822,1809,1870
1861,1903,1863
1850,1858,1857
1830,1845,1872
1846,1929,1831
1873,1855,1853
1844,1791,1856
1883,1776,1871
1850,1814,1840
1867,1790,1843
1851,1802,1872
1859,1883,1893
1857,1900,1881
1863,1861,1817
1840,1889,1817
1872,1756,1821
1870,1660,1796
1810,1826,1883
1829,1904,1913
1827,1902,1902
1873,1891,1906
1897,1882,1865
1844,1937,1886
1836,1897,1856
1819,1785,1802
1815,1794,1825
1870,1853,1878
1861,1841,1853
1826,1805,1894
1821,1821,1874
1878,1855,1846
1884,1840,1853
1894,1828,1855
1883,1840,1840
1808,1905,1840
1827,1817,1842
1851,1872,1924
1841,1867,1904
1838,1857,1847
1872,1857,1838
1907,1842,1846
1825,1906,1879
1779,1839,1887
1818,1762,1823
1866,1782,1829
1850,1921,1907
1839,1858,1887
1846,1809,1833
1859,1873,1838
1863,1822,1838
1825,1840,1872
1835,1813,1843
1834,1823,1850
1830,1839,1875
1858,1796,1843
1847,1845,1840
1872,1872,1891
1871,1861,1888
1896,1915,1881
1866,1872,1867
1822,1778,1814
1854,1792,1837
1856,1823,1859
1840,1817,1854
1834,1869,1878
1863,1919,1888
1894,1941,1855
1861,1779,1795
1781,1763,1838
1790,1872,1872
1845,1841,1875
1846,1767,1863
1891,1785,1824
1872,1826,1831
1849,1937,1917
1838,1863,1904
1871,1871,1872
1827,1809,1809
1823,1826,1840
1840,1760,1879
1867,1853,1901
1883,1935,1840
1878,1814,1831
1872,1840,1861
1843,1842,1907
1891,1813,1845
1841,1815,1806
1785,1863,1826
1811,1904,1902
1846,1883,1865
1875,1874,1871
1859,1797,1812
1872,1840,1841
1852,1808,1873
1834,1857,1854
1840,1833,1836
1826,1843,1869
1854,1794,1856
1855,1802,1853
1882,1796,1884
1863,1873,1904
1843,1892,1856
1856,1757,1750
1883,1650,1776
1829,1895,1914
1858,1950,1933
1839,1846,1847
1840,1792,1837
1817,1877,1853
1839,1910,1885
1863,1875,1886
1845,1766,1872
1854,1787,1866
1863,1811,1831
1845,1851,1840
1847,1897,1858
1850,1885,1825
1830,1772,1840
1898,1836,1887
1840,1794,1862
1801,1773,1832
1829,1744,1808
1857,1854,1879
1831,1853,1895
1863,1883,1866
1858,1824,1881
1858,1829,1855
1870,1827,1855
1835,1811,1847
1849,1765,1825
1814,1878,1861
1813,1895,1878
1856,1898,1878
1842,1840,1862
1855,1838,1840
1872,1883,1858
1835,1824,1856
1820,1783,1840
1840,1817,1859
1841,1854,1862
1829,1753,1774
1875,1843,1878
1863,1825,1927
1833,1798,1894
1794,1824,1849
1825,1818,1812
1858,1783,1819
1888,1894,1840
1867,1883,1885
1830,1833,1906
1826,1867,1874
1835,1863,1827
1826,1856,1838
1830,1822,1829
1873,1822,1862
1856,1853,1865
1825,1790,1808
1834,1771,1807
1808,1810,1831
1811,1847,1891
1893,1971,1904
1882,1774,1856
1838,1783,1839
1815,1859,1883
1834,1872,1872
1850,1917,1884
1846,1797,1791
1846,1808,1813
1826,1829,1870
1847,1841,1866
1840,1856,1857
1859,1890,1859
1856,1895,1843
1834,1820,1819
1834,1842,1865
1840,1866,1861
1830,1865,1809
1843,1719,1771
1843,1712,1841
1808,1870,1875
1792,1873,1872
1843,1914,1836
1904,1803,1838
1881,1765,1860
1782,1843,1887
1776,1840,1870
1819,1794,1814
1872,1789,1835
1856,1876,1868
1852,1857,1867
1825,1845,1841
1818,1839,1847
1842,1809,1833
1850,1781,1850
1867,1819,1879
1842,1872,1902
1856,1859,1843
1843,1798,1824
1851,1780,1830
1818,1889,1894
1862,1965,1892
1833,1871,1855
1813,1869,1803
1822,1787,1821
1854,1784,1856
1834,1776,1841
1829,1840,1857
1808,1810,1856
1849,1853,1881
1849,1907,1877
1857,1776,1842
1846,1808,1895
1846,1857,1883
1840,1870,1850
1837,1811,1834
1840,1801,1895
1851,1856,1866
1829,1827,1813
1834,1792,1824
1879,1869,1890
1859,1857,1856
1834,1827,1845
1808,1853,1845
1817,1834,1824
1818,1776,1840
1851,1808,1866
1837,1811,1836
1803,1851,1842
1809,1851,1892
1849,1910,1889
1825,1775,1815
1841,1734,1830
1850,1825,1867
1840,1834,1867
1808,1802,1858
1826,1822,1846
1858,1858,1847
1885,1826,1859
1852,1841,1855
1863,1871,1875
1862,1943,1879
1853,1868,1849
1823,1817,1835
1879,1769,1840
1850,1823,1856
1835,1834,1859
1838,1766,1780
1847,1813,1822
1813,1914,1918
1799,1840,1903
1797,1798,1867
1833,1831,1850
1859,1862,1847
1874,1902,1855
1852,1778,1843
1841,1775,1850
1870,1744,1822
1859,1767,1819
1826,1907,1889
1826,1895,1887
1840,1889,1853
1840,1869,1829
1806,1767,1855
1835,1840,1886
1872,1840,1815
1851,1843,1866
1825,1880,1855
1799,1828,1841
1827,1701,1872
1881,1854,1893
1823,1857,1809
1792,1887,1793
1842,1791,1821
1878,1782,1851
1838,1848,1865
1808,1889,1849
1850,1840,1882
1829,1811,1890
1822,1729,1786
1809,1851,1806
1833,1883,1865
1891,1902,1872
1872,1811,1852
1849,1791,1874
1815,1837,1861
1840,1868,1840
1840,1904,1855
1840,1863,1907
1819,1811,1847
1825,1791,1829
1850,1823,1859
1857,1856,1874
1835,1886,1826
1818,1808,1827
1825,1851,1850
1797,1840,1859
1791,1788,1824
1820,1819,1852
1831,1870,1882
1831,1874,1883
1841,1845,1877
1843,1821,1891
1826,1826,1891
1840,1793,1819
1829,1818,1809
1808,1872,1863
1830,1851,1864
1840,1913,1885
1859,1857,1821
1818,1833,1831
1808,1754,1855
1829,1818,1881
1826,1811,1869
1843,1821,1856
1885,1778,1795
1840,1792,1834
1846,1908,1904
1811,1841,1863
1792,1818,1859
1791,1799,1854
1853,1808,1870
1863,1814,1867
1837,1829,1840
1818,1779,1819
1840,1909,1861
1843,1906,1872
1881,1890,1878
1846,1818,1855
1831,1791,1842
1846,1808,1843
1846,1814,1859
1847,1793,1835
1870,1744,1820
1869,1872,1847
1818,1937,1885
1776,1851,1869
1815,1825,1851
1862,1855,1873
1871,1802,1837
1807,1784,1831
1807,1808,1862
1837,1857,1854
1822,1779,1817
1837,1776,1840
1858,1806,1840
1872,1865,1842
1891,1919,1920
1866,1890,1901
1834,1772,1810
1807,1805,1787
1819,1888,1841
1866,1886,1878
1883,1819,1855
1854,1813,1843
1829,1815,1865
1815,1781,1878
1823,1838,1817
1839,1851,1834
1840,1839,1867
1869,1807,1902
1840,1845,1869
1813,1885,1851
1840,1893,1812
1840,1758,1840
1808,1775,1851
1843,1808,1840
1863,1808,1863
1886,1839,1888
1883,1827,1839
1801,1845,1829
1801,1877,1827
1834,1854,1872
1833,1817,1888
1808,1861,1850
1843,1887,1852
1872,1855,1871
1821,1817,1852
1839,1841,1869
1861,1890,1856
1836,1788,1850
1840,1764,1827
1855,1763,1798
1824,1840,1850
1821,1840,1872
1846,1768,1837
1872,1809,1830
1819,1919,1898
1795,1883,1897
1814,1845,1829
1856,1861,1867
1874,1901,1876
1861,1807,1811
1840,1871,1840
1809,1879,1859
1805,1790,1858
1811,1765,1853
1833,1905,1823
1830,1872,1814
1814,1815,1889
1795,1718,1835
1817,1787,1831
1861,1825,1808
1872,1733,1819
1841,1842,1890
1803,1903,1891
1820,1923,1867
1857,1904,1863
1879,1897,1856
1855,1851,1823
1853,1776,1774
1840,1889,1840
1798,1831,1875
1817,1854,1874
1856,1844,1867
1850,1838,1815
1853,1810,1846
