1808,1725,1884
1791,1712,1856
1975,1750,1905
2037,1746,1901
1873,1701,1872
1793,1707,1858
1884,1665,1821
1774,1648,1842
1750,1639,1855
1776,1638,1886
1890,1676,1883
1856,1671,1890
1900,1635,1808
1872,1566,1778
1774,1633,1889
1814,1678,1947
1815,1616,1858
1795,1584,1806
1861,1629,1847
1795,1639,1840
1776,1611,1829
1937,1634,1855
2029,1693,1923
1815,1659,1873
1683,1626,1874
1682,1587,1843
1873,1648,1889
1957,1690,1902
1865,1645,1839
1713,1623,1807
1813,1645,1853
1808,1651,1864
1743,1654,1859
1733,1620,1853
1783,1631,1855
1942,1666,1872
1786,1617,1815
1648,1618,1806
1706,1622,1830
1861,1711,1881
1914,1738,1871
1886,1709,1892
1808,1711,1869
1787,1702,1840
1747,1687,1840
1809,1676,1872
1795,1661,1833
1746,1680,1842
1762,1694,1849
1795,1695,1859
1742,1677,1815
1742,1695,1825
1793,1711,1847
1768,1680,1828
1751,1723,1837
1787,1789,1863
1792,1694,1846
2069,1722,1859
1856,1712,1799
1596,1690,1783
1651,1717,1886
1775,1742,1853
1823,1744,1872
1813,1750,1835
1784,1758,1840
1774,1755,1872
1776,1744,1829
1811,1772,1808
1873,1779,1840
1775,1743,1819
1797,1808,1884
1758,1782,1840
1805,1796,1795
1781,1763,1729
1734,1749,1790
1744,1773,1837
1798,1808,1852
1923,1829,1809
1969,1862,1791
2016,1872,1810
1769,1739,1775
1535,1707,1807
1689,1808,1823
1815,1854,1811
1815,1832,1783
1769,1809,1768
1744,1809,1771
1779,1837,1801
1782,1814,1808
1774,1823,1802
1811,1821,1796
1839,1792,1719
1840,1783,1721
1837,1835,1809
1711,1874,1808
1723,1842,1764
1771,1852,1775
1762,1836,1745
1706,1776,1676
1694,1731,1685
1796,1803,1735
1987,1966,1891
1981,1952,1840
1747,1863,1762
1703,1840,1745
1765,1823,1741
1761,1848,1762
1742,1863,1774
1809,1894,1807
1843,1859,1761
1818,1841,1754
1744,1850,1715
1723,1817,1719
1749,1827,1751
1875,1788,1758
1856,1840,1800
1722,1894,1840
1975,1923,1811
1870,1876,1735
1678,1886,1750
1697,1872,1775
1801,1869,1779
1755,1882,1813
1786,1905,1783
1891,1878,1711
1929,1858,1773
1735,1859,1782
1639,1856,1766
1744,1866,1779
1833,1872,1773
1767,1891,1783
1779,1900,1762
1874,1872,1743
2014,1933,1776
1803,1840,1781
1718,1867,1778
1709,1872,1785
1789,1904,1819
1936,1920,1779
1927,1885,1758
1734,1840,1749
1843,1911,1826
1853,1899,1792
1776,1936,1833
1760,1899,1824
2031,1948,1821
1859,1871,1754
1675,1840,1818
1794,1896,1823
1935,1898,1809
1761,1873,1789
1698,1910,1838
1729,1872,1806
1893,1889,1790
1871,1904,1822
1861,1887,1831
1977,1909,1763
1783,1853,1743
1630,1849,1774
1680,1878,1871
1747,1872,1835
1866,1873,1793
1911,1894,1805
1965,1930,1826
1857,1901,1795
1668,1840,1792
1685,1840,1798
1776,1857,1781
1855,1872,1808
1822,1871,1808
1835,1873,1775
1891,1894,1794
1745,1872,1828
1712,1861,1826
1806,1888,1792
1811,1890,1794
1808,1881,1792
1722,1845,1776
1742,1854,1823
1786,1875,1859
1891,1914,1855
1841,1875,1771
1756,1887,1793
1940,1959,1882
1977,1895,1793
1852,1845,1815
1667,1857,1840
1589,1853,1872
1687,1855,1795
1810,1877,1803
1919,1927,1862
2057,1948,1926
1895,1898,1843
1662,1888,1808
1637,1901,1885
1775,1887,1907
1812,1872,1801
1803,1855,1783
1808,1905,1891
1943,1923,1897
1872,1895,1850
1831,1825,1808
1984,1898,1889
1829,1886,1846
1591,1870,1830
1693,1900,1875
1868,1922,1890
1891,1893,1838
1838,1859,1824
1715,1823,1918
1861,1882,1837
1852,1946,1844
1712,1899,1854
1742,1851,1839
1901,1850,1819
1819,1859,1846
1796,1875,1846
1851,1900,1861
1778,1898,1871
1804,1911,1904
1851,1854,1896
1904,1888,1837
2113,1968,1855
1853,1865,1849
1651,1889,1911
1661,1874,1886
1825,1856,1836
1871,1872,1849
1751,1846,1818
1729,1860,1870
1824,1904,1904
1911,1935,1840
1956,1904,1823
1850,1855,1823
1704,1857,1871
1829,1869,1913
1833,1915,1925
1783,1850,1842
1919,1908,1834
1815,1863,1826
1739,1829,1839
1697,1835,1879
1727,1899,1907
1791,1901,1856
1958,1871,1861
2061,1909,1865
1819,1878,1794
1696,1891,1847
1679,1881,1860
1794,1865,1889
1920,1895,1855
2061,1982,1902
2141,1883,1865
1871,1840,1883
1677,1831,1904
1679,1855,1877
1858,1904,1841
1863,1867,1787
1776,1897,1895
1725,1891,1914
1819,1866,1841
1840,1837,1774
1783,1878,1871
1959,1971,1940
1990,1891,1857
1775,1855,1835
1652,1819,1846
1699,1863,1840
1808,1901,1827
1942,1919,1916
2058,1886,1936
1777,1851,1843
1658,1884,1851
1845,1862,1867
1819,1840,1834
1903,1919,1920
1842,1950,1920
1761,1904,1792
1775,1841,1833
1885,1867,1873
1921,1881,1935
1840,1889,1877
1746,1893,1851
1872,1902,1892
1815,1873,1881
1712,1872,1862
1744,1855,1826
1822,1890,1891
1840,1858,1883
1874,1879,1838
2079,1924,1881
2018,1897,1893
1767,1862,1905
1570,1841,1867
1650,1850,1872
1798,1868,1874
1843,1877,1855
1876,1835,1843
2013,1872,1920
1890,1890,1876
1818,1913,1862
1796,1877,1854
1805,1872,1883
1775,1895,1899
1895,1902,1936
1983,1931,1953
1918,1893,1835
1787,1835,1837
1671,1811,1904
1717,1840,1808
1774,1870,1865
1984,1921,1923
2103,1904,1920
1894,1872,1872
1812,1891,1875
1985,1889,1902
1956,1851,1835
1787,1884,1808
1661,1875,1825
1795,1867,1862
1939,1895,1851
1737,1835,1808
1712,1853,1831
1827,1885,1915
1901,1886,1872
1865,1875,1821
1946,1891,1835
1942,1893,1841
1843,1883,1843
1771,1882,1919
1902,1837,1876
1862,1854,1855
1805,1841,1766
1755,1837,1783
1826,1871,1831
1904,1919,1873
1861,1889,1840
1847,1857,1878
1809,1855,1862
1820,1840,1825
1867,1861,1856
1941,1872,1891
1808,1824,1815
1711,1841,1811
1876,1871,1826
1846,1879,1825
1809,1858,1837
1808,1873,1870
1793,1850,1862
1711,1792,1812
1794,1851,1847
1902,1852,1832
1850,1826,1831
1782,1847,1838
1788,1872,1859
1870,1840,1840
1840,1799,1834
1911,1842,1879
1757,1840,1805
1808,1874,1840
1887,1875,1850
1792,1840,1826
1803,1840,1857
1803,1815,1806
1888,1840,1818
1829,1833,1842
1859,1862,1854
1959,1808,1841
1767,1857,1831
1631,1866,1863
1726,1869,1910
1874,1859,1903
1920,1855,1823
1807,1821,1777
1696,1829,1797
1799,1868,1861
2064,1867,1817
1954,1870,1854
1690,1830,1899
1731,1845,1882
1888,1839,1819
1888,1843,1768
1771,1811,1770
1798,1803,1833
1837,1867,1872
1812,1885,1874
1837,1855,1872
1903,1859,1872
1781,1817,1803
1729,1807,1850
1791,1829,1796
1840,1856,1808
1847,1873,1865
1903,1847,1880
1866,1744,1793
1753,1809,1797
1751,1837,1815
1919,1859,1826
1989,1866,1823
1834,1882,1865
1840,1870,1891
1862,1808,1822
1796,1797,1824
1780,1812,1767
1871,1857,1840
1871,1859,1842
1877,1840,1904
1842,1872,1877
1840,1840,1815
1845,1786,1777
1801,1808,1797
1792,1837,1825
1906,1839,1823
1973,1872,1869
1954,1869,1879
1829,1821,1787
1794,1831,1824
1744,1847,1869
1808,1793,1794
1920,1783,1765
1892,1877,1823
1899,1838,1823
1835,1833,1886
1775,1870,1885
1825,1878,1886
1898,1844,1838
1934,1802,1840
1915,1813,1822
1872,1835,1823
1858,1813,1822
1874,1803,1783
1841,1815,1850
1867,1851,1855
1902,1830,1840
1882,1793,1790
1829,1794,1799
1833,1812,1853
1968,1805,1901
1951,1801,1819
1757,1776,1805
1764,1735,1777
1847,1759,1883
1890,1791,1847
1908,1865,1810
1878,1808,1828
1935,1755,1840
1808,1757,1921
1773,1766,1857
1842,1726,1786
1921,1742,1840
2003,1760,1874
1911,1712,1863
1827,1746,1803
1841,1760,1818
1806,1777,1837
1888,1798,1845
1948,1765,1841
1957,1730,1823
1921,1709,1853
1859,1686,1872
1814,1697,1844
1758,1670,1796
1738,1713,1887
1840,1749,1904
1872,1725,1830
1871,1711,1830
1936,1775,1860
1894,1751,1851
1982,1765,1824
1894,1747,1833
1859,1749,1827
1842,1793,1821
1868,1779,1825
1878,1742,1862
1922,1741,1820
1826,1721,1805
1786,1762,1810
1840,1843,1917
2030,1906,1916
2001,1799,1879
1795,1735,1855
1826,1781,1879
1862,1805,1893
1926,1847,1863
1999,1815,1831
1974,1790,1857
1968,1792,1866
1899,1840,1885
1763,1856,1889
1797,1799,1846
1953,1840,1866
2039,1955,1851
1903,1808,1789
1856,1744,1920
1818,1838,1915
1842,1889,1883
1876,1840,1903
1966,1863,1904
2037,1853,1872
1899,1808,1883
1826,1789,1855
1964,1829,1903
2034,1880,1907
1898,1808,1803
1843,1835,1854
1899,1823,1863
1912,1845,1930
1935,1904,1958
1981,1849,1891
1920,1777,1840
1840,1850,1845
1822,1827,1863
1873,1830,1875
1890,1776,1872
1910,1745,1852
2019,1808,1926
1897,1827,1909
1839,1813,1860
2017,1854,1873
2014,1809,1969
1924,1744,1857
1856,1751,1843
1843,1744,1887
1887,1789,1914
1906,1776,1874
1957,1776,1861
1971,1789,1846
1962,1776,1887
1895,1799,1934
2004,1861,1935
2023,1782,1879
2001,1779,1918
1988,1762,1906
1903,1703,1818
1770,1719,1811
1847,1769,1959
1904,1762,1920
1947,1764,1934
2010,1769,1877
1874,1776,1829
1842,1781,1856
1919,1772,1932
1929,1836,1968
2119,1856,1879
1959,1789,1837
1834,1703,1829
1833,1760,1889
1965,1835,1904
1930,1759,1840
1888,1792,1823
1898,1747,1889
1886,1745,1907
1879,1792,1936
2032,1811,1926
2010,1795,1839
1922,1809,1856
1903,1813,1872
1890,1779,1940
1904,1749,1870
1923,1776,1837
2000,1799,1907
1935,1791,1903
1887,1770,1831
1901,1763,1862
1924,1750,1875
1917,1779,1871
1899,1759,1856
1872,1795,1869
1931,1726,1841
1961,1777,1904
1917,1775,1889
1903,1831,1902
2000,1754,1792
2005,1751,1881
1968,1744,1882
1805,1733,1853
1795,1723,1881
1844,1747,1878
1913,1787,1869
1908,1743,1823
1936,1734,1760
2000,1808,1956
1954,1834,1970
1893,1803,1924
1886,1761,1831
1860,1726,1794
1905,1775,1856
1958,1789,1881
1982,1775,1860
1927,1735,1855
1872,1828,1872
1931,1899,1888
1866,1789,1833
1895,1740,1815
2018,1836,1840
1883,1779,1926
1750,1754,1872
1892,1743,1856
1935,1782,1872
1857,1805,1899
1861,1769,1887
1894,1738,1856
1902,1804,1854
1955,1817,1887
1958,1806,1843
1871,1758,1831
1961,1808,1881
1970,1807,1867
1917,1789,1825
1835,1811,1846
1894,1841,1850
1851,1843,1910
1872,1909,1938
1853,1766,1893
1825,1735,1846
1872,1774,1853
1953,1802,1903
1971,1808,1842
1826,1809,1815
1842,1808,1890
1915,1802,1906
1942,1825,1874
1874,1808,1862
1902,1831,1872
1840,1827,1889
1867,1842,1919
1885,1869,1879
1825,1858,1860
1866,1795,1859
1936,1796,1895
1943,1819,1885
1933,1790,1819
1893,1816,1876
1873,1847,1961
1846,1853,1921
1852,1856,1875
1925,1850,1871
1909,1857,1890
1795,1869,1894
1879,1873,1899
2023,1891,1871
1927,1867,1866
1792,1805,1855
1808,1836,1861
1916,1879,1910
2033,1840,1878
1886,1867,1904
1968,1982,1859
1882,1811,1841
1728,1797,1911
1801,1843,1923
1904,1899,1911
1909,1824,1869
1847,1827,1889
1855,1829,1886
1841,1851,1909
1888,1894,1908
1907,1835,1866
1943,1899,1905
1926,1931,1913
1923,1921,1917
1962,1889,1937
1826,1806,1894
1842,1792,1904
1900,1832,1872
1907,1846,1838
1859,1849,1871
1847,1904,1899
1851,1919,1907
1995,1841,1904
2005,1871,1867
1855,1862,1821
1806,1936,1899
1855,1965,1934
1846,1855,1879
1823,1781,1857
1851,1858,1888
1901,1851,1935
1911,1812,1900
1882,1870,1857
1861,1862,1839
1904,1877,1828
1922,1897,1915
1931,1872,1941
1877,1851,1863
1920,1927,1898
1914,1791,1823
1879,1877,1904
1829,1866,1905
1822,1752,1904
1907,1739,1863
1924,1824,1826
1882,1856,1875
1885,1872,1909
1786,1838,1883
1808,1766,1908
1889,1772,1898
1936,1806,1871
1868,1778,1904
1805,1799,1891
1803,1783,1856
1842,1776,1859
1875,1786,1874
1967,1795,1918
1913,1779,1888
1855,1762,1887
1840,1833,1888
1889,1779,1883
1904,1731,1825
1891,1709,1903
1872,1739,1961
1838,1759,1920
1845,1761,1904
1840,1728,1851
1849,1680,1889
1895,1781,1949
1969,1749,1916
1909,1840,1910
1853,1725,1874
1847,1836,1886
1867,1802,1917
1829,1728,1962
1919,1776,1910
1923,1843,1934
1864,1763,1865
1923,1663,1889
1936,1785,1941
1776,1799,1899
1789,1773,1887
1798,1787,1878
1889,1815,1870
1936,1843,1906
1841,1850,1923
1858,1867,1920
1936,1808,1901
1851,1813,1879
1846,1794,1872
1870,1762,1887
1901,1827,1879
1901,1826,1874
1815,1808,1913
1882,1670,1840
1918,1735,1858
1853,1920,1947
1901,1867,1855
1846,1885,1939
1843,1834,1899
1843,1802,1846
1795,1821,1876
1872,1856,1921
1872,1847,1857
1833,1787,1866
1859,1805,1882
1936,1810,1865
1919,1862,1921
1826,1882,1931
1834,1840,1877
1855,1883,1873
1872,1910,1917
1935,1926,1911
2011,1823,1869
1845,1786,1904
1831,1840,1933
1744,1955,1914
1845,1788,1819
1859,1793,1842
1895,1967,1947
1890,1878,1894
1807,1859,1891
1804,1848,1875
1907,1882,1868
2021,1887,1888
1872,1936,1941
1875,1947,1976
1943,1905,1918
1867,1910,1872
1951,1930,1840
1888,1907,1904
1856,1944,1957
1869,1969,1953
1776,1953,1948
1826,1747,1821
1947,1840,1823
1894,1919,1872
1789,1963,1841
1813,1907,1884
1947,1904,1921
1967,1920,1935
1868,1915,1952
1821,1899,1934
1803,1919,1879
1893,1940,1875
1893,1910,1914
1961,1953,1931
1957,2022,1897
1855,1953,1856
1824,1883,1829
1841,1872,1903
1811,2002,1930
1808,1902,1890
1840,1870,1936
1905,1878,1872
2028,1923,1863
1897,1869,1779
1776,1878,1808
1758,2002,1930
1823,1943,1936
1878,1844,1853
1809,1889,1930
1841,1950,1861
1893,1968,1856
1901,1959,1886
1949,1915,1874
1825,1875,1808
1723,1877,1782
1831,1934,1871
1823,1904,1886
1882,1903,1904
1888,1986,1901
1938,1946,1918
1879,1907,1843
1745,1872,1835
1808,1901,1841
1830,1904,1886
1801,1889,1872
1807,1908,1856
1808,1925,1885
1802,1911,1843
1837,1923,1901
1845,1955,1904
1799,1903,1751
1785,1841,1811
1802,1846,1930
1849,1867,1972
1851,1890,1853
1872,1879,1808
2041,1920,1856
2032,1901,1880
2038,1909,1872
1691,1907,1897
1561,1887,1870
1743,1914,1938
1808,1925,1846
1811,1845,1793
1744,1760,1904
1762,1820,1967
1771,1872,1954
1800,1870,1887
1744,1840,1823
1742,1838,1837
1840,1919,1827
1788,1852,1885
1803,1856,1949
1971,1885,1925
1811,1859,1855
1787,1926,1822
1798,1790,1879
1779,1773,1856
1764,1791,1847
1748,1809,1882
1920,1853,1854
1905,1853,1783
1872,1888,1920
1792,1930,1911
1628,1880,1886
1648,1722,1790
1695,1714,1805
1757,1879,1889
1807,1895,1843
1877,1789,1826
1878,1851,1868
1722,1899,1873
1731,1856,1903
1958,1809,1803
2000,1825,1833
1823,1800,1826
1680,1809,1800
1604,1856,1808
1883,1851,1856
1887,1844,1891
1760,1919,1881
1669,1827,1787
1719,1822,1796
1856,1793,1819
1755,1795,1711
1737,1778,1856
1803,1788,1875
2027,1875,1897
1785,1798,1762
1707,1769,1803
1840,1913,1904
2016,1911,1808
1829,1852,1796
1892,1840,1879
1727,1894,1899
1675,1922,1853
1741,1871,1750
1856,1840,1774
1904,1965,1774
1901,1861,1831
1821,1805,1811
1872,1823,1798
1798,1776,1776
1771,1860,1831
1755,1846,1871
1803,1825,1808
1770,1841,1783
1808,1895,1824
1713,1942,1835
1775,1795,1841
1830,1826,1743
1742,1850,1726
1741,1886,1744
1791,1856,1813
1810,1775,1792
1879,1841,1821
1814,1867,1868
1905,1903,1818
1923,1863,1797
1728,1836,1802
1690,1779,1802
1878,1786,1712
1807,1901,1755
1783,1876,1847
1750,1840,1788
1792,1743,1796
1968,1891,1854
1709,1863,1783
1605,1870,1756
1675,1808,1776
1885,1787,1809
1840,1791,1840
1785,1777,1837
1779,1839,1835
1815,1851,1777
1787,1849,1737
1819,1853,1738
1681,1826,1726
1808,1841,1821
1891,1955,1835
1739,1776,1753
1693,1715,1815
1808,1865,1806
1857,1826,1744
1859,1805,1797
1856,1854,1849
1808,1899,1769
1771,1798,1791
1683,1806,1827
2023,1916,1878
2003,1904,1799
1730,1854,1753
1735,1861,1803
1762,1738,1727
1971,1916,1854
2350,2096,1938
2218,1966,1856
1433,1742,1711
1381,1744,1785
1728,1782,1776
1803,1834,1791
1840,1845,1733
1732,1762,1713
1684,1781,1766
1809,1830,1808
1840,1802,1808
1749,1825,1830
1856,1919,1858
1765,1893,1782
1647,1802,1642
1654,1767,1731
1872,1811,1783
1823,1813,1718
1762,1845,1756
1811,1851,1773
1856,1823,1771
1839,1874,1811
1728,1765,1761
1648,1781,1787
1766,1840,1776
1921,1855,1814
1779,1818,1808
1790,1823,1743
1715,1826,1776
1680,1895,1840
1737,1823,1765
1728,1787,1795
1872,1843,1819
1872,1850,1775
1757,1809,1762
1633,1843,1789
1696,1826,1828
1820,1872,1808
1990,1903,1793
1821,1860,1808
1749,1840,1823
1675,1758,1764
1809,1813,1767
1902,1844,1835
1776,1810,1837
1699,1835,1869
1714,1828,1832
1805,1840,1801
1822,1805,1764
1766,1806,1806
1776,1886,1875
1712,1879,1843
1872,1856,1855
1887,1835,1770
1748,1851,1786
1761,1847,1856
1859,1920,1831
1757,1710,1726
1870,1803,1883
1828,1835,1851
1729,1802,1831
1703,1818,1859
1737,1917,1872
1857,1871,1863
1868,1891,1843
1841,1750,1787
1805,1781,1858
1760,1841,1875
1791,1840,1828
1843,1953,1850
1809,1776,1830
1739,1794,1814
1810,1858,1821
1806,1921,1786
1755,1808,1866
1781,1792,1885
1863,1849,1879
1923,1870,1915
1840,1904,1845
1839,1829,1863
1754,1840,1872
1705,1792,1831
1774,1831,1766
1829,1845,1837
1798,1840,1936
1715,1867,1889
1745,1853,1839
1904,1829,1869
2153,1894,1830
1857,1874,1846
1609,1829,1871
1690,1777,1859
1824,1838,1872
1840,1833,1841
1776,1858,1904
1757,1953,1873
1807,1859,1819
1855,1785,1826
1885,1840,1855
1847,1915,1887
1821,1837,1848
1831,1847,1877
1924,1872,1899
1907,1826,1845
1815,1863,1850
1717,1842,1811
1758,1782,1834
1818,1888,1885
1888,1906,1874
1956,1884,1853
1823,1794,1832
1778,1831,1889
1808,1914,1914
1859,1863,1901
1827,1815,1879
1846,1731,1804
1840,1878,1855
1939,1872,1936
1857,1889,1934
1817,1862,1900
1901,1881,1827
1846,1843,1779
1811,1863,1828
1814,1867,1872
1990,1829,1887
1904,1897,1838
1729,1847,1829
1761,1872,1935
1922,1878,1905
1910,1839,1856
1807,1778,1873
1850,1841,1861
1843,1899,1849
1837,1883,1860
1886,1840,1859
1850,1874,1866
1854,1863,1905
1856,1840,1887
1930,1839,1853
1973,1802,1788
1829,1865,1810
1936,1931,1924
2030,1845,1936
1841,1887,1872
1706,1930,1833
1779,1836,1841
1883,1882,1878
2038,1831,1861
1961,1829,1887
1858,1858,1873
1651,1744,1776
1677,1794,1913
1848,1809,1921
1857,1792,1856
1799,1830,1869
1910,1873,1896
1986,1895,1827
1881,1827,1818
2005,1874,1874
1921,1875,1913
1741,1855,1873
1743,1789,1777
1904,1787,1793
1881,1977,1904
1862,1903,1904
1902,1824,1818
1847,1835,1869
1854,1857,1863
1769,1790,1821
1744,1754,1823
1915,1910,1867
1958,1782,1841
1776,1831,1919
1853,1872,1929
1933,1861,1840
1794,1837,1798
1787,1843,1810
1904,1863,1847
1984,1842,1903
1845,1894,1882
1747,1867,1821
1853,1887,1833
1884,1810,1826
1959,1860,1825
1911,1922,1853
1861,1775,1835
1730,1780,1878
1807,1793,1872
1857,1819,1848
1820,1888,1870
1831,1853,1901
1914,1836,1890
1959,1814,1791
1878,1850,1813
1805,1872,1863
1823,1850,1854
1830,1813,1839
1903,1840,1854
1981,1909,1857
1931,1914,1855
1850,1878,1884
1869,1891,1875
1859,1744,1795
1789,1919,1819
1778,1799,1854
1795,1734,1873
1903,1711,1879
1962,1884,1912
1854,1850,1850
1831,1859,1847
2003,1872,1899
1922,1936,1897
1705,1882,1856
1786,1803,1834
1855,1798,1825
1878,1839,1831
1934,1878,1883
1872,1808,1814
1769,1836,1870
1887,1904,1903
1949,1765,1822
1817,1740,1824
1904,1909,1894
1929,1827,1862
1861,1814,1851
1776,1865,1887
1899,1915,1914
1872,1815,1855
1890,1793,1787
1807,1782,1795
1776,1762,1843
1857,1726,1808
1962,1847,1862
1883,1843,1874
1803,1834,1872
1911,1842,1861
2022,1861,1869
1847,1879,1841
1908,1887,1861
1872,1835,1791
1762,1776,1863
1776,1882,1892
1871,1872,1921
1945,1835,1876
1873,1847,1761
1840,1861,1813
1858,1745,1837
1956,1767,1858
1969,1807,1871
1854,1828,1913
1890,1825,1898
1870,1791,1865
1872,1857,1832
1814,1887,1872
1842,1871,1893
1911,1901,1893
1904,1887,1829
1934,1863,1794
1936,1833,1807
1822,1802,1885
1750,1872,1901
1883,1867,1918
1992,1803,1922
1945,1808,1855
1750,1760,1807
1935,1786,1807
1958,1837,1885
1831,1860,1888
1712,1834,1817
1749,1811,1854
1929,1854,1907
1918,1898,1874
1879,1840,1810
1873,1805,1867
1868,1882,1923
1995,1922,1907
1968,1875,1875
1840,1726,1793
1767,1871,1839
1866,1922,1856
1965,1958,1858
1842,1765,1831
1775,1746,1839
1871,1773,1887
1831,1725,1894
1779,1751,1831
1887,1829,1859
1971,1968,1921
1872,1881,1850
1795,1863,1833
1821,1815,1852
1780,1811,1858
1859,1817,1857
1879,1802,1821
1884,1903,1853
1936,1894,1871
1947,1787,1790
1797,1742,1801
1871,1884,1834
1858,1728,1827
1799,1806,1904
1822,1761,1872
1777,1839,1886
1790,1866,1887
1839,1875,1839
1915,1795,1827
1899,1776,1840
1792,1840,1846
1854,1840,1834
1862,1809,1841
1847,1802,1914
1843,1887,1877
1906,1915,1826
1847,1840,1823
1794,1744,1767
1871,1744,1801
1931,1842,1863
2039,1782,1846
1862,1901,1835
1723,1879,1851
1714,1855,1798
1842,1834,1872
1818,1813,1875
1830,1873,1872
1835,1787,1853
1840,1779,1820
1852,1744,1771
1919,1904,1835
2000,1850,1867
1847,1840,1872
1833,1846,1815
1855,1733,1775
1832,1729,1799
1738,1872,1889
1858,1952,1898
1936,1856,1808
1807,1887,1826
1792,1739,1810
1872,1826,1818
1939,1819,1841
1830,1808,1840
1788,1830,1804
1830,1885,1797
2021,1883,1876
2000,1840,1878
1751,1743,1797
1717,1753,1821
1876,1760,1851
1958,1901,1901
1876,1871,1761
1683,1793,1773
1713,1819,1860
1847,1837,1871
1977,1807,1821
1872,1823,1789
1828,1856,1810
1898,1907,1834
1829,1808,1861
1799,1835,1884
1853,1844,1872
1921,1903,1907
1947,1846,1818
1776,1762,1775
1797,1862,1839
1850,1799,1889
1885,1806,1885
1904,1843,1790
1850,1840,1776
1947,1776,1847
1852,1807,1879
1699,1829,1842
1808,1914,1822
1776,1787,1849
1774,1771,1840
1873,1817,1872
1874,1849,1850
1846,1885,1843
1879,1919,1823
1903,1802,1815
1829,1776,1826
1821,1853,1815
1891,1818,1833
1904,1858,1850
1847,1829,1842
1859,1807,1854
1785,1858,1808
1775,1790,1802
1840,1903,1845
1858,1806,1877
1859,1835,1869
1847,1798,1837
1907,1859,1809
1847,1838,1808
1895,1790,1856
1813,1807,1869
1811,1883,1898
1920,1886,1843
1833,1807,1779
1761,1793,1829
1808,1840,1839
1873,1903,1818
1882,1808,1872
1878,1853,1856
1933,1925,1818
1962,1808,1870
1790,1779,1898
1717,1798,1833
1790,1861,1776
1815,1756,1847
1784,1811,1894
1822,1792,1893
1908,1866,1871
1872,1872,1843
1846,1840,1841
1896,1878,1895
1849,1872,1863
1915,1904,1845
2000,1890,1857
1910,1849,1840
1797,1947,1867
1798,1738,1776
1792,1856,1855
1777,1794,1879
1815,1848,1897
1819,1786,1901
1821,1808,1846
1831,1835,1829
1942,1814,1836
1995,1883,1846
1790,1898,1882
1735,1809,1849
1840,1904,1907
1887,1907,1875
1885,1910,1877
1856,1886,1878
1883,1925,1881
1867,1876,1810
1808,1807,1873
1872,1840,1968
1968,1856,1831
1920,1876,1795
1930,1840,1840
1968,1895,1933
1872,1906,1874
1778,1742,1815
1769,1817,1878
1811,1839,1936
1786,1830,1887
1805,1868,1872
1942,1867,1871
1888,1865,1862
1805,1847,1837
1897,1877,1898
1907,1862,1861
1827,1862,1858
1858,1911,1869
1887,1854,1888
1925,1840,1889
1933,1823,1768
1797,1812,1855
1809,1997,1915
1863,1878,1873
1873,1808,1901
1798,1786,1846
1874,1882,1854
1831,1848,1905
1829,1811,1857
1792,1840,1839
1873,1891,1872
1905,1904,1858
1875,1730,1803
1825,1770,1822
1814,1911,1885
1877,1931,1921
1991,1881,1875
1824,1823,1856
1800,1832,1856
1819,1808,1856
1861,1890,1833
1885,1936,1868
1807,1794,1846
1791,1723,1840
1869,1798,1824
1904,1807,1875
1874,1858,1906
1922,1885,1879
1842,1903,1845
1856,1885,1859
1799,1799,1870
1813,1805,1873
1876,1821,1854
1926,1972,1861
1843,1790,1852
1776,1822,1895
1819,1838,1853
1902,1878,1837
1918,1840,1823
1917,1871,1822
1924,1863,1877
1889,1872,1905
1810,1855,1845
1732,1751,1831
1808,1810,1897
1818,1845,1859
1789,1813,1866
1828,1767,1851
1858,1810,1847
1936,1857,1872
1897,1782,1824
1811,1861,1869
1808,1906,1874
1931,1886,1883
1904,1872,1829
1859,1826,1791
1829,1851,1840
1877,1970,1886
1858,1878,1839
1856,1775,1861
1791,1893,1895
1904,1825,1872
1856,1776,1827
1743,1722,1776
1765,1796,1830
1856,1829,1841
1982,1889,1903
2029,1886,1811
1759,1823,1814
1671,1804,1861
1768,1859,1855
1855,1861,1881
1840,1835,1899
1911,1845,1843
1967,1890,1835
1907,1827,1807
1782,1791,1802
1791,1842,1787
1860,1877,1850
1915,1873,1894
1775,1799,1834
1789,1802,1829
1789,1788,1829
1823,1796,1861
1811,1819,1877
1890,1891,1881
1961,1877,1845
1881,1826,1854
1811,1807,1810
1838,1855,1840
1950,1899,1921
1872,1888,1892
1754,1739,1787
1808,1845,1808
1873,1919,1851
1902,1776,1769
1817,1866,1839
1794,2004,1898
1842,1911,1847
1877,1746,1808
1870,1774,1855
1818,1846,1855
1802,1766,1847
1867,1840,1917
1840,1856,1840
1867,1809,1813
1861,1815,1890
1882,1834,1858
1900,1862,1835
1838,1871,1795
1771,1856,1840
1846,1869,1823
1934,1764,1776
1845,1872,1860
1792,1947,1872
1779,1861,1840
1855,1839,1815
1904,1835,1856
1883,1849,1840
1814,1839,1819
1821,1787,1853
1746,1823,1860
1823,1791,1881
1860,1827,1826
1873,1798,1856
1952,1853,1899
1776,1841,1803
1778,1851,1801
1840,1841,1861
1872,1828,1831
1872,1840,1840
1872,1801,1860
1767,1841,1833
1838,1877,1835
2014,1924,1872
1872,1872,1840
1701,1853,1843
1819,1725,1787
1810,1744,1823
1783,1813,1808
1803,1827,1840
1804,1838,1918
1901,1846,1889
1979,1824,1805
1805,1846,1793
1937,1825,1846
1836,1831,1853
1760,1841,1834
1717,1855,1835
1802,1860,1836
1891,1845,1843
1851,1833,1869
1895,1899,1858
1936,1901,1840
1868,1854,1839
1773,1845,1834
1763,1695,1765
1791,1799,1844
1895,1861,1914
1893,1870,1834
1907,1868,1827
1845,1847,1822
1867,1925,1821
1758,1829,1858
1835,1777,1887
1813,1839,1858
1807,1804,1820
1805,1840,1827
1799,1813,1808
1828,1777,1831
1908,1838,1862
1906,1846,1856
1820,1833,1856
1811,1767,1799
1899,1863,1845
1887,1895,1864
1930,1893,1859
1899,1878,1792
1838,1695,1774
1695,1758,1888
1703,1839,1883
1742,1871,1861
1805,1866,1851
1909,1841,1840
1899,1822,1817
1787,1838,1822
1809,1890,1815
