1802,1759,1850
1809,1861,1836
1834,1794,1793
1844,1788,1822
1831,1840,1873
1806,1832,1875
1824,1828,1871
1824,1810,1839
1829,1807,1841
1841,1834,1850
1846,1839,1844
1849,1830,1839
1851,1838,1839
1847,1889,1845
1853,1891,1855
1840,1860,1847
1817,1827,1839
1842,1856,1846
1866,1872,1845
1860,1840,1826
1844,1886,1830
1841,1860,1838
1882,1793,1737
1818,1778,1845
1831,1855,1920
1850,1876,1861
1793,1839,1840
1818,1873,1821
1797,1796,1844
1814,1782,1862
1855,1815,1857
1867,1819,1840
1839,1838,1843
1837,1856,1855
1851,1858,1850
1846,1853,1839
1835,1845,1840
1839,1854,1850
1858,1882,1852
1872,1856,1840
1843,1862,1840
1872,1827,1840
1846,1835,1851
1809,1796,1846
1840,1817,1840
1869,1835,1840
1838,1841,1863
1824,1902,1866
1808,1802,1851
1817,1802,1850
1851,1835,1861
1845,1802,1829
1852,1835,1840
1851,1871,1859
1856,1872,1855
1842,1846,1842
1839,1840,1845
1856,1854,1856
1829,1861,1845
1831,1855,1808
1863,1826,1819
1854,1870,1877
1822,1839,1868
1838,1865,1855
1862,1872,1851
1844,1872,1872
1831,1758,1825
1783,1804,1858
1806,1839,1867
1809,1825,1824
1836,1728,1788
1828,1803,1872
1816,1854,1885
1829,1872,1870
1823,1859,1852
1815,1869,1843
1844,1846,1840
1843,1830,1846
1844,1847,1847
1840,1843,1848
1872,1856,1841
1853,1872,1841
1836,1837,1853
1821,1831,1842
1830,1872,1841
1863,1872,1854
1823,1824,1843
1824,1791,1804
1819,1815,1824
1829,1807,1857
1815,1787,1842
1830,1811,1840
1840,1849,1845
1825,1831,1858
1847,1871,1872
1810,1817,1840
1808,1822,1835
1823,1845,1839
1851,1859,1843
1867,1840,1849
1875,1847,1845
1854,1862,1843
1856,1918,1839
1815,1785,1792
1813,1797,1842
1842,1872,1879
1859,1863,1872
1856,1856,1842
1856,1862,1859
1834,1824,1841
1846,1793,1829
1808,1821,1840
1809,1807,1825
1857,1857,1841
1873,1880,1851
1851,1861,1840
1811,1825,1840
1829,1840,1845
1859,1855,1850
1869,1859,1840
1854,1853,1842
1858,1871,1825
1857,1904,1796
1826,1795,1866
1807,1818,1840
1801,1737,1821
1817,1814,1854
1826,1868,1872
1840,1867,1874
1837,1840,1857
1840,1840,1847
1819,1810,1840
1835,1782,1859
1860,1837,1872
1835,1846,1849
1826,1833,1839
1870,1860,1831
1886,1823,1843
1810,1826,1840
1799,1856,1840
1826,1905,1847
1813,1837,1841
1869,1840,1841
1840,1792,1840
1824,1822,1839
1854,1872,1782
1819,1805,1837
1813,1782,1845
1835,1786,1849
1840,1845,1862
1855,1840,1850
1803,1821,1837
1803,1838,1840
1824,1887,1843
1875,1867,1843
1872,1863,1840
1837,1861,1838
1808,1823,1834
1830,1803,1840
1840,1808,1841
1872,1813,1825
1879,1869,1846
1809,1861,1851
1803,1857,1840
1840,1902,1840
1833,1829,1839
1839,1835,1841
1850,1845,1839
1902,1824,1839
1829,1822,1831
1814,1870,1833
1827,1836,1830
1841,1872,1798
1850,1844,1840
1821,1802,1885
1835,1826,1872
1826,1831,1856
1846,1889,1842
1859,1853,1839
1850,1863,1834
1840,1823,1839
1863,1827,1867
1871,1871,1851
1856,1895,1829
1806,1806,1838
1821,1810,1843
1824,1824,1844
1857,1885,1827
1838,1881,1815
1819,1795,1855
1834,1840,1871
1839,1793,1853
1846,1807,1843
1859,1840,1845
1873,1845,1810
1866,1824,1837
1827,1847,1872
1840,1867,1871
1884,1875,1854
1866,1863,1840
1824,1825,1851
1813,1829,1856
1840,1863,1855
1875,1881,1822
1825,1793,1835
1822,1840,1850
1871,1904,1830
1840,1829,1846
1791,1728,1857
1837,1776,1854
1851,1827,1846
1863,1829,1808
1840,1812,1854
1856,1863,1869
1855,1792,1803
1808,1807,1851
1808,1841,1879
1853,1861,1872
1854,1856,1847
1847,1857,1847
1846,1851,1847
1856,1849,1851
1856,1845,1842
1872,1884,1835
1821,1802,1831
1838,1841,1842
1832,1855,1846
1827,1805,1840
1830,1876,1837
1833,1754,1829
1870,1791,1837
1900,1859,1838
1855,1843,1820
1813,1808,1872
1823,1801,1863
1872,1821,1840
1859,1905,1847
1802,1787,1872
1808,1809,1866
1832,1818,1851
1823,1808,1845
1834,1833,1847
1860,1872,1851
1866,1885,1840
1841,1806,1822
1843,1793,1834
1841,1840,1871
1833,1871,1859
1867,1827,1861
1873,1867,1845
1841,1851,1845
1839,1777,1836
1821,1790,1854
1813,1824,1868
1857,1862,1847
1859,1806,1803
1831,1822,1860
1851,1835,1874
1861,1895,1864
1893,1909,1826
1819,1838,1856
1808,1831,1857
1823,1820,1840
1837,1790,1840
1814,1797,1840
1839,1837,1840
1866,1842,1839
1870,1801,1822
1822,1879,1824
1826,1803,1838
1840,1856,1879
1840,1905,1870
1837,1791,1850
1854,1764,1829
1880,1761,1786
1837,1825,1870
1825,1858,1891
1843,1890,1878
1880,1877,1853
1861,1847,1840
1835,1871,1849
1825,1830,1858
1867,1854,1827
1839,1861,1809
1829,1783,1845
1859,1761,1841
1843,1833,1862
1827,1881,1857
1806,1802,1847
1840,1810,1849
1865,1830,1810
1862,1776,1819
1843,1766,1840
1837,1815,1842
1819,1872,1881
1845,1870,1875
1849,1871,1857
1877,1858,1851
1872,1849,1846
1852,1840,1850
1878,1835,1853
1893,1840,1842
1840,1911,1847
1792,1865,1843
1817,1794,1844
1846,1840,1854
1851,1862,1834
1840,1786,1844
1842,1855,1828
1859,1763,1807
1845,1758,1854
1801,1823,1881
1804,1821,1866
1840,1839,1847
1858,1831,1845
1845,1815,1840
1859,1840,1854
1861,1853,1840
1818,1870,1849
1808,1802,1849
1826,1792,1851
1845,1823,1846
1867,1858,1849
1856,1868,1838
1834,1808,1845
1839,1798,1855
1878,1813,1834
1845,1775,1825
1817,1904,1830
1820,1776,1843
1813,1808,1884
1824,1825,1871
1834,1841,1856
1850,1801,1850
1907,1785,1833
1863,1872,1849
1821,1856,1863
1808,1846,1856
1857,1871,1853
1883,1874,1842
1815,1807,1842
1817,1829,1846
1826,1846,1851
1823,1845,1825
1834,1786,1827
1853,1822,1858
1856,1841,1859
1856,1841,1795
1804,1819,1835
1808,1856,1881
1838,1872,1872
1857,1872,1842
1872,1751,1789
1826,1779,1866
1814,1867,1893
1840,1847,1869
1851,1813,1855
1841,1920,1857
1854,1818,1849
1842,1783,1840
1807,1808,1845
1825,1842,1851
1846,1856,1841
1839,1889,1835
1830,1840,1838
1858,1818,1837
1858,1833,1853
1814,1840,1850
1854,1835,1811
1845,1823,1843
1817,1841,1870
1792,1813,1858
1815,1818,1849
1857,1867,1853
1872,1825,1831
1858,1815,1823
1812,1808,1858
1840,1882,1866
1841,1950,1840
1815,1808,1798
1807,1725,1843
1830,1823,1876
1835,1840,1872
1821,1840,1843
1835,1840,1845
1840,1829,1853
1839,1811,1811
1858,1842,1822
1827,1881,1872
1814,1858,1875
1850,1881,1861
1851,1842,1846
1838,1829,1845
1826,1825,1853
1849,1842,1847
1828,1795,1833
1822,1815,1840
1823,1855,1854
1876,1914,1855
1827,1884,1852
1811,1877,1822
1849,1831,1806
1823,1708,1821
1776,1774,1886
1778,1815,1872
1842,1866,1844
1845,1842,1860
1833,1834,1851
1835,1815,1843
1885,1829,1847
1855,1845,1844
1823,1846,1841
1835,1855,1839
1840,1871,1846
1869,1862,1843
1854,1835,1838
1851,1826,1839
1834,1854,1840
1857,1826,1830
1861,1883,1835
1808,1840,1843
1838,1837,1824
1859,1887,1823
1835,1878,1845
1789,1753,1866
1802,1771,1859
1817,1808,1841
1828,1817,1837
1840,1799,1803
1822,1823,1840
1812,1861,1859
1817,1862,1850
1829,1855,1845
1849,1895,1853
1845,1847,1846
1844,1823,1843
1847,1836,1846
1883,1841,1842
1871,1835,1823
1828,1859,1823
1813,1872,1855
1841,1759,1838
1844,1799,1866
1823,1847,1879
1829,1853,1859
1823,1819,1858
1824,1835,1847
1831,1834,1842
1802,1808,1840
1819,1826,1845
1850,1866,1849
1856,1861,1831
1841,1840,1845
1857,1857,1855
1857,1831,1845
1836,1838,1850
1835,1821,1841
1857,1802,1778
1850,1844,1838
1818,1882,1885
1822,1887,1843
1850,1862,1872
1872,1804,1872
1819,1790,1853
1818,1810,1845
1835,1829,1856
1841,1946,1855
1831,1843,1807
1801,1744,1834
1824,1789,1850
1851,1821,1851
1857,1827,1839
1856,1837,1833
1840,1841,1845
1837,1866,1843
1842,1818,1813
1839,1846,1840
1877,1874,1840
1907,1929,1807
1847,1903,1859
1802,1821,1877
1795,1779,1865
1829,1819,1842
1855,1817,1836
1809,1807,1835
1840,1808,1801
1863,1835,1853
1824,1871,1857
1813,1837,1840
1840,1828,1837
1858,1857,1838
1867,1859,1845
1878,1850,1839
1856,1852,1835
1840,1925,1825
1830,1776,1808
1841,1774,1839
1879,1869,1801
1919,1968,1840
1808,1783,1874
1781,1741,1870
1840,1808,1844
1827,1799,1845
1817,1813,1846
1835,1840,1840
1830,1839,1840
1845,1844,1839
1856,1840,1845
1833,1854,1843
1831,1866,1837
1840,1819,1833
1840,1817,1839
1841,1779,1819
1870,1808,1808
1840,1866,1853
1840,1888,1867
1857,1881,1857
1847,1856,1815
1858,1827,1839
1834,1898,1861
1840,1866,1849
1877,1902,1871
1840,1758,1855
1806,1769,1830
1789,1799,1822
1807,1795,1850
1823,1815,1855
1847,1839,1853
1855,1806,1838
1837,1810,1844
1869,1879,1863
1858,1861,1846
1841,1872,1845
1862,1840,1808
1860,1803,1831
1839,1826,1853
1811,1885,1838
1808,1803,1839
1808,1821,1872
1840,1835,1865
1851,1795,1855
1839,1819,1840
1885,1895,1840
1859,1843,1834
1813,1798,1845
1831,1808,1849
1847,1815,1814
1838,1829,1850
1815,1873,1838
1841,1869,1840
1863,1794,1803
1842,1802,1854
1811,1827,1865
1846,1920,1868
1839,1862,1850
1830,1773,1840
1843,1783,1843
1872,1861,1850
1872,1883,1840
1877,1786,1795
1839,1785,1855
1810,1803,1858
1834,1808,1842
1838,1808,1820
1834,1870,1852
1834,1869,1860
1831,1856,1856
1846,1841,1806
1850,1856,1807
1862,1876,1853
1853,1861,1867
1808,1805,1831
1800,1744,1851
1819,1795,1855
1856,1825,1846
1861,1853,1839
1857,1873,1843
1824,1830,1850
1834,1813,1843
1840,1811,1840
1854,1792,1821
1894,1899,1846
1899,1883,1843
1819,1796,1808
1789,1749,1808
1805,1843,1888
1838,1963,1904
1829,1870,1856
1829,1744,1840
1840,1786,1837
1831,1817,1836
1851,1805,1842
1840,1815,1859
1805,1840,1853
1825,1851,1825
1831,1826,1841
1838,1821,1853
1886,1873,1840
1872,1847,1842
1830,1819,1842
1823,1845,1859
1842,1829,1855
1843,1830,1843
1866,1807,1799
1853,1843,1840
1837,1891,1861
1854,1867,1865
1851,1851,1867
1829,1789,1811
1808,1731,1835
1819,1823,1866
1837,1820,1863
1840,1803,1855
1847,1819,1849
1843,1811,1827
1840,1846,1827
1859,1857,1802
1836,1825,1844
1822,1835,1887
1843,1857,1872
1850,1886,1853
1849,1803,1841
1856,1819,1846
1827,1791,1837
1831,1836,1839
1846,1845,1833
1871,1801,1870
1822,1797,1855
1824,1808,1813
1840,1811,1828
1830,1863,1873
1825,1840,1855
1833,1777,1808
1849,1845,1867
1861,1916,1871
1840,1850,1852
1819,1809,1854
1813,1835,1847
1869,1840,1798
1855,1803,1840
1849,1835,1857
1860,1827,1841
1829,1809,1826
1823,1795,1838
1823,1840,1872
1879,1882,1801
1874,1911,1830
1807,1787,1874
1759,1789,1873
1789,1815,1856
1837,1840,1842
1842,1840,1843
1849,1851,1851
1880,1908,1840
1882,1825,1834
1840,1802,1851
1813,1774,1855
1814,1808,1856
1877,1840,1853
1842,1809,1836
1823,1831,1840
1850,1861,1829
1897,1850,1803
1871,1866,1857
1818,1856,1897
1817,1839,1872
1834,1838,1853
1851,1823,1821
1839,1871,1814
1840,1772,1807
1866,1878,1847
1827,1774,1845
1776,1745,1864
1809,1799,1869
1846,1840,1856
1856,1843,1842
1839,1862,1841
1837,1847,1853
1862,1869,1861
1850,1822,1847
1872,1808,1799
1866,1845,1832
1819,1908,1887
1846,1873,1875
1826,1847,1856
1840,1854,1850
1837,1872,1847
1832,1882,1841
1858,1904,1854
1835,1845,1846
1841,1885,1807
1841,1808,1802
1799,1726,1841
1807,1791,1894
1840,1806,1872
1825,1799,1839
1835,1791,1839
1853,1846,1858
1873,1872,1861
1867,1865,1851
1838,1856,1843
1837,1860,1847
1872,1869,1847
1891,1827,1806
1861,1833,1847
1840,1891,1877
1855,1905,1866
1838,1808,1836
1827,1842,1831
1871,1866,1839
1856,1849,1853
1881,1899,1853
1808,1775,1826
1786,1843,1835
1808,1818,1846
1840,1870,1851
1863,1841,1839
1856,1821,1840
1853,1816,1846
1856,1829,1850
1871,1833,1791
1863,1823,1831
1840,1819,1847
1819,1840,1873
1837,1833,1866
1841,1862,1851
1861,1898,1853
1855,1893,1838
1851,1829,1838
1863,1811,1850
1854,1812,1841
1840,1776,1836
1840,1808,1838
1886,1865,1859
1879,1853,1860
1836,1855,1851
1806,1823,1852
1810,1851,1853
1862,1821,1814
1863,1826,1837
1811,1844,1878
1825,1856,1874
1870,1893,1858
1853,1860,1852
1827,1801,1840
1839,1811,1834
1863,1843,1843
1883,1843,1845
1867,1934,1825
1827,1775,1829
1827,1739,1833
1841,1795,1845
1893,1782,1822
1862,1841,1849
1834,1946,1871
1821,1824,1834
1846,1807,1833
1858,1818,1883
1807,1826,1869
1788,1808,1854
1797,1810,1840
1822,1829,1847
1850,1853,1847
1861,1853,1840
1872,1862,1850
1856,1862,1847
1857,1842,1842
1863,1839,1827
1850,1823,1847
1859,1870,1858
1860,1866,1846
1863,1838,1838
1850,1829,1845
1837,1801,1851
1825,1823,1843
1837,1818,1813
1855,1770,1814
1808,1810,1879
1827,1870,1872
1834,1863,1841
1828,1815,1846
1850,1822,1846
1851,1834,1863
1877,1838,1842
1871,1838,1836
1866,1904,1840
1871,1808,1771
1817,1746,1840
1783,1808,1889
1820,1785,1857
1872,1851,1838
1856,1849,1853
1837,1808,1857
1821,1819,1853
1840,1853,1839
1862,1819,1803
1835,1766,1853
1831,1802,1884
1849,1847,1873
1829,1808,1843
1843,1831,1827
1827,1820,1846
1842,1841,1867
1856,1827,1840
1857,1825,1840
1849,1847,1841
1865,1849,1841
1867,1863,1845
1851,1925,1839
1828,1794,1837
1823,1757,1862
1834,1840,1883
1907,1907,1862
1875,1823,1781
1824,1735,1758
1779,1800,1842
1775,1776,1888
1808,1847,1885
1853,1898,1857
1866,1818,1849
1859,1814,1844
1839,1811,1855
1841,1842,1855
1855,1843,1851
1836,1840,1844
1841,1869,1853
1867,1856,1842
1885,1831,1842
1835,1830,1850
1851,1898,1861
1879,1903,1854
1872,1791,1843
1856,1809,1787
1812,1770,1785
1807,1773,1836
1808,1869,1872
1851,1834,1852
1936,1823,1844
1875,1904,1841
1813,1874,1868
1808,1869,1851
1897,1772,1829
1935,1782,1856
1811,1822,1867
1763,1834,1841
1826,1827,1831
1873,1883,1856
1875,1901,1845
1870,1845,1837
1873,1825,1775
1860,1808,1831
1872,1813,1863
1824,1869,1875
1839,1840,1847
1859,1867,1841
1838,1836,1836
1825,1795,1829
1867,1808,1839
1880,1843,1856
1879,1922,1843
1855,1932,1837
1842,1834,1849
1890,1869,1878
1819,1769,1850
1857,1733,1795
1876,1815,1808
1866,1819,1783
1873,1765,1782
1789,1836,1892
1829,1881,1869
1861,1850,1857
1872,1882,1845
1834,1839,1808
1808,1850,1840
1874,1861,1847
1855,1831,1808
1871,1861,1818
1840,1810,1808
1906,1899,1811
1955,1931,1758
1782,1770,1818
1751,1803,1865
1824,1755,1821
1920,1808,1810
1860,1824,1808
1813,1814,1798
1841,1834,1826
1872,1872,1820
1830,1840,1807
1805,1856,1837
1878,1854,1845
1951,1884,1843
1861,1854,1835
1775,1842,1848
1824,1904,1835
1901,1781,1774
1935,1807,1790
1790,1829,1812
1769,1894,1843
1840,1936,1771
1886,1838,1779
1824,1765,1824
1825,1774,1809
1852,1893,1855
1884,1843,1840
1817,1813,1814
1825,1843,1826
1965,1872,1814
1885,1884,1814
1850,1883,1826
1815,1838,1801
1811,1806,1835
1866,1843,1831
1888,1843,1810
1904,1861,1749
1821,1824,1775
1809,1827,1872
1869,1851,1893
1850,1914,1833
1802,1847,1798
1828,1804,1817
1818,1803,1781
1831,1797,1831
1875,1842,1860
1886,1848,1840
1847,1829,1818
1823,1856,1835
1824,1873,1858
1840,1828,1814
1862,1872,1829
1823,1823,1831
1865,1827,1834
1888,1853,1822
1841,1818,1801
1818,1820,1851
1844,1818,1844
1846,1831,1827
1856,1855,1853
1842,1843,1817
1855,1798,1822
1834,1855,1857
1827,1904,1856
1868,1814,1821
1893,1919,1845
1839,1807,1820
1809,1828,1859
1808,1808,1867
1822,1797,1808
1872,1861,1815
1847,1842,1822
1831,1803,1849
1792,1809,1846
1792,1814,1840
1847,1837,1849
1845,1872,1835
1916,1843,1850
1843,1808,1840
1815,1814,1839
1851,1852,1840
1838,1850,1831
1840,1881,1847
1909,1914,1840
1826,1787,1787
1838,1790,1818
1851,1790,1813
1821,1910,1889
1799,1846,1910
1869,1776,1854
1904,1729,1795
1779,1788,1828
1785,1857,1844
1851,1839,1856
1825,1805,1826
1813,1830,1839
1846,1846,1840
1893,1871,1843
1872,1859,1856
1819,1837,1856
1823,1852,1838
1883,1883,1839
1911,1888,1830
1950,1733,1776
1822,1810,1840
1727,1834,1895
1776,1873,1862
1808,1778,1847
1821,1807,1802
1858,1849,1810
1824,1804,1872
1750,1797,1862
1815,1808,1842
1878,1831,1838
1831,1821,1861
1821,1830,1846
1874,1851,1865
1863,1856,1862
1893,1847,1849
1857,1872,1851
1919,1893,1858
1837,1847,1840
1806,1739,1813
1875,1815,1869
1835,1922,1857
1791,1888,1850
1758,1795,1872
1791,1809,1845
1838,1775,1837
1873,1759,1870
1876,1778,1886
1792,1822,1859
1834,1829,1819
1840,1808,1830
1824,1849,1872
1863,1866,1861
1848,1861,1863
1824,1854,1854
1889,1855,1851
1860,1857,1851
1843,1887,1855
1841,1868,1850
1845,1801,1856
1866,1840,1887
1862,1884,1875
1839,1808,1823
1835,1778,1801
1846,1874,1854
1793,1813,1879
1825,1825,1885
1841,1775,1873
1860,1856,1855
1886,1872,1887
1849,1847,1861
1834,1811,1842
1890,1837,1867
1841,1844,1857
1806,1847,1856
1858,1840,1861
1858,1885,1847
1847,1862,1872
1869,1857,1855
1871,1826,1871
1834,1787,1879
1829,1760,1787
1850,1863,1843
1856,1838,1857
1774,1758,1881
1744,1792,1883
1808,1834,1897
1942,1843,1872
1927,1824,1870
1783,1859,1840
1825,1832,1862
1842,1759,1863
1855,1808,1860
1835,1855,1847
1791,1792,1861
1840,1818,1870
1874,1858,1851
1904,1867,1867
1819,1806,1866
1767,1785,1856
1847,1808,1868
1904,1850,1875
1856,1871,1871
1797,1827,1872
1837,1900,1856
1869,1803,1855
1827,1813,1830
1861,1785,1845
1859,1847,1872
1803,1847,1883
1818,1847,1859
1871,1813,1861
1901,1767,1852
1827,1801,1850
1813,1837,1863
1846,1791,1854
1855,1856,1853
1843,1877,1779
1789,1795,1809
1792,1728,1894
1798,1797,1900
1877,1841,1874
1834,1837,1840
1850,1866,1856
1850,1866,1889
1850,1826,1856
1851,1798,1837
1833,1808,1847
1840,1866,1885
1872,1876,1856
1890,1913,1827
1842,1818,1824
1815,1751,1835
1851,1755,1813
1864,1840,1858
1786,1825,1881
1805,1839,1885
1845,1839,1869
1871,1890,1865
1846,1887,1869
1799,1825,1840
1868,1830,1841
1861,1823,1840
1824,1831,1842
1863,1855,1856
1904,1872,1861
1829,1842,1813
1827,1819,1815
1865,1861,1861
1909,1902,1842
1888,1831,1832
1830,1824,1843
1797,1885,1856
1819,1815,1807
1873,1712,1793
1855,1841,1898
1770,1795,1881
1804,1808,1872
1851,1841,1866
1858,1851,1849
1883,1854,1890
1806,1874,1859
1788,1835,1837
1850,1805,1818
1850,1812,1822
1853,1841,1840
1842,1871,1867
1842,1861,1840
1888,1862,1826
1938,1863,1850
1861,1853,1838
1882,1861,1824
1861,1850,1818
1766,1870,1833
1791,1828,1841
1821,1755,1874
1850,1794,1888
1853,1834,1856
1799,1812,1814
1797,1813,1840
1872,1835,1847
1921,1883,1856
1891,1811,1843
1873,1814,1839
1774,1813,1822
1799,1845,1842
1872,1891,1861
1904,1877,1862
1845,1821,1839
1835,1860,1843
1840,1826,1833
1856,1770,1789
1837,1886,1857
1874,1857,1859
1872,1921,1863
1875,1847,1840
1869,1814,1851
1788,1798,1889
1781,1782,1869
1770,1797,1811
1837,1838,1806
1883,1825,1825
1842,1824,1840
1867,1858,1847
1884,1834,1840
1879,1852,1854
1877,1834,1835
1812,1834,1827
1859,1860,1840
1935,1877,1857
1901,1930,1872
1798,1821,1814
1808,1762,1804
1893,1863,1853
1910,1856,1853
1822,1754,1787
1752,1803,1829
1791,1873,1853
1835,1854,1854
1873,1920,1846
1857,1934,1843
1885,1812,1842
1968,1847,1893
1915,1792,1842
1754,1787,1839
1765,1810,1841
1830,1833,1838
1879,1848,1850
1925,1886,1856
1898,1897,1867
1803,1872,1861
1850,1785,1817
1922,1760,1811
1850,1858,1854
1780,1858,1873
1837,1862,1872
1906,1853,1845
1833,1881,1851
1782,1821,1859
1802,1843,1854
1827,1824,1829
1856,1831,1847
1850,1829,1835
1895,1862,1863
1904,1925,1844
1891,1827,1862
1842,1760,1820
1807,1786,1829
1821,1953,1864
1861,1861,1854
1841,1808,1840
1785,1785,1863
1829,1835,1868
1904,1824,1795
1886,1828,1808
1840,1871,1869
1844,1808,1865
1861,1811,1845
1853,1837,1854
1794,1857,1858
1811,1868,1856
1838,1781,1828
1861,1840,1856
1854,1930,1885
1840,1878,1861
1808,1809,1838
1822,1819,1840
1843,1808,1850
1855,1849,1839
1850,1872,1865
1841,1847,1829
1911,1823,1830
1872,1841,1840
1890,1872,1873
1871,1872,1850
1831,1793,1777
1817,1793,1843
1790,1749,1830
1780,1817,1845
1847,1875,1875
1853,1890,1877
1836,1893,1846
1808,1823,1825
1814,1843,1838
1826,1867,1846
1840,1782,1829
1863,1842,1856
1842,1866,1868
1838,1871,1856
1906,1918,1882
1881,1859,1840
1866,1822,1826
1881,1876,1842
1934,1920,1837
2013,1791,1798
1861,1755,1861
1728,1805,1871
1782,1807,1865
1859,1808,1827
1918,1872,1841
1867,1893,1847
1833,1853,1872
1858,1833,1845
1828,1808,1827
1835,1835,1842
1853,1871,1850
1895,1914,1853
1901,1925,1834
1891,1813,1837
1870,1776,1845
1835,1811,1861
1825,1803,1846
1840,1852,1819
1860,1786,1775
1837,1835,1870
1845,1872,1878
1793,1850,1825
1869,1881,1831
1893,1838,1861
1879,1840,1873
1856,1879,1843
1799,1829,1830
1808,1811,1835
1787,1822,1833
1857,1863,1866
1902,1872,1830
1904,1984,1817
1851,1797,1824
1828,1761,1847
1843,1765,1852
1851,1808,1821
1807,1825,1824
1838,1820,1821
1853,1840,1869
1843,1863,1854
1871,1867,1841
1846,1872,1867
1872,1840,1840
1849,1801,1814
1805,1808,1840
1838,1887,1859
1854,1867,1824
1904,1937,1826
1815,1827,1825
1789,1803,1847
1818,1869,1857
1873,1799,1840
1872,1828,1813
1872,1857,1854
1863,1798,1827
1783,1790,1805
1811,1815,1840
1858,1839,1855
1877,1841,1834
1834,1747,1776
1841,1821,1851
1808,1872,1859
1812,1882,1847
1813,1856,1831
1829,1839,1840
1846,1843,1841
1851,1916,1840
1814,1813,1808
1824,1811,1854
1846,1825,1872
1842,1825,1856
1826,1891,1836
1839,1873,1808
1889,1802,1809
1943,1798,1813
1856,1813,1858
1833,1824,1854
1844,1918,1867
1831,1840,1849
1767,1808,1812
1798,1852,1839
1855,1856,1840
1876,1825,1846
1874,1840,1846
1872,1843,1824
1885,1808,1836
1807,1840,1856
1778,1895,1850
1788,1912,1842
1842,1825,1856
1870,1856,1850
1856,1765,1762
1845,1835,1813
1818,1845,1894
1888,1857,1889
1920,1872,1861
1799,1841,1847
1804,1840,1856
1840,1821,1837
1893,1821,1820
1847,1834,1839
1815,1836,1840
1857,1862,1840
1833,1872,1837
1854,1859,1860
1852,1840,1878
1840,1854,1840
1839,1802,1769
1786,1819,1817
1811,1845,1872
1872,1828,1817
1862,1878,1808
1783,1811,1878
1795,1808,1898
1837,1815,1862
1825,1820,1832
1837,1835,1830
1838,1823,1840
1843,1841,1864
1915,1872,1859
1904,1819,1826
1806,1811,1818
1826,1858,1855
1845,1872,1871
1838,1841,1842
1856,1853,1844
1869,1842,1853
1865,1838,1835
1840,1851,1817
1791,1765,1811
1858,1833,1843
1936,1939,1885
1931,1890,1919
1774,1877,1887
1733,1856,1881
1795,1783,1823
1826,1810,1813
1855,1840,1867
1839,1844,1867
1833,1787,1840
1831,1810,1853
1840,1837,1865
1837,1840,1851
1903,1843,1853
1877,1829,1824
1819,1826,1813
1845,1893,1840
1846,1830,1849
1826,1814,1857
1873,1835,1870
1839,1909,1844
1796,1846,1841
1815,1799,1823
1853,1851,1851
1798,1870,1903
1793,1811,1837
1811,1808,1833
1825,1837,1840
1877,1879,1869
1879,1920,1872
1858,1792,1860
1840,1765,1814
1822,1796,1813
1840,1840,1840
1876,1859,1854
1917,1856,1836
1909,1904,1842
1800,1811,1812
1754,1808,1850
1807,1830,1867
1890,1875,1865
1872,1902,1831
1786,1784,1850
1799,1840,1902
1859,1875,1861
1922,1840,1830
1859,1812,1811
1815,1863,1835
1840,1829,1863
1851,1805,1856
1853,1838,1895
1807,1855,1850
1863,1731,1744
1899,1872,1840
1773,1808,1877
1809,1803,1869
1846,1851,1855
1827,1814,1836
1823,1820,1858
1894,1840,1865
1899,1948,1851
1905,1824,1853
1817,1739,1854
1799,1797,1870
1856,1861,1887
1814,1850,1845
1804,1847,1829
1820,1850,1824
1895,1849,1858
1817,1872,1847
1840,1779,1826
1863,1808,1855
1872,1851,1858
1845,1887,1866
1795,1856,1893
1872,1918,1831
1838,1838,1797
1865,1792,1808
1824,1799,1890
1802,1782,1882
1862,1822,1853
1858,1837,1843
1767,1829,1835
1817,1839,1839
1880,1791,1862
1829,1857,1873
1851,1856,1861
1936,1855,1818
1827,1868,1818
1766,1868,1882
1775,1840,1873
1845,1825,1866
1899,1875,1855
1867,1898,1825
1850,1840,1824
1807,1861,1826
1815,1770,1867
1808,1781,1873
1874,1823,1842
1861,1883,1843
1857,1845,1847
1803,1813,1831
1795,1810,1827
1830,1749,1808
1842,1755,1840
1842,1883,1892
1797,1920,1885
1855,1915,1854
1890,1904,1865
1862,1862,1848
1847,1846,1839
1852,1810,1840
1787,1831,1851
1798,1852,1867
1839,1857,1838
1879,1778,1824
1871,1776,1807
1814,1828,1873
1782,1830,1877
1808,1921,1857
1845,1835,1853
1854,1793,1838
1855,1807,1815
1831,1823,1851
1849,1856,1873
1872,1856,1863
1840,1841,1853
1808,1855,1858
1860,1842,1871
1859,1839,1862
1843,1819,1837
1830,1839,1844
1809,1873,1862
1825,1905,1840
1865,1795,1840
1809,1856,1855
1841,1807,1843
1820,1761,1831
1835,1841,1825
1855,1837,1872
1979,1840,1898
1841,1815,1867
1740,1758,1785
1790,1875,1844
1825,1788,1842
1841,1837,1857
1850,1845,1870
1843,1843,1872
1871,1894,1862
1873,1849,1849
1808,1824,1835
1791,1856,1860
1873,1886,1846
1934,1895,1845
1881,1843,1815
1747,1770,1840
1822,1826,1878
1847,1801,1829
1823,1814,1795
1847,1776,1822
1859,1830,1872
1803,1834,1894
1797,1835,1877
1831,1841,1857
1850,1823,1840
1872,1872,1872
1859,1793,1839
1819,1839,1823
1857,1857,1840
1841,1872,1893
1842,1877,1886
1847,1839,1853
1870,1901,1826
1900,1874,1827
1850,1840,1827
1811,1737,1846
1820,1762,1855
1859,1904,1866
1887,1805,1798
1824,1829,1833
1792,1883,1857
1801,1775,1835
1792,1763,1835
1840,1842,1877
1860,1861,1872
1789,1850,1854
1797,1843,1825
1898,1843,1853
1910,1856,1854
1863,1877,1852
1809,1858,1875
1801,1840,1856
1843,1856,1850
1883,1861,1838
1814,1733,1805
1801,1752,1808
1834,1790,1856
1859,1841,1876
1795,1857,1855
1849,1904,1853
1904,1886,1857
1869,1867,1847
1898,1808,1851
1867,1780,1808
1814,1808,1815
1841,1854,1809
1787,1823,1842
1770,1862,1853
1843,1815,1853
1841,1851,1823
1856,1769,1815
1845,1782,1877
1818,1815,1860
1805,1831,1838
