1735,1827,1869
1737,1840,1847
1787,1854,1852
1824,1862,1843
1813,1895,1867
1803,1885,1875
1808,1914,1882
1840,1871,1847
1801,1805,1828
1786,1858,1808
1806,1807,1769
1766,1909,1808
1757,1926,1871
1744,1722,1874
1748,1692,1831
1754,1795,1861
1746,1840,1856
1788,1834,1856
1830,1872,1884
1830,1857,1903
1767,1843,1840
1766,1863,1778
1808,1877,1790
1829,1883,1846
1814,1882,1869
1808,1856,1822
1823,1891,1795
1849,1828,1783
1834,1842,1840
1773,1909,1877
1795,1879,1840
1808,1892,1845
1776,1910,1843
1765,1925,1818
1777,1869,1797
1762,1714,1837
1763,1731,1856
1793,1789,1846
1842,1851,1857
1827,1885,1837
1804,1866,1812
1755,1836,1801
1757,1808,1786
1818,1861,1826
1878,1934,1872
1875,1936,1851
1858,1922,1846
1838,1891,1835
1829,1883,1834
1831,1892,1833
1853,1904,1831
1840,1883,1812
1805,1862,1837
1763,1813,1822
1740,1783,1783
1795,1837,1798
1760,1809,1795
1731,1778,1776
1913,1955,1872
2045,2093,1952
1947,2001,1911
1856,1936,1859
1856,1931,1829
1857,1909,1818
1837,1876,1845
1841,1883,1871
1845,1903,1851
1818,1872,1812
1791,1857,1839
1806,1856,1831
1819,1856,1809
1776,1810,1793
1742,1775,1781
1839,1886,1856
1922,1947,1884
1887,1895,1862
1803,1853,1821
1808,1863,1819
1861,1899,1820
1840,1872,1819
1744,1773,1777
1716,1728,1745
1902,1929,1841
1977,2011,1899
1906,1951,1872
1846,1895,1834
1846,1886,1847
1853,1866,1840
1832,1857,1820
1822,1877,1814
1852,1881,1820
1855,1858,1835
1850,1830,1840
1823,1872,1823
1840,1894,1817
1840,1872,1793
1831,1821,1775
1835,1840,1791
1852,1894,1827
1855,1891,1818
1839,1856,1808
1849,1840,1806
1891,1866,1849
1888,1863,1856
1843,1840,1808
1839,1833,1761
1871,1857,1794
1900,1870,1824
1879,1854,1837
1872,1850,1826
1885,1857,1808
1890,1860,1808
1872,1840,1811
1860,1841,1807
1889,1847,1794
1883,1831,1799
1856,1822,1799
1847,1808,1792
1819,1776,1771
1856,1811,1789
1968,1934,1861
1973,1930,1869
1917,1867,1808
1855,1795,1786
1879,1830,1818
1955,1888,1869
1965,1892,1872
1871,1829,1789
1791,1735,1731
1906,1847,1826
2015,1941,1887
1987,1909,1872
1919,1863,1843
1905,1854,1834
1920,1872,1827
1920,1855,1810
1893,1829,1808
1889,1821,1805
1915,1846,1815
1922,1851,1831
1899,1840,1820
1890,1839,1823
1929,1850,1822
1922,1842,1825
1897,1825,1824
1872,1824,1809
1904,1850,1821
1909,1844,1811
1897,1808,1814
1899,1830,1820
1923,1852,1804
1929,1823,1781
1905,1776,1783
1894,1794,1856
1904,1861,1861
1879,1845,1818
1873,1815,1815
1888,1812,1819
1915,1838,1812
1919,1839,1817
1904,1815,1826
1906,1813,1818
1946,1797,1807
1940,1787,1769
1899,1889,1831
1856,1827,1850
1887,1759,1802
1904,1747,1798
1874,1750,1798
1879,1766,1808
1906,1770,1811
1910,1791,1803
1893,1777,1808
1893,1799,1809
1913,1815,1813
1920,1813,1819
1901,1803,1822
1895,1804,1814
1920,1811,1816
1916,1811,1818
1898,1803,1825
1900,1802,1835
1913,1813,1818
1911,1815,1823
1886,1796,1826
1879,1779,1821
1893,1794,1807
1904,1809,1818
1917,1833,1840
1919,1845,1857
1937,1841,1854
1932,1825,1846
1903,1810,1843
1890,1814,1839
1926,1830,1842
1917,1821,1829
1888,1808,1821
1888,1806,1830
1917,1819,1841
1915,1826,1843
1891,1805,1840
1891,1806,1830
1925,1825,1839
1931,1808,1822
1899,1805,1824
1904,1773,1783
1930,1775,1842
1898,1840,1872
1885,1803,1765
1866,1766,1799
1861,1837,1872
1927,1857,1886
1904,1731,1803
1829,1735,1807
1859,1772,1820
1898,1798,1845
1899,1776,1824
1856,1805,1825
1874,1828,1835
1885,1821,1841
1874,1808,1840
1885,1830,1839
1910,1822,1851
1913,1820,1840
1903,1813,1840
1875,1802,1866
1877,1806,1825
1887,1805,1812
1872,1801,1831
1877,1811,1841
1900,1809,1823
1913,1792,1808
1875,1827,1866
1872,1833,1879
1904,1837,1866
1904,1823,1855
1900,1808,1863
1872,1885,1861
1893,1774,1802
1899,1808,1818
1893,1802,1861
1887,1830,1874
1871,1839,1853
1879,1818,1829
1874,1822,1850
1873,1833,1850
1877,1838,1840
1878,1808,1827
1808,1750,1808
1853,1799,1846
1941,1902,1883
1943,1904,1872
1892,1862,1851
1840,1814,1817
1795,1761,1808
1842,1754,1853
1929,1877,1895
1927,1910,1885
1907,1902,1851
1887,1872,1845
1858,1835,1845
1831,1808,1824
1872,1833,1838
1903,1868,1846
1839,1846,1850
1837,1821,1857
1879,1855,1865
1895,1886,1874
1856,1870,1861
1853,1853,1863
1853,1838,1857
1791,1778,1806
1778,1748,1799
1879,1872,1861
1959,1951,1909
1923,1904,1907
1835,1843,1854
1837,1857,1843
1855,1863,1841
1839,1851,1831
1819,1835,1831
1839,1850,1861
1886,1904,1897
1866,1841,1830
1816,1810,1803
1840,1843,1822
1874,1867,1862
1840,1840,1871
1808,1811,1859
1769,1808,1803
1785,1812,1838
1840,1820,1877
1814,1791,1829
1937,1953,1854
1984,1981,1866
1879,1878,1855
1767,1779,1853
1733,1735,1803
1858,1868,1808
1927,1937,1870
1871,1887,1872
1829,1844,1851
1835,1834,1809
1839,1826,1834
1824,1827,1867
1840,1873,1904
1910,1850,1915
1912,1819,1789
1775,1785,1744
1619,1680,1712
1682,1698,1730
1890,1922,1859
1941,1970,1905
1946,1991,1894
1906,1883,1860
1910,1848,1872
1886,1807,1815
1857,1815,1787
1833,1827,1809
1726,1783,1809
1712,1766,1810
1846,1776,1845
1861,1888,1865
1805,1863,1837
1871,1830,1829
1883,1796,1808
1803,1814,1840
1787,1840,1851
1749,1793,1835
1709,1712,1775
1822,1808,1791
1989,1881,1869
1899,1872,1857
1787,1815,1829
1792,1808,1855
1830,1865,1875
1808,1820,1843
1746,1739,1797
1825,1805,1809
1861,1831,1817
1839,1809,1851
1835,1773,1863
1882,1806,1854
1858,1838,1809
1845,1787,1791
1808,1831,1846
1803,1795,1867
1811,1792,1867
1810,1793,1822
1824,1806,1843
1837,1822,1840
1839,1787,1817
1824,1779,1837
1840,1776,1834
1883,1710,1770
1872,1824,1859
1821,1871,1906
1786,1818,1856
1825,1797,1822
1857,1808,1818
1831,1818,1850
1834,1832,1833
1857,1815,1824
1842,1809,1831
1817,1807,1855
1808,1795,1850
1843,1814,1861
1851,1831,1853
1802,1787,1837
1819,1776,1851
1854,1827,1871
1831,1829,1860
1792,1776,1834
1798,1791,1840
1830,1821,1856
1833,1808,1856
1807,1802,1843
1811,1825,1860
1837,1829,1867
1847,1808,1867
1791,1766,1838
1753,1731,1814
1761,1695,1814
1792,1731,1823
1840,1841,1870
1897,1918,1904
1915,1931,1903
1887,1863,1897
1810,1793,1854
1797,1805,1853
1825,1820,1849
1835,1836,1857
1825,1808,1874
1819,1785,1889
1835,1825,1859
1823,1821,1838
1809,1825,1856
1823,1839,1876
1837,1811,1856
1836,1805,1840
1779,1789,1844
1772,1805,1859
1834,1856,1873
1866,1830,1857
1835,1730,1833
1771,1789,1845
1769,1837,1869
1803,1839,1847
1822,1808,1855
1808,1801,1866
1818,1819,1857
1808,1809,1841
1779,1792,1857
1807,1804,1856
1838,1791,1823
1846,1839,1854
1808,1849,1873
1781,1808,1860
1815,1819,1852
1853,1813,1851
1830,1792,1865
1783,1764,1857
1792,1797,1839
1813,1800,1838
1807,1797,1854
1835,1839,1865
1840,1830,1855
1842,1834,1862
1819,1824,1869
1813,1813,1847
1812,1820,1847
1817,1813,1849
1798,1796,1857
1808,1807,1847
1861,1821,1857
1844,1830,1858
1776,1805,1845
1788,1781,1841
1841,1808,1842
1823,1822,1814
1802,1775,1814
1795,1777,1856
1819,1873,1878
1806,1888,1874
1781,1783,1823
1783,1715,1818
1823,1789,1876
1837,1883,1895
1803,1840,1872
1746,1799,1840
1783,1819,1821
1813,1814,1854
1825,1838,1879
1799,1808,1843
1825,1822,1851
1835,1817,1842
1776,1806,1840
1769,1806,1840
1806,1822,1846
1842,1840,1866
1828,1822,1853
1805,1807,1857
1811,1808,1799
1806,1824,1839
1773,1814,1859
1786,1773,1856
1838,1847,1893
1823,1868,1840
1776,1850,1835
1791,1846,1885
1819,1854,1891
1821,1843,1839
1811,1808,1815
1776,1794,1808
1802,1834,1847
1850,1827,1866
1786,1824,1847
1757,1820,1839
1833,1837,1843
1855,1854,1851
1791,1798,1833
1759,1747,1798
1808,1835,1854
1851,1856,1892
1790,1893,1872
1743,1856,1838
1747,1835,1887
1778,1783,1839
1783,1826,1842
1760,1847,1831
1772,1839,1859
1819,1840,1862
1791,1829,1833
1814,1858,1815
1821,1882,1826
1754,1795,1797
1745,1759,1835
1731,1817,1870
1776,1850,1851
1811,1840,1854
1746,1811,1846
1757,1825,1855
1791,1854,1857
1785,1867,1861
1758,1855,1843
1751,1838,1826
1755,1810,1831
1759,1813,1839
1744,1809,1809
1808,1899,1838
1822,1903,1866
1786,1845,1853
1761,1789,1821
1762,1807,1831
1797,1895,1875
1823,1909,1923
1776,1839,1874
1761,1808,1802
1802,1872,1841
1782,1811,1775
1733,1827,1817
1693,1841,1859
1759,1860,1861
1845,1901,1857
1822,1831,1826
1718,1785,1810
1713,1863,1867
1745,1835,1856
1762,1761,1822
1776,1823,1842
1758,1885,1867
1759,1865,1850
1786,1872,1872
1828,1859,1831
1761,1833,1857
1723,1798,1839
1731,1806,1835
1744,1827,1849
1787,1854,1868
1787,1829,1829
1751,1807,1829
1764,1840,1893
1831,1925,1979
1763,1841,1853
1714,1774,1759
1730,1792,1808
1777,1846,1847
1794,1858,1845
1792,1885,1847
1763,1825,1845
1766,1804,1825
1771,1803,1827
1749,1827,1871
1859,1946,1887
1783,1821,1819
1630,1712,1765
1631,1696,1774
1773,1811,1854
1839,1916,1887
1797,1899,1879
1712,1813,1846
1659,1755,1834
1761,1825,1840
1857,1907,1867
1811,1906,1872
1772,1874,1874
1767,1863,1898
1744,1839,1852
1776,1909,1839
1791,1879,1836
1728,1777,1817
1651,1740,1813
1611,1674,1776
1733,1797,1838
1861,1947,1926
1790,1898,1970
1573,1618,1779
1664,1717,1715
1936,2005,1893
1966,2014,1957
1871,1904,1954
1730,1862,1867
1758,1913,1813
1744,1833,1810
1712,1776,1829
1701,1769,1847
1736,1810,1840
1786,1855,1857
1744,1808,1847
1783,1833,1957
1775,1825,1953
1727,1691,1715
1794,1904,1780
1762,1906,1921
1815,1808,2059
1593,1627,1765
1605,1747,1706
1749,1885,1827
1787,1872,1879
1742,1802,1877
1719,1795,1840
1772,1877,1870
1807,1879,1872
1778,1831,1872
1685,1728,1833
1648,1761,1797
1744,1861,1856
1793,1904,1873
1730,1805,1837
1699,1759,1889
1747,1813,1870
1779,1826,1824
1765,1868,1853
1713,1820,1859
1648,1712,1818
1670,1712,1818
1734,1796,1843
1703,1782,1847
1719,1755,1826
1791,1842,1872
1792,1862,1890
1744,1831,1830
1833,1873,1863
1901,1917,1936
1731,1840,1873
1642,1776,1815
1651,1744,1808
1759,1827,1846
1782,1872,1875
1755,1785,1882
1744,1767,1869
1751,1777,1819
1782,1901,1893
1776,1806,1919
1650,1759,1835
1625,1730,1779
1751,1775,1874
1840,1900,1936
1762,1919,1859
1683,1808,1758
1729,1724,1841
1809,1860,1939
1814,1873,1920
1795,1874,1877
1749,1765,1857
1807,1807,1889
1789,1885,1907
1665,1818,1814
1659,1773,1808
1679,1814,1824
1725,1831,1858
1751,1811,1855
1755,1809,1862
1775,1827,1894
1791,1845,1882
1763,1810,1834
1682,1722,1814
1699,1780,1887
1744,1823,1875
1749,1851,1840
1831,1900,1915
1919,1901,1938
1881,1872,1895
1778,1822,1886
1771,1872,1889
1749,1808,1849
1719,1797,1871
1705,1810,1872
1712,1802,1862
1746,1838,1872
1769,1835,1858
1743,1785,1837
1750,1795,1845
1773,1837,1866
1808,1853,1872
1825,1840,1869
1777,1803,1877
1744,1808,1878
1769,1821,1869
1787,1819,1825
1776,1802,1834
1763,1783,1850
1774,1788,1840
1786,1815,1851
1786,1810,1855
1775,1811,1840
1776,1809,1837
1808,1767,1838
1785,1783,1840
1796,1823,1870
1815,1840,1869
1782,1833,1851
1791,1814,1862
1803,1815,1855
1797,1833,1878
1770,1819,1855
1666,1718,1779
1631,1631,1744
1830,1842,1872
1964,1969,1962
1871,1900,1919
1791,1831,1859
1769,1811,1850
1783,1819,1842
1779,1805,1835
1779,1806,1853
1805,1845,1859
1818,1823,1843
1788,1799,1838
1761,1772,1830
1766,1775,1837
1810,1810,1843
1839,1835,1867
1842,1854,1867
1823,1812,1857
1807,1811,1840
1779,1797,1819
1787,1813,1835
1819,1824,1838
1837,1823,1839
1825,1803,1840
1810,1818,1857
1799,1792,1847
1794,1796,1827
1789,1793,1826
1779,1789,1830
1821,1817,1850
1854,1824,1856
1822,1824,1854
1789,1787,1829
1812,1769,1815
1836,1797,1838
1809,1823,1843
1809,1823,1843
1856,1854,1843
1855,1834,1852
1815,1747,1823
1794,1789,1830
1813,1843,1829
1857,1886,1847
1849,1841,1841
1808,1789,1843
1843,1803,1836
1863,1831,1827
1808,1801,1833
1806,1794,1859
1837,1779,1839
1841,1807,1817
1826,1821,1838
1824,1822,1856
1851,1840,1857
1860,1841,1840
1839,1807,1823
1829,1808,1831
1846,1835,1824
1869,1808,1837
1862,1808,1850
1842,1767,1842
1862,1830,1849
1865,1866,1830
1825,1810,1810
1830,1798,1824
1877,1792,1820
1919,1798,1809
1858,1829,1851
1857,1797,1874
1878,1817,1867
1855,1831,1822
1826,1831,1815
1838,1821,1835
1890,1868,1851
1889,1840,1840
1853,1722,1773
1856,1806,1832
1856,1872,1863
1866,1841,1866
1893,1831,1846
1861,1814,1861
1862,1837,1843
1913,1853,1837
1901,1866,1830
1841,1827,1827
1850,1819,1821
1872,1824,1838
1861,1811,1841
1858,1826,1866
1881,1814,1853
1907,1823,1802
1873,1826,1826
1849,1835,1837
1872,1849,1849
1882,1828,1827
1875,1819,1821
1899,1842,1843
1896,1839,1847
1882,1811,1847
1889,1810,1853
1885,1825,1857
1900,1843,1836
1894,1845,1826
1874,1837,1840
1869,1831,1857
1919,1862,1847
1893,1842,1821
1842,1809,1828
1861,1824,1847
1885,1847,1849
1872,1815,1813
1860,1811,1827
1901,1856,1874
1920,1891,1873
1869,1807,1802
1849,1783,1808
1853,1845,1865
1890,1885,1875
1910,1845,1857
1887,1795,1835
1872,1797,1823
1879,1825,1836
1873,1843,1839
1903,1853,1841
1941,1856,1870
1895,1872,1851
1867,1868,1846
1866,1808,1825
1853,1799,1823
1858,1840,1844
1874,1838,1835
1876,1835,1831
1873,1835,1837
1886,1841,1840
1904,1827,1840
1897,1819,1853
1866,1862,1859
1872,1838,1814
1891,1807,1843
1886,1813,1879
1863,1915,1892
1941,1828,1830
1909,1807,1837
1834,1808,1843
1808,1830,1850
1813,1808,1839
1862,1793,1834
1912,1761,1813
1886,1808,1838
1853,1859,1859
1871,1861,1862
1857,1861,1856
1850,1819,1844
1867,1823,1850
1900,1840,1861
1920,1808,1847
1937,1828,1844
1862,1857,1854
1806,1868,1840
1822,1856,1825
1859,1840,1842
1926,1872,1879
1890,1815,1852
1837,1833,1828
1820,1849,1840
1849,1856,1842
1886,1859,1846
1866,1851,1851
1861,1849,1855
1879,1863,1851
1903,1876,1847
1890,1840,1856
1891,1837,1840
1899,1761,1771
1872,1892,1878
1853,1886,1883
1830,1827,1871
1843,1844,1845
1872,1843,1839
1874,1843,1847
1870,1791,1850
1872,1824,1841
1894,1888,1849
1870,1806,1817
1861,1794,1828
1858,1918,1871
1894,1911,1911
1877,1840,1874
1863,1814,1854
1889,1835,1857
1886,1861,1851
1874,1842,1853
1903,1846,1839
1916,1815,1832
1904,1809,1824
1872,1853,1828
1861,1927,1914
1883,1853,1887
1888,1824,1888
1879,1820,1875
1881,1841,1850
1889,1847,1851
1905,1898,1872
1904,1830,1879
1961,1813,1815
1897,1738,1761
1851,1820,1883
1835,1858,1919
1886,1904,1915
1903,1845,1855
1882,1856,1841
1897,1840,1866
1927,1879,1904
1901,1855,1846
1883,1840,1851
1867,1841,1857
1878,1850,1858
1903,1866,1849
1921,1835,1855
1915,1870,1891
1903,1839,1831
1910,1875,1843
1904,1919,1883
1903,1845,1840
1909,1909,1856
1883,1919,1840
1915,1909,1846
1937,1921,1809
1840,1775,1822
1841,1837,1859
1886,1853,1856
1887,1881,1886
1887,1818,1854
1905,1798,1811
1955,1833,1830
2064,1921,1915
1893,1926,1888
1758,1856,1827
1822,1872,1825
1887,1872,1872
1910,1857,1855
1859,1840,1813
1887,1871,1834
1894,1883,1847
1894,1885,1837
1936,1808,1779
1842,1801,1859
1811,1845,1843
1827,1808,1858
1917,1844,1870
1966,1833,1825
1853,1889,1819
1808,1902,1865
1872,1894,1851
1940,1904,1840
1906,1898,1815
1897,1837,1834
1850,1839,1823
1863,1865,1829
1841,1904,1850
1849,1898,1867
1906,1920,1838
1875,1851,1744
1872,1873,1813
1875,1843,1869
1872,1870,1855
1871,1803,1805
1827,1854,1828
1847,1856,1855
1879,1813,1813
1887,1862,1804
1906,1945,1874
1890,1883,1918
1847,1866,1842
1850,1886,1795
2000,1882,1838
1975,1888,1861
1841,1882,1814
1797,1936,1790
1781,1890,1806
1767,1826,1830
1814,1865,1801
1883,1808,1815
1871,1808,1805
1830,1893,1837
1855,1883,1840
1887,1828,1845
1856,1898,1867
1823,1840,1817
1811,1898,1795
1839,1889,1823
1863,1870,1854
1849,1873,1847
1872,1878,1843
1883,1902,1825
1840,1834,1775
1817,1876,1819
1861,1856,1859
1888,1902,1868
1852,1867,1841
1831,1845,1818
1827,1825,1839
1833,1785,1829
1809,1801,1803
1821,1829,1840
1851,1855,1826
1852,1871,1840
1850,1889,1833
1831,1893,1829
1829,1897,1855
1855,1912,1865
1826,1825,1835
1808,1808,1844
1831,1849,1851
1860,1873,1798
1899,1863,1833
1863,1870,1867
1840,1904,1867
1856,1838,1826
1872,1825,1788
1856,1856,1828
1880,1875,1873
1904,1887,1856
1861,1780,1769
1782,1840,1814
1813,1969,1866
1904,1927,1888
1888,1797,1838
1790,1799,1834
1811,1796,1863
1856,1840,1853
1857,1853,1851
1854,1889,1831
1846,1857,1846
1874,1808,1863
1879,1842,1855
1843,1840,1851
1849,1840,1841
1904,1855,1853
1859,1874,1809
1842,1767,1777
1849,1839,1875
1885,1862,1907
1847,1856,1851
1840,1843,1863
1841,1843,1865
1852,1870,1855
1851,1841,1837
1832,1822,1831
1875,1833,1879
1917,1860,1875
1877,1862,1840
1839,1791,1786
1827,1818,1808
1872,1822,1847
1904,1824,1841
1856,1873,1887
1827,1873,1890
1841,1819,1876
1845,1791,1838
1867,1766,1840
1902,1856,1889
1858,1872,1856
1833,1872,1837
1840,1834,1871
1902,1849,1872
1863,1853,1838
1858,1838,1831
1850,1853,1871
1872,1775,1824
1873,1831,1837
1847,1840,1867
1856,1807,1857
1895,1807,1878
1821,1858,1856
1821,1808,1871
1853,1798,1869
1845,1856,1839
1840,1863,1835
1850,1823,1856
1881,1791,1825
1889,1835,1827
1871,1856,1863
1838,1827,1885
1821,1814,1849
1831,1806,1810
1872,1850,1854
1867,1868,1861
1849,1817,1840
1808,1763,1870
1837,1806,1874
1842,1825,1840
1835,1802,1835
1878,1742,1783
1905,1780,1862
1847,1872,1882
1834,1885,1882
1842,1872,1843
1856,1858,1840
1840,1869,1837
1843,1789,1858
1887,1809,1893
1840,1846,1833
1814,1840,1840
1818,1807,1850
1862,1823,1855
1926,1894,1856
1852,1825,1859
1797,1805,1847
1855,1844,1843
1865,1805,1811
1856,1795,1834
1824,1819,1862
1840,1906,1926
1904,1841,1920
1846,1830,1850
1808,1846,1828
1818,1834,1844
1865,1847,1883
1923,1817,1882
1874,1808,1898
1853,1871,1921
1850,1872,1920
1856,1827,1945
1851,1810,1941
1791,1845,1899
1831,1808,1845
1840,1801,1904
1807,1808,1989
1840,1847,1997
1893,1823,1938
1872,1798,1931
1834,1851,2026
1840,1853,1995
1851,1855,1943
1844,1840,1950
1853,1859,2021
1859,1842,1990
1851,1793,1923
1840,1776,1936
1904,1734,1936
1855,1777,1936
1817,1852,1989
1827,1853,2015
1840,1808,2005
1878,1850,1982
1849,1856,1984
1840,1859,1991
1818,1825,1968
1829,1817,1930
1863,1827,1971
1862,1801,2013
1821,1852,2029
1835,1919,1984
1857,1789,1883
1879,1835,1963
1813,1833,1991
1844,1847,1962
1876,1829,1936
1840,1809,1961
1833,1799,1981
1865,1835,1981
1874,1840,1964
1869,1746,1904
1813,1771,1910
1814,1881,1957
1857,1894,1968
1846,1861,1936
1825,1879,1969
1858,1829,1947
1859,1781,1913
1815,1847,1986
1805,1840,1973
1850,1835,1936
1883,1871,1924
1846,1789,1878
1833,1811,1932
1875,1808,1941
1917,1776,1915
1832,1824,1920
1792,1859,1934
1807,1831,1914
1846,1791,1843
1822,1762,1862
1812,1845,1991
1850,1874,1966
1858,1872,1915
1904,1867,1958
1840,1773,1931
1811,1803,1855
1813,1808,1874
1821,1834,1933
1856,1849,1986
1905,1822,1905
1850,1851,1835
1829,1783,1806
1858,1849,1894
1863,1885,1920
1831,1903,1936
1840,1872,1949
1853,1846,1901
1867,1840,1846
1853,1808,1883
1821,1802,1925
1817,1826,1881
1817,1840,1854
1862,1840,1886
1876,1871,1916
1872,1897,1936
1851,1812,1854
1846,1763,1825
1822,1840,1888
1793,1833,1904
1856,1855,1879
1872,1837,1836
1850,1826,1882
1808,1835,1891
1838,1893,1936
1873,1893,1918
1853,1851,1845
1822,1776,1831
1828,1721,1778
1831,1822,1872
1821,1906,1907
1861,1914,1911
1868,1873,1883
1831,1881,1850
1855,1891,1825
1835,1840,1842
1849,1786,1866
1874,1761,1846
1821,1819,1864
1808,1840,1841
1825,1876,1858
1858,1913,1907
1841,1838,1873
1856,1727,1785
1867,1829,1872
1903,1857,1878
1809,1870,1872
1787,1882,1865
1813,1839,1874
1854,1841,1869
1859,1849,1856
1837,1846,1827
1862,1767,1800
1859,1846,1842
1899,1875,1859
1893,1819,1843
1838,1818,1829
1805,1873,1841
1781,1851,1862
1814,1823,1821
1863,1794,1846
1910,1820,1839
1847,1851,1840
1763,1833,1856
1809,1837,1876
1872,1889,1858
1879,1884,1826
1865,1859,1865
1854,1882,1840
1865,1822,1808
1826,1780,1823
1815,1799,1828
1883,1813,1854
1871,1803,1815
1829,1791,1792
1836,1809,1812
1899,1868,1866
1886,1887,1883
1814,1871,1839
1809,1845,1850
1861,1825,1873
1898,1873,1863
1889,1852,1852
1842,1779,1840
1818,1783,1801
1855,1883,1808
1847,1823,1791
1837,1834,1814
1843,1814,1830
1907,1791,1817
1904,1723,1822
1813,1823,1861
1814,1894,1850
1887,1879,1867
1858,1872,1872
1863,1776,1810
1854,1808,1797
1840,1850,1817
1824,1846,1839
1831,1839,1882
1854,1834,1893
1854,1840,1795
1858,1833,1779
1862,1782,1775
1849,1815,1839
1876,1888,1852
1878,1797,1831
1856,1748,1842
1872,1840,1851
1846,1879,1851
1834,1868,1888
1870,1837,1879
1864,1819,1798
1845,1809,1780
1861,1846,1803
1854,1826,1804
1840,1831,1808
1819,1850,1853
1855,1857,1846
1867,1825,1803
1902,1785,1797
1857,1824,1854
1808,1853,1846
1789,1762,1821
1809,1790,1793
1863,1856,1808
1881,1851,1859
1858,1831,1871
1886,1858,1873
1858,1847,1847
1839,1855,1808
1822,1823,1814
1882,1842,1818
1894,1856,1838
1889,1872,1830
1826,1776,1782
1811,1838,1808
1834,1853,1831
1867,1814,1829
1854,1814,1843
1840,1767,1763
1866,1719,1787
1810,1811,1856
1797,1861,1856
1825,1841,1851
1865,1855,1860
1869,1841,1840
1837,1830,1792
1861,1833,1779
1872,1848,1801
1857,1801,1802
1874,1808,1841
1843,1872,1857
1839,1840,1807
1849,1833,1805
1833,1783,1808
1823,1712,1814
1855,1772,1786
1862,1865,1825
1838,1839,1834
1872,1846,1846
1879,1855,1846
1859,1783,1817
1808,1808,1819
1830,1837,1824
1847,1856,1798
1851,1797,1798
1843,1792,1817
1834,1825,1825
1846,1857,1823
1863,1833,1821
1850,1820,1856
1840,1840,1853
1878,1786,1807
1866,1804,1783
1793,1805,1811
1822,1808,1818
1869,1856,1827
1847,1904,1866
1906,1810,1840
1857,1781,1850
1787,1808,1795
1798,1765,1758
1834,1821,1882
1870,1885,1850
1882,1831,1776
1835,1808,1825
1800,1815,1870
1830,1817,1838
1871,1811,1792
1828,1866,1807
1806,1913,1823
1819,1846,1839
1850,1840,1871
1859,1813,1834
1815,1815,1823
1870,1907,1835
1887,1905,1827
1821,1755,1776
1811,1725,1841
1843,1856,1902
1866,1872,1853
1846,1841,1815
1841,1858,1793
1847,1818,1792
1840,1867,1850
1854,1815,1840
1859,1857,1822
1835,1808,1808
1885,1838,1812
1840,1830,1825
1755,1835,1850
1806,1808,1817
1870,1852,1806
1842,1876,1849
1821,1863,1860
1799,1874,1872
1829,1815,1825
1835,1793,1808
1851,1828,1841
1853,1809,1811
1847,1808,1808
1827,1825,1822
1845,1839,1878
1845,1866,1866
1909,1878,1777
1863,1791,1776
1807,1877,1870
1795,1840,1871
1807,1850,1850
1875,1810,1813
1857,1787,1835
1817,1815,1876
1862,1883,1866
1842,1831,1808
1799,1841,1807
1801,1845,1827
1867,1791,1815
1863,1822,1806
1841,1842,1856
1831,1843,1843
1853,1829,1791
1871,1840,1841
1840,1824,1890
1795,1818,1810
1832,1827,1810
1858,1854,1855
1875,1794,1876
1855,1799,1827
1855,1849,1814
1843,1808,1839
1845,1839,1859
1851,1801,1792
1840,1815,1798
1831,1878,1855
1799,1755,1823
1824,1820,1856
1855,1870,1851
1840,1816,1829
1803,1790,1827
1837,1829,1841
1869,1855,1865
1885,1856,1867
1850,1834,1814
1823,1789,1808
1857,1852,1865
1901,1855,1843
1842,1831,1802
1804,1842,1808
1841,1766,1841
1872,1844,1855
1801,1856,1851
1799,1856,1821
1830,1781,1805
1853,1786,1841
1791,1787,1843
1818,1808,1863
1871,1842,1854
1860,1831,1850
1875,1827,1846
1841,1833,1829
1826,1859,1825
1834,1815,1865
1837,1810,1859
1839,1827,1840
1889,1818,1814
1886,1861,1840
1856,1812,1855
1910,1799,1845
1861,1904,1856
1771,1871,1839
1744,1808,1851
1794,1808,1858
1858,1858,1863
1870,1808,1853
1823,1826,1841
1834,1776,1840
1858,1760,1818
1853,1822,1825
1880,1826,1872
1846,1845,1870
1819,1808,1843
1827,1823,1861
1837,1843,1840
1860,1767,1777
1845,1824,1824
1830,1857,1851
1825,1834,1872
1839,1897,1893
1879,1911,1872
1840,1841,1849
1840,1810,1850
1869,1813,1857
1882,1854,1881
1857,1856,1853
1820,1792,1841
1808,1814,1840
1858,1828,1849
1851,1824,1840
1829,1774,1805
1839,1836,1829
1854,1829,1869
1861,1808,1829
1822,1776,1840
1829,1859,1872
1869,1890,1861
1898,1825,1853
1808,1789,1858
1802,1815,1858
1840,1867,1830
1825,1867,1826
1794,1789,1855
1835,1803,1877
1893,1798,1863
1856,1813,1856
1819,1810,1841
1847,1841,1833
1852,1814,1835
1853,1856,1856
1850,1894,1856
1851,1799,1854
1904,1823,1856
1834,1821,1799
1813,1808,1840
1785,1830,1865
1872,1850,1865
1874,1783,1843
1813,1823,1872
1791,1852,1850
1824,1866,1819
1891,1791,1797
1839,1819,1857
1811,1895,1878
1837,1839,1886
1872,1795,1840
1829,1801,1827
1843,1840,1849
1872,1840,1851
1872,1826,1847
1823,1816,1853
1805,1844,1860
1840,1866,1851
1904,1805,1867
1849,1807,1847
1827,1840,1838
1829,1840,1842
1869,1793,1808
1795,1839,1859
1815,1872,1877
1858,1858,1847
1873,1827,1842
1872,1834,1863
1835,1862,1839
1860,1869,1862
1862,1872,1858
1831,1856,1834
1808,1840,1863
1872,1915,1861
1865,1830,1840
1835,1808,1842
1855,1824,1857
1886,1923,1834
1907,1776,1794
1855,1822,1878
1792,1846,1906
1826,1828,1837
1856,1840,1818
1829,1812,1840
1823,1825,1866
1850,1792,1811
1870,1900,1879
1828,1881,1886
1807,1851,1834
1845,1859,1845
1856,1851,1831
1834,1853,1836
1855,1854,1864
1893,1815,1845
1870,1857,1819
1799,1831,1850
1777,1781,1858
1858,1808,1879
1861,1808,1857
1814,1847,1831
1823,1842,1831
1883,1808,1834
1851,1849,1831
1856,1869,1858
1834,1872,1854
1811,1869,1878
1821,1841,1839
