1827,1854,1869
1851,1861,1854
1855,1872,1861
1841,1893,1859
1842,1863,1847
1847,1853,1837
1808,1824,1856
1822,1856,1848
1827,1766,1799
1817,1808,1847
1810,1852,1883
1839,1914,1871
1836,1793,1840
1827,1808,1857
1814,1841,1869
1819,1901,1887
1831,1823,1865
1830,1808,1840
1842,1823,1835
1846,1825,1849
1831,1891,1856
1842,1857,1853
1840,1850,1846
1851,1843,1833
1851,1871,1838
1839,1847,1850
1812,1775,1847
1822,1743,1823
1813,1883,1879
1834,1893,1875
1846,1776,1859
1807,1793,1861
1833,1840,1840
1857,1836,1825
1829,1811,1845
1815,1856,1872
1833,1869,1869
1849,1872,1861
1855,1871,1851
1842,1866,1854
1854,1856,1843
1861,1900,1849
1850,1849,1857
1856,1857,1873
1871,1882,1853
1873,1939,1846
1821,1776,1835
1825,1733,1810
1840,1809,1841
1843,1810,1872
1831,1776,1846
1824,1794,1831
1825,1827,1872
1835,1846,1879
1829,1845,1856
1825,1850,1851
1859,1883,1856
1857,1841,1859
1839,1817,1842
1851,1807,1836
1853,1872,1859
1872,1886,1863
1872,1854,1853
1841,1867,1861
1879,1969,1853
1871,1887,1831
1827,1769,1821
1809,1734,1838
1819,1797,1881
1839,1890,1870
1856,1899,1856
1857,1823,1845
1825,1744,1847
1820,1814,1838
1840,1807,1843
1846,1818,1860
1837,1851,1862
1853,1857,1858
1853,1850,1855
1879,1847,1856
1867,1861,1854
1861,1884,1860
1843,1849,1863
1856,1843,1856
1877,1833,1824
1872,1894,1859
1854,1901,1839
1886,1855,1814
1845,1866,1867
1818,1805,1881
1840,1791,1863
1831,1801,1857
1842,1797,1853
1815,1840,1860
1823,1844,1856
1834,1859,1865
1840,1813,1838
1846,1823,1841
1839,1847,1850
1840,1857,1855
1859,1872,1842
1895,1922,1841
1860,1869,1846
1825,1830,1859
1846,1846,1860
1865,1878,1856
1840,1826,1822
1839,1838,1845
1869,1879,1835
1877,1838,1826
1826,1822,1881
1808,1850,1889
1865,1853,1831
1886,1871,1854
1851,1872,1865
1842,1858,1869
1835,1791,1838
1823,1774,1842
1815,1806,1853
1835,1834,1852
1825,1851,1849
1866,1890,1846
1854,1838,1837
1845,1851,1851
1876,1858,1853
1867,1843,1844
1865,1843,1849
1871,1857,1826
1843,1811,1813
1825,1828,1862
1839,1883,1892
1841,1835,1861
1858,1845,1839
1855,1862,1847
1872,1810,1849
1840,1805,1853
1827,1829,1852
1875,1838,1837
1839,1779,1839
1807,1846,1872
1844,1894,1866
1862,1859,1846
1840,1875,1839
1829,1852,1851
1847,1856,1858
1883,1840,1863
1863,1798,1836
1872,1806,1799
1834,1920,1872
1818,1911,1871
1827,1840,1872
1831,1803,1859
1843,1813,1856
1857,1840,1857
1871,1875,1842
1867,1808,1831
1850,1840,1851
1857,1898,1869
1855,1841,1856
1854,1838,1845
1869,1847,1846
1889,1810,1849
1858,1795,1851
1840,1810,1815
1822,1801,1830
1840,1814,1818
1851,1858,1847
1840,1904,1885
1861,1909,1886
1870,1904,1856
1841,1847,1839
1843,1826,1849
1860,1852,1856
1872,1900,1840
1870,1875,1840
1869,1889,1840
1853,1817,1840
1848,1776,1851
1856,1831,1858
1834,1802,1865
1808,1793,1852
1825,1844,1850
1854,1870,1850
1850,1794,1826
1851,1776,1824
1869,1797,1843
1821,1874,1889
1813,1908,1871
1824,1866,1847
1851,1876,1833
1850,1851,1858
1845,1858,1869
1847,1840,1861
1854,1840,1840
1841,1842,1838
1855,1809,1808
1853,1891,1859
1859,1913,1863
1856,1901,1843
1856,1863,1834
1822,1781,1861
1825,1800,1862
1823,1814,1850
1835,1771,1811
1835,1866,1846
1843,1872,1841
1845,1870,1849
1812,1811,1875
1837,1863,1866
1858,1874,1847
1825,1840,1858
1803,1822,1857
1833,1811,1853
1853,1845,1855
1846,1866,1853
1824,1854,1872
1829,1882,1857
1843,1840,1837
1838,1835,1846
1833,1841,1845
1850,1892,1842
1863,1843,1822
1823,1824,1857
1818,1839,1846
1843,1807,1808
1835,1799,1860
1823,1811,1859
1847,1809,1827
1849,1806,1857
1856,1918,1872
1824,1893,1866
1851,1877,1868
1819,1840,1853
1843,1821,1847
1854,1808,1859
1841,1838,1851
1829,1856,1857
1824,1833,1856
1808,1823,1857
1840,1849,1872
1856,1872,1843
1845,1846,1845
1828,1861,1867
1835,1886,1886
1870,1861,1862
1841,1862,1850
1819,1824,1855
1837,1879,1857
1853,1846,1808
1855,1826,1827
1809,1863,1875
1808,1822,1889
1855,1756,1835
1849,1834,1865
1810,1822,1857
1803,1813,1872
1815,1846,1860
1858,1863,1850
1840,1841,1843
1812,1856,1856
1841,1856,1860
1842,1879,1861
1829,1846,1828
1829,1830,1873
1840,1867,1891
1853,1865,1879
1863,1907,1854
1855,1870,1849
1833,1808,1814
1804,1808,1867
1807,1819,1879
1810,1828,1871
1870,1936,1835
1872,1865,1825
1798,1731,1873
1783,1757,1872
1813,1793,1855
1849,1820,1847
1856,1835,1855
1840,1823,1857
1858,1840,1842
1845,1857,1866
1826,1866,1872
1825,1871,1863
1839,1872,1851
1861,1877,1851
1884,1857,1829
1856,1835,1855
1817,1811,1830
1814,1817,1871
1806,1853,1885
1814,1879,1881
1862,1874,1856
1841,1758,1829
1831,1850,1859
1820,1850,1871
1818,1844,1859
1835,1803,1841
1835,1820,1843
1808,1856,1867
1823,1840,1859
1842,1830,1853
1840,1832,1850
1835,1820,1860
1823,1853,1856
1826,1851,1845
1836,1829,1841
1840,1829,1851
1843,1885,1858
1863,1904,1837
1851,1759,1824
1802,1799,1870
1801,1824,1872
1827,1828,1861
1814,1841,1851
1834,1827,1824
1835,1798,1845
1837,1829,1878
1818,1808,1859
1817,1841,1859
1835,1926,1874
1837,1917,1863
1801,1790,1856
1808,1808,1857
1858,1885,1862
1835,1814,1853
1811,1804,1847
1817,1851,1859
1833,1849,1867
1845,1840,1856
1831,1808,1836
1845,1830,1814
1840,1859,1872
1831,1856,1872
1827,1884,1855
1859,1867,1852
1855,1776,1822
1807,1765,1843
1785,1781,1871
1789,1814,1870
1838,1840,1854
1872,1836,1840
1828,1855,1851
1798,1851,1856
1807,1862,1853
1835,1862,1852
1847,1873,1855
1843,1858,1856
1819,1835,1869
1825,1846,1851
1852,1823,1820
1833,1854,1854
1844,1886,1863
1829,1797,1857
1822,1842,1869
1840,1835,1847
1871,1776,1810
1828,1810,1856
1817,1838,1859
1815,1889,1861
1829,1846,1862
1842,1845,1857
1813,1865,1856
1793,1758,1837
1812,1835,1845
1851,1838,1859
1829,1808,1867
1819,1848,1865
1827,1863,1845
1835,1843,1841
1834,1850,1845
1827,1846,1840
1840,1869,1842
1854,1822,1812
1850,1891,1843
1824,1895,1877
1843,1814,1831
1865,1764,1797
1823,1820,1878
1807,1859,1898
1863,1950,1884
1867,1873,1871
1810,1788,1845
1806,1766,1843
1799,1799,1850
1835,1840,1839
1823,1796,1840
1838,1824,1855
1817,1867,1861
1810,1872,1847
1817,1876,1858
1821,1861,1851
1840,1891,1867
1829,1822,1872
1827,1831,1859
1835,1837,1854
1853,1778,1793
1841,1942,1863
1818,1890,1914
1817,1854,1885
1840,1867,1851
1858,1815,1837
1847,1813,1857
1839,1841,1856
1812,1895,1840
1827,1852,1845
1824,1813,1870
1813,1732,1817
1840,1742,1814
1823,1843,1885
1834,1884,1878
1818,1838,1860
1814,1835,1845
1856,1855,1819
1853,1822,1808
1810,1847,1865
1805,1851,1881
1829,1853,1867
1831,1897,1847
1821,1893,1851
1819,1802,1851
1839,1799,1847
1856,1834,1854
1846,1871,1860
1871,1904,1861
1825,1776,1843
1785,1790,1855
1790,1822,1857
1823,1872,1840
1841,1835,1867
1840,1840,1875
1840,1799,1833
1851,1814,1808
1845,1859,1840
1838,1828,1840
1856,1872,1857
1822,1868,1877
1831,1873,1879
1826,1845,1863
1807,1829,1858
1840,1897,1861
1861,1818,1847
1823,1780,1863
1793,1806,1857
1815,1859,1865
1839,1872,1840
1841,1905,1833
1829,1808,1856
1837,1798,1856
1846,1808,1847
1829,1835,1829
1826,1831,1826
1840,1867,1840
1843,1809,1863
1840,1799,1858
1839,1828,1854
1850,1808,1805
1837,1882,1870
1823,1915,1881
1825,1847,1865
1851,1823,1827
1834,1834,1866
1839,1818,1853
1811,1879,1867
1813,1883,1853
1835,1737,1797
1823,1805,1842
1815,1846,1856
1823,1811,1855
1825,1814,1840
1847,1808,1834
1855,1874,1854
1829,1846,1862
1803,1812,1859
1808,1824,1853
1822,1833,1850
1861,1821,1802
1854,1871,1844
1814,1878,1861
1797,1858,1861
1821,1855,1861
1854,1887,1853
1822,1857,1840
1807,1827,1858
1824,1858,1859
1851,1853,1840
1872,1839,1825
1808,1867,1867
1823,1805,1831
1811,1766,1840
1779,1779,1858
1796,1808,1867
1826,1839,1861
1856,1851,1843
1847,1849,1842
1824,1840,1850
1822,1861,1849
1834,1869,1860
1842,1835,1808
1840,1869,1847
1850,1904,1844
1860,1873,1823
1813,1826,1862
1795,1793,1870
1811,1808,1869
1831,1840,1858
1834,1857,1850
1847,1853,1827
1826,1820,1815
1807,1821,1863
1819,1808,1872
1806,1830,1871
1831,1883,1857
1853,1872,1854
1825,1815,1855
1835,1805,1803
1817,1828,1847
1818,1856,1873
1828,1858,1872
1852,1872,1863
1871,1873,1845
1842,1859,1868
1839,1843,1854
1831,1856,1847
1843,1893,1847
1873,1890,1850
1867,1847,1837
1827,1814,1840
1806,1823,1851
1832,1894,1843
1863,1827,1837
1821,1731,1835
1808,1805,1863
1823,1850,1870
1828,1889,1841
1839,1748,1787
1805,1840,1872
1824,1884,1893
1834,1889,1857
1844,1844,1846
1836,1863,1858
1840,1859,1841
1835,1853,1849
1831,1889,1867
1813,1827,1840
1827,1826,1841
1831,1823,1855
1839,1823,1843
1854,1840,1840
1872,1925,1858
1840,1885,1847
1791,1802,1854
1807,1844,1850
1820,1871,1840
1819,1808,1810
1823,1750,1803
1840,1869,1853
1842,1875,1877
1805,1840,1863
1798,1825,1860
1819,1867,1856
1831,1856,1851
1837,1853,1846
1833,1823,1799
1837,1812,1823
1819,1856,1866
1807,1776,1842
1819,1824,1861
1834,1862,1886
1850,1909,1877
1843,1889,1847
1853,1840,1849
1825,1828,1835
1825,1821,1821
1838,1792,1825
1809,1851,1872
1835,1872,1867
1845,1901,1844
1831,1843,1839
1830,1811,1851
1830,1813,1851
1847,1858,1838
1835,1890,1853
1819,1916,1859
1838,1835,1851
1840,1869,1840
1827,1830,1851
1818,1845,1859
1829,1805,1841
1837,1812,1840
1831,1838,1847
1828,1842,1851
1850,1874,1857
1843,1863,1840
1840,1827,1810
1857,1744,1778
1829,1892,1893
1814,1856,1917
1805,1805,1861
1793,1776,1841
1821,1806,1844
1840,1837,1849
1847,1849,1856
1840,1856,1863
1830,1840,1851
1843,1859,1845
1845,1873,1845
1850,1819,1839
1856,1879,1843
1862,1840,1840
1830,1887,1867
1813,1854,1862
1842,1883,1852
1879,1872,1829
1835,1797,1852
1793,1777,1833
1824,1773,1813
1844,1860,1859
1830,1856,1872
1810,1842,1871
1825,1845,1847
1847,1860,1854
1841,1856,1842
1840,1918,1842
1851,1854,1845
1849,1863,1840
1841,1777,1868
1827,1791,1888
1825,1789,1837
1844,1785,1773
1803,1819,1857
1793,1830,1888
1827,1840,1870
1849,1853,1849
1858,1872,1841
1874,1831,1847
1837,1802,1808
1808,1857,1862
1808,1870,1873
1826,1831,1852
1834,1842,1849
1839,1846,1854
1843,1855,1859
1842,1872,1855
1835,1871,1847
1844,1834,1842
1857,1840,1849
1826,1766,1850
1818,1781,1856
1834,1866,1861
1836,1873,1854
1826,1814,1853
1843,1866,1850
1851,1879,1851
1822,1796,1849
1817,1802,1857
1828,1825,1846
1858,1857,1830
1869,1805,1797
1830,1853,1875
1819,1813,1874
1847,1774,1808
1823,1819,1856
1826,1858,1876
1843,1872,1872
1837,1872,1856
1831,1841,1847
1838,1850,1854
1880,1862,1835
1875,1872,1843
1830,1799,1847
1802,1837,1872
1836,1872,1856
1863,1863,1838
1855,1865,1857
1815,1867,1866
1814,1786,1845
1847,1814,1832
1847,1787,1809
1867,1838,1821
1830,1841,1859
1808,1840,1859
1808,1830,1857
1828,1838,1855
1840,1844,1840
1851,1856,1838
1858,1887,1815
1842,1837,1834
1834,1831,1861
1872,1829,1847
1872,1875,1847
1825,1890,1840
1826,1840,1835
1853,1845,1841
1868,1791,1813
1838,1801,1843
1837,1893,1866
1857,1849,1851
1833,1815,1844
1835,1851,1809
1808,1835,1844
1820,1858,1885
1840,1920,1851
1819,1781,1837
1824,1799,1847
1856,1830,1850
1851,1848,1848
1853,1831,1850
1851,1827,1840
1853,1865,1840
1853,1913,1858
1840,1850,1839
1846,1838,1839
1841,1867,1854
1841,1787,1842
1835,1758,1853
1836,1819,1853
1850,1833,1859
1854,1825,1850
1839,1830,1847
1837,1842,1849
1855,1840,1836
1865,1807,1815
1856,1904,1872
1887,1950,1872
1808,1807,1846
1793,1773,1846
1818,1797,1856
1849,1840,1856
1843,1856,1841
1849,1861,1850
1842,1838,1840
1825,1821,1841
1831,1849,1838
1840,1867,1840
1842,1841,1824
1872,1883,1838
1856,1690,1779
1828,1778,1834
1802,1825,1877
1809,1829,1872
1838,1839,1859
1850,1826,1839
1860,1809,1821
1843,1887,1862
1872,1950,1870
1840,1872,1843
1793,1764,1840
1818,1776,1840
1841,1900,1850
1828,1836,1846
1827,1815,1852
1831,1861,1847
1856,1850,1840
1829,1837,1837
1836,1839,1855
1839,1831,1856
1849,1851,1854
1856,1855,1847
1847,1875,1861
1839,1846,1847
1872,1872,1845
1855,1834,1840
1821,1831,1836
1831,1811,1818
1874,1947,1826
1856,1854,1825
1787,1737,1847
1809,1751,1858
1799,1805,1866
1808,1805,1859
1825,1838,1856
1839,1829,1853
1840,1819,1840
1846,1826,1840
1840,1855,1858
1846,1871,1851
1861,1850,1842
1858,1837,1843
1852,1840,1845
1835,1857,1843
1856,1887,1845
1856,1904,1842
1831,1846,1845
1818,1778,1825
1817,1758,1809
1806,1831,1841
1810,1872,1860
1874,1909,1855
1865,1826,1855
1803,1835,1859
1815,1817,1840
1840,1861,1814
1837,1822,1840
1814,1810,1855
1811,1830,1855
1844,1863,1847
1870,1859,1831
1860,1880,1846
1856,1865,1856
1840,1840,1863
1831,1853,1836
1835,1831,1835
1845,1817,1836
1854,1712,1737
1838,1861,1854
1851,1881,1904
1840,1877,1890
1809,1845,1850
1819,1849,1830
1840,1862,1842
1833,1808,1818
1856,1822,1850
1857,1838,1873
1835,1849,1858
1826,1845,1842
1831,1913,1840
1833,1876,1840
1819,1822,1846
1822,1829,1856
1856,1874,1850
1843,1881,1818
1842,1834,1842
1829,1871,1861
1821,1856,1867
1843,1808,1839
1835,1805,1841
1840,1789,1798
1849,1904,1822
1840,1885,1880
1829,1853,1883
1817,1815,1875
1822,1844,1863
1843,1875,1831
1841,1814,1806
1779,1791,1840
1787,1776,1840
1812,1840,1847
1819,1859,1847
1825,1856,1853
1853,1874,1870
1855,1874,1856
1840,1889,1835
1828,1863,1840
1842,1842,1841
1825,1840,1845
1822,1817,1821
1840,1813,1808
1872,1879,1818
1808,1786,1865
1785,1777,1874
1793,1808,1855
1823,1859,1837
1849,1842,1840
1850,1852,1858
1818,1814,1856
1834,1815,1836
1859,1833,1842
1853,1852,1839
1815,1870,1828
1881,1837,1857
2107,1870,1857
1971,1762,1811
1676,1869,1856
1628,1815,1849
1776,1793,1848
1861,1781,1860
1823,1865,1879
1783,1869,1873
1809,1821,1870
1849,1821,1835
1789,1823,1789
1795,1843,1842
1840,1918,1913
1879,1913,1859
1876,1854,1776
1877,1914,1831
1920,1760,1893
1760,1744,1814
1675,1840,1840
1745,1890,1901
1774,1818,1788
1754,1782,1738
1823,1840,1700
1883,1802,1839
1779,1888,1856
1737,1856,1865
1919,1898,1871
1917,1820,1809
1819,1855,1797
1728,1846,1793
1777,1856,1786
1777,1930,1824
1794,1949,1873
1813,1813,1826
1759,1791,1824
1787,1999,1826
1806,1907,1815
1755,1729,1787
1691,1773,1778
1730,1821,1795
1776,1840,1787
1850,1867,1843
1841,1952,1840
1873,1853,1838
1829,1875,1803
1825,1971,1791
1759,1950,1805
1815,1901,1829
1793,1822,1866
1721,1834,1856
1712,1857,1827
1762,1881,1747
1813,1886,1749
1763,1904,1805
1831,1874,1835
1792,1891,1870
1710,1840,1793
1703,1846,1774
1761,1895,1783
1814,1835,1776
1886,1863,1804
1820,1917,1935
1724,1909,1878
1702,1821,1766
1795,1884,1751
1873,1833,1827
1781,1884,1760
1684,1937,1809
1714,1956,1808
1807,1904,1814
1794,1794,1798
1778,1803,1808
1809,1834,1808
1757,1904,1762
1691,1875,1877
1726,1883,1853
1776,1805,1808
1775,1849,1813
1719,1881,1791
1728,1771,1746
1711,1869,1777
1693,1835,1831
1766,1859,1879
1808,1870,1763
1842,1863,1715
1835,1857,1807
1819,1865,1754
1745,1919,1855
1739,1900,1947
1774,1903,1839
1807,1709,1707
1734,1809,1822
1717,1975,1889
1713,1936,1893
1719,1775,1809
1725,1819,1789
1815,1814,1876
1808,1895,1963
1745,1850,1806
1811,1918,1710
1819,1792,1807
1833,1837,1885
1781,1847,1792
1787,1831,1743
1870,1830,1904
1747,1936,1877
1742,1879,1862
1757,1857,1830
1712,1778,1776
1819,1837,1823
1809,1850,1911
1757,1915,1861
1727,1902,1859
1824,1638,1740
1773,1754,1838
1712,1815,1846
1767,1904,1885
1826,1900,1882
1808,1863,1815
1809,1949,1859
1822,1840,1840
1841,1808,1843
1795,1790,1805
1718,1867,1808
1746,1814,1866
1820,1795,1958
1805,1822,1926
1840,1796,1731
1778,1802,1798
1709,1858,1905
1798,1852,1897
1771,1830,1845
1781,1897,1940
1814,1872,1905
1807,1855,1805
1765,1866,1817
1847,1810,1902
1846,1940,1856
1856,1858,1842
1750,1744,1830
1757,1877,1870
1803,1838,1882
1879,1808,1863
1791,1806,1870
1711,1835,1892
1879,1812,1949
1808,1810,1870
1727,1780,1780
1778,1837,1835
1908,1817,1905
1829,1776,1936
1731,1856,1876
1890,1953,1856
1917,1969,1858
1731,1776,1849
1706,1779,1831
1887,1792,1869
1920,1872,1931
1809,1930,1929
1694,1775,1807
1769,1727,1886
1789,1743,1875
1747,1718,1859
1823,1849,1919
1906,1920,1905
1870,1871,1847
1781,1876,1835
1797,1869,1894
1789,1786,1886
1766,1802,1907
1841,1808,1891
1846,1833,1840
1903,2005,1920
1770,1913,1893
1671,1698,1814
1750,1661,1849
1837,1795,1894
1889,1840,1936
1837,1831,1863
1829,1822,1847
1790,1815,1889
1796,1878,1930
1851,1895,1994
1871,1815,1834
1823,1879,1823
1879,1853,1889
1786,1871,1855
1747,1803,1936
1839,1790,1840
1845,1763,1823
1775,1890,1904
1799,1853,1948
1859,1782,1963
1904,1894,1879
1895,1762,1829
1856,1805,1955
1904,1929,1927
1889,1837,1803
1875,1808,1810
1872,1858,1888
1761,1862,1931
1871,1933,1966
1814,1791,1813
1827,1794,1823
1826,1827,1915
1808,1883,1936
1795,1776,1841
1777,1771,1818
1787,1821,1905
1819,1846,1801
1875,1735,1857
1808,1831,1920
1872,1907,1941
1859,1851,1909
1827,1825,1851
1850,1806,1805
1776,1818,1842
1855,1902,2032
1872,1771,1881
1856,1792,1756
1813,1858,1808
1865,1995,1983
1763,1889,1922
1787,1872,1834
1983,1826,1779
1904,1787,1824
1819,1852,1937
1809,1810,1917
1874,1680,1805
1823,1770,1902
1811,1806,1933
1840,1910,1984
1776,1865,1861
1815,1857,1787
1869,1898,1930
1872,1853,1954
1830,1847,1877
1965,1797,1887
1863,1791,1846
1791,1895,1799
1889,1983,1927
1907,1824,1883
1811,1907,1863
1831,1776,1991
1791,1790,1915
1873,1747,1803
1836,1701,1749
1871,1813,1853
1888,1859,1937
1856,1873,1941
1884,1895,1941
1847,1776,1842
1855,1775,1897
1851,1873,1938
1858,1878,1904
1831,1835,1742
1827,1908,1815
1975,1799,1930
1899,1833,1942
1765,1808,1838
1855,1855,1954
1934,1808,1955
1903,1811,1865
1819,1842,1842
1869,1847,1862
1953,1803,1856
1850,1817,1939
1763,1787,1917
1892,1835,1903
1928,1832,1875
1818,1917,1823
1853,1894,1872
1843,1761,1863
1971,1713,1882
1850,1797,1926
1712,1840,1903
1799,1840,1830
1875,1878,1808
1866,1824,1916
1872,1872,1967
1850,1838,1891
1843,1855,1868
1904,1878,1904
2010,1895,1932
1833,1712,1754
1859,1885,1882
1882,1891,1935
1835,1883,1806
1773,1793,1872
1791,1845,1945
1935,1875,2019
1919,1853,1967
1875,1795,1791
1790,1803,1771
1861,1878,1930
1839,1887,1879
1891,1834,1827
1968,1869,1927
1904,1875,1997
1791,1795,1862
1857,1878,1872
1977,1811,1872
1854,1823,1823
1842,1776,1778
1889,1850,1878
1843,1856,1968
1828,1875,1971
1935,1872,1888
1915,1862,1951
1835,1775,1872
1711,1751,1823
1826,1820,1879
1910,1883,1946
1919,1904,1951
1856,1823,1821
1926,1811,1739
1914,1920,1855
1821,1846,1951
1834,1818,1872
1951,1795,1856
1968,1867,1988
1811,1799,1936
1781,1793,1839
1835,1907,1891
1853,1855,1899
1855,1852,1923
1845,1877,1936
1879,1822,1824
1943,1895,1903
1910,1862,1892
1870,1754,1791
1858,1796,1827
1894,1905,1953
1856,1846,1901
1877,1935,1920
1872,1904,1966
1823,1771,1883
1811,1798,1811
1885,1804,1843
1961,1834,1837
1891,1904,1971
1893,1838,1885
1990,1843,1904
1939,1936,1951
1719,1769,1805
1719,1790,1879
1862,1776,1882
1869,1776,1763
1847,1911,1857
1870,1971,1964
1829,1853,1870
1856,1857,1927
1919,1837,1891
2096,1834,1918
1950,1850,1845
1810,1808,1787
1808,1825,1829
1730,1951,1894
1802,1836,1979
1904,1765,1951
1867,1810,1776
1813,1839,1778
1877,1924,1905
1955,1853,1915
1840,1886,1867
1779,1821,1883
1766,1755,1792
1862,1827,1792
1839,1859,1835
1856,1843,1974
1950,1937,1937
1938,1895,1849
1843,1803,1829
1862,1836,1871
1833,1803,1853
1805,1812,1863
1823,1807,1858
1747,1828,1860
1754,1856,1921
1831,1871,1841
1877,1840,1786
1872,1862,1884
1865,1867,1933
1863,1897,1954
1882,1845,1779
1927,1871,1798
1961,1773,1793
1919,1745,1803
1734,1898,1922
1734,1935,1919
1818,2004,1902
1865,1792,1783
2006,1791,1872
1838,1802,1963
1647,1738,1859
1745,1773,1771
1888,1805,1821
2007,1904,1936
1907,1908,1998
1769,1746,1679
1791,1755,1771
1853,1984,1904
1849,1978,1971
1827,1959,1927
1776,1745,1837
1895,1716,1763
1829,1715,1819
1875,1921,1869
1981,1805,1839
1678,1783,1791
1680,1853,1904
1893,1861,1951
1856,1839,1851
1851,1854,1821
1893,1870,1840
1873,1901,1995
1790,1865,1895
1829,1975,1772
1843,1719,1739
1849,1839,1918
1841,1898,1871
1835,1774,1866
1857,1779,1836
1808,1644,1775
1735,1887,1995
1851,1901,1901
1840,1817,1779
1879,1808,1844
1922,1917,1843
1814,1904,1855
1737,1823,1904
1853,1839,1968
1870,1907,1979
1854,1834,1850
1849,1749,1830
1807,1760,1795
1789,1826,1763
1817,1859,1767
1845,1906,1877
1959,1997,2103
1866,1922,1931
1763,1806,1686
1873,1856,1840
1955,1870,2022
1841,1728,1758
1702,1751,1733
1735,1850,1866
1817,1851,2031
1891,1834,1968
1801,1789,1781
1794,1809,1814
1800,1882,1962
1809,1965,1974
1793,1805,1770
1889,1773,1813
2039,1885,1936
1897,1949,1840
1712,1865,1789
1670,1755,1814
1840,1857,1939
1954,1919,1996
1936,1822,1847
1822,1796,1797
1839,1712,1835
1767,1795,1895
1824,1935,1893
1776,1876,1882
1790,1846,1905
1855,1795,1920
1897,1823,1873
1829,1875,1865
1789,1872,1882
1827,1888,1919
1974,1875,1875
1822,1840,1753
1782,1895,1755
1839,1856,1919
1970,1915,2006
1904,1759,1808
1684,1671,1737
1719,1789,1852
1904,1901,2061
1913,1826,1894
1749,1810,1799
1792,1834,1830
1878,1903,2020
1808,1795,1933
1829,1843,1713
1840,1917,1777
1817,1873,1935
1887,1889,2065
1907,1911,1850
1879,1867,1819
1882,1868,1899
1808,1817,1779
1839,1835,1818
1839,1904,1970
1834,1795,1806
1808,1776,1770
1835,1895,1917
1872,1777,1906
1808,1760,1823
1815,1739,1794
1831,1841,1870
1806,1792,1863
1766,1867,1863
1813,1960,1881
1855,1910,1969
1819,1840,1887
1813,1845,1835
1902,1907,1951
1934,1893,1893
1857,1904,1795
1825,1814,1818
1851,1846,1968
1898,1887,1955
1873,1779,1727
1849,1891,1849
1887,1925,1905
1743,1805,1791
1729,1787,1808
1852,1753,1795
1825,1817,1855
1935,1867,1901
1836,1911,1967
1757,1822,1839
1769,1808,1713
1859,1892,1872
1886,1873,1943
1789,1743,1786
1808,1865,1863
1863,2000,1957
1850,1936,1914
1837,1808,1839
1856,1834,1760
1829,1841,1802
1904,1975,1927
1895,1863,1926
1830,1840,1947
1798,1835,1817
1773,1789,1745
1828,1774,1731
1921,1899,1910
2017,1954,1949
1887,1732,1856
1815,1819,1887
1739,1875,1904
1745,1872,1835
1861,1802,1776
1872,1904,1805
1889,1872,1865
1853,1916,1961
1879,1863,1891
1833,1777,1793
1805,1773,1728
1810,1819,1776
1840,1936,1901
1888,1872,1927
1856,1843,1907
1898,1905,1866
1851,1852,1856
1837,1835,1914
1751,1769,1802
1726,1755,1751
1808,1851,1846
1920,1863,1853
1906,1900,1909
1929,1934,1936
2034,1894,1893
1931,1895,1860
1744,1923,1793
1837,1742,1769
1825,1853,1874
1765,1840,1842
1774,1837,1836
1791,1801,1872
1856,1866,1807
1914,1930,1822
1872,1808,1820
1850,1735,1825
1835,1724,1808
1817,1803,1831
1917,1905,1908
1775,1877,1856
1768,1872,1810
1870,1821,1836
1904,1851,1973
1808,1841,1847
1831,1953,1858
1840,1872,1852
1872,1852,1830
1799,1847,1777
1857,1808,1850
1991,1847,1929
1853,1823,1856
1759,1811,1754
1761,1776,1743
1868,1839,1899
1879,1855,1971
1810,1827,1889
1775,1790,1776
1855,1820,1838
1829,1824,1888
1856,1792,1769
1814,1872,1770
1828,1894,1830
1813,1905,1978
1942,1927,1981
1907,1761,1744
1949,1845,1806
1761,1888,1895
1744,1851,1852
1774,1783,1780
1808,1822,1850
1857,1868,1966
1841,1795,1862
1843,1744,1787
1789,1807,1769
1791,1841,1776
1903,1910,1896
2090,1891,1950
1858,1825,1843
1641,1799,1744
1734,1888,1825
1829,1882,1897
1873,1855,1853
1872,1883,1844
1869,1838,1870
1802,1878,1948
1818,1799,1872
1859,1782,1751
1941,1803,1807
1919,1860,1910
1758,1714,1797
1682,1814,1852
1792,1865,1851
1818,1881,1884
1808,1850,1898
1790,1859,1812
1849,1895,1925
1858,1872,1840
1968,1840,1825
1916,1801,1827
1758,1808,1791
1781,1906,1746
1787,1847,1837
1905,1885,1919
1957,1940,1980
1863,1840,2005
1792,1710,1711
1806,1744,1697
1789,1921,1894
1794,1777,1836
1790,1733,1792
1856,1845,1838
1849,1872,1922
1836,1851,1915
1767,1799,1795
1808,1828,1759
1863,1890,1899
1926,1920,2000
1935,1920,1894
1853,1808,1741
1787,1799,1698
1888,1866,1878
1936,1881,1947
1799,1858,1841
1781,1862,1795
1817,1825,1838
1923,1833,1934
1743,1761,1854
1745,1803,1831
1819,1830,1827
1903,1925,1932
1914,1827,1940
1875,1775,1796
1820,1808,1765
1744,1837,1726
1859,1898,1906
1890,1952,1954
1809,1768,1697
1834,1717,1675
1875,1858,1904
1840,1879,1910
1807,1983,1856
1810,1896,1806
1835,1808,1833
1958,1847,1878
1845,1807,1834
1706,1791,1831
1673,1776,1839
1803,1829,1931
1968,1949,1857
1900,1853,1844
1778,1734,1792
1792,1727,1806
1839,1769,1872
1840,1855,1819
1782,1926,1783
1854,1931,1842
1911,1920,1935
1890,1872,1863
1854,1885,1792
1779,1833,1806
1866,1951,1962
1883,1872,1815
1783,1701,1776
1811,1726,1867
1824,1927,1801
1791,1899,1782
1778,1811,1872
1881,1705,1904
1906,1773,1931
1818,1858,1822
1815,1851,1797
1735,1798,1782
1805,1855,1894
1873,1875,1863
1883,1825,1808
1851,1886,1899
1885,1918,1898
1926,1908,1895
1866,1979,1917
1796,1669,1693
1781,1697,1710
1808,1827,1840
1777,1866,1873
1813,1797,1779
1941,1935,1835
1855,1804,1890
1759,1795,1810
1776,1814,1859
1808,1851,1877
1822,1833,1885
1823,1839,1927
1856,1808,1818
1872,1870,1833
1853,1899,1879
1870,1840,1774
1942,1883,1787
1807,1689,1769
