1840,1869,1859
1858,1888,1851
1856,1877,1849
1853,1872,1850
1868,1862,1827
1905,1789,1762
1855,1875,1855
1776,1758,1911
1776,1830,1917
1811,1857,1862
1823,1765,1842
1835,1778,1854
1842,1837,1843
1838,1822,1843
1829,1825,1862
1846,1814,1871
1838,1834,1859
1845,1842,1850
1845,1838,1853
1847,1850,1859
1872,1872,1855
1860,1861,1845
1842,1859,1854
1835,1856,1845
1851,1826,1840
1862,1918,1865
1856,1889,1815
1872,1841,1846
1791,1824,1863
1785,1733,1861
1821,1747,1845
1825,1795,1855
1827,1834,1857
1850,1861,1847
1838,1840,1840
1836,1830,1853
1856,1843,1859
1859,1856,1858
1857,1853,1858
1856,1841,1858
1830,1843,1851
1849,1865,1830
1860,1808,1813
1840,1881,1871
1842,1843,1872
1867,1783,1840
1840,1886,1838
1808,1849,1852
1810,1839,1855
1835,1808,1842
1808,1765,1855
1786,1767,1873
1819,1809,1857
1839,1830,1852
1856,1828,1862
1837,1823,1851
1839,1845,1856
1849,1855,1847
1851,1856,1854
1857,1855,1858
1851,1835,1854
1857,1853,1853
1858,1921,1859
1839,1843,1867
1829,1775,1849
1840,1797,1845
1854,1842,1840
1849,1855,1817
1835,1805,1854
1873,1834,1826
1886,1806,1838
1805,1776,1872
1786,1799,1887
1822,1807,1866
1850,1803,1851
1831,1855,1877
1854,1862,1872
1843,1861,1857
1837,1857,1854
1837,1871,1860
1861,1886,1862
1862,1820,1845
1827,1792,1846
1813,1834,1866
1833,1841,1859
1872,1872,1847
1867,1856,1839
1830,1847,1861
1840,1809,1830
1840,1779,1854
1840,1808,1885
1808,1872,1878
1819,1808,1857
1873,1798,1828
1858,1783,1827
1805,1837,1871
1803,1836,1874
1826,1835,1858
1841,1837,1853
1840,1839,1867
1845,1858,1857
1871,1886,1853
1858,1869,1855
1837,1840,1855
1841,1856,1855
1879,1826,1827
1895,1847,1812
1818,1936,1919
1809,1797,1878
1849,1786,1841
1839,1875,1862
1847,1888,1846
1872,1898,1869
1809,1747,1847
1783,1762,1857
1809,1805,1871
1835,1839,1865
1859,1858,1855
1857,1869,1850
1855,1844,1844
1835,1823,1865
1831,1843,1875
1837,1845,1859
1840,1851,1849
1845,1866,1851
1862,1872,1851
1855,1888,1829
1841,1872,1840
1842,1840,1863
1842,1842,1863
1856,1778,1807
1863,1869,1840
1823,1797,1892
1801,1818,1879
1822,1871,1865
1837,1803,1840
1808,1747,1837
1822,1833,1857
1830,1854,1858
1840,1853,1840
1849,1842,1853
1882,1845,1855
1862,1817,1839
1835,1830,1839
1842,1869,1856
1881,1963,1855
1871,1905,1841
1869,1798,1862
1838,1744,1858
1826,1733,1808
1851,1857,1856
1858,1942,1887
1792,1786,1864
1822,1775,1839
1819,1783,1829
1853,1777,1820
1854,1845,1829
1840,1859,1859
1837,1874,1872
1843,1855,1860
1844,1842,1847
1874,1871,1858
1861,1922,1841
1863,1907,1827
1840,1801,1833
1839,1840,1847
1838,1792,1856
1850,1803,1859
1856,1776,1808
1863,1808,1837
1846,1927,1849
1805,1814,1869
1823,1776,1872
1855,1820,1839
1853,1807,1828
1825,1825,1840
1846,1860,1844
1867,1873,1842
1856,1840,1840
1882,1879,1820
1861,1877,1849
1862,1834,1820
1823,1833,1868
1803,1882,1875
1825,1851,1856
1835,1767,1824
1825,1774,1837
1842,1770,1806
1841,1845,1853
1858,1883,1871
1907,1863,1850
1846,1840,1842
1813,1891,1850
1840,1924,1839
1843,1814,1841
1840,1854,1854
1843,1830,1843
1855,1825,1840
1875,1840,1841
1857,1828,1838
1843,1856,1834
1856,1898,1851
1840,1854,1851
1840,1906,1840
1854,1807,1815
1834,1822,1837
1830,1870,1837
1873,1745,1772
1840,1822,1872
1814,1858,1875
1840,1858,1843
1839,1842,1831
1871,1843,1840
1893,1921,1835
1846,1840,1833
1831,1808,1850
1837,1826,1849
1861,1845,1838
1870,1854,1838
1840,1869,1847
1845,1891,1840
1872,1883,1835
1872,1831,1812
1826,1846,1841
1838,1858,1843
1840,1827,1791
1837,1743,1843
1824,1779,1872
1837,1814,1859
1861,1839,1841
1853,1840,1840
1853,1845,1841
1869,1854,1838
1875,1842,1833
1895,1833,1808
1856,1857,1855
1835,1851,1856
1813,1855,1847
1825,1865,1856
1834,1821,1854
1839,1833,1851
1852,1815,1841
1874,1763,1781
1839,1875,1847
1839,1946,1876
1847,1845,1855
1841,1758,1838
1844,1793,1858
1855,1826,1858
1854,1853,1846
1852,1844,1845
1859,1847,1854
1867,1872,1843
1872,1826,1801
1867,1781,1798
1850,1851,1856
1830,1908,1872
1855,1938,1865
1823,1858,1820
1807,1776,1840
1837,1802,1837
1858,1870,1856
1856,1875,1854
1842,1827,1847
1824,1887,1851
1834,1812,1840
1847,1833,1839
1845,1828,1840
1847,1833,1841
1851,1822,1839
1849,1819,1843
1838,1826,1840
1846,1836,1840
1870,1845,1841
1863,1856,1843
1857,1855,1851
1873,1818,1803
1827,1808,1827
1831,1840,1834
1821,1835,1873
1833,1790,1856
1833,1828,1841
1825,1854,1840
1826,1887,1871
1843,1917,1867
1872,1860,1856
1856,1872,1827
1825,1801,1839
1833,1834,1857
1835,1809,1850
1854,1856,1857
1859,1813,1857
1839,1825,1856
1840,1840,1840
1842,1817,1835
1840,1837,1845
1857,1856,1847
1891,1808,1787
1840,1858,1846
1817,1872,1872
1839,1898,1867
1905,1869,1838
1845,1817,1829
1808,1845,1857
1842,1877,1847
1863,1827,1833
1855,1859,1853
1840,1841,1843
1849,1774,1818
1841,1867,1859
1835,1857,1843
1847,1819,1858
1846,1808,1859
1843,1899,1845
1840,1813,1841
1809,1776,1857
1815,1801,1853
1850,1839,1849
1860,1842,1845
1865,1831,1807
1847,1817,1840
1863,1853,1854
1857,1870,1867
1855,1882,1870
1856,1866,1859
1851,1842,1840
1845,1841,1841
1824,1818,1842
1837,1808,1844
1851,1840,1841
1852,1859,1826
1823,1790,1845
1813,1825,1857
1861,1822,1857
1849,1873,1820
1809,1806,1840
1808,1777,1862
1856,1774,1820
1858,1806,1811
1835,1795,1818
1813,1840,1883
1823,1863,1889
1839,1855,1871
1854,1851,1861
1872,1904,1849
1849,1841,1846
1840,1810,1840
1839,1832,1847
1851,1847,1852
1857,1854,1840
1836,1853,1840
1838,1749,1840
1837,1775,1851
1838,1827,1846
1846,1823,1840
1847,1839,1857
1840,1846,1851
1856,1823,1822
1826,1844,1840
1827,1842,1841
1872,1844,1826
1840,1903,1859
1828,1854,1866
1837,1882,1873
1866,1787,1802
1852,1794,1837
1844,1841,1872
1842,1829,1872
1853,1815,1855
1851,1817,1846
1836,1807,1837
1833,1859,1839
1826,1775,1840
1845,1815,1849
1841,1834,1846
1839,1842,1850
1856,1853,1847
1898,1842,1840
1872,1796,1817
1815,1902,1859
1826,1840,1818
1850,1859,1850
1847,1889,1874
1862,1861,1864
1851,1870,1851
1856,1853,1842
1870,1844,1847
1847,1840,1856
1851,1846,1852
1904,1813,1851
1826,1827,1857
1799,1839,1842
1831,1837,1824
1860,1861,1841
1859,1831,1844
1828,1774,1818
1855,1764,1815
1847,1793,1840
1837,1823,1870
1837,1806,1853
1857,1853,1867
1882,1853,1826
1860,1839,1838
1811,1871,1874
1823,1843,1869
1872,1861,1855
1856,1840,1850
1840,1849,1855
1872,1867,1843
1903,1898,1840
1851,1851,1837
1834,1798,1839
1835,1840,1843
1841,1860,1843
1846,1831,1838
1823,1767,1855
1850,1796,1834
1863,1791,1813
1856,1858,1841
1843,1849,1845
1844,1832,1850
1870,1795,1826
1881,1803,1811
1857,1909,1879
1854,1885,1867
1856,1834,1859
1834,1819,1857
1826,1824,1859
1857,1858,1840
1889,1850,1819
1871,1914,1858
1847,1854,1865
1817,1789,1845
1840,1865,1835
1840,1793,1819
1828,1812,1856
1838,1851,1831
1858,1813,1842
1863,1850,1862
1842,1875,1859
1841,1842,1851
1858,1856,1840
1841,1826,1847
1843,1843,1861
1858,1787,1808
1881,1820,1837
1869,1874,1856
1853,1878,1865
1831,1867,1861
1840,1843,1856
1856,1872,1857
1872,1805,1846
1854,1834,1839
1850,1813,1847
1840,1853,1872
1792,1792,1850
1798,1782,1840
1840,1806,1839
1872,1803,1813
1850,1853,1851
1843,1846,1877
1872,1891,1872
1866,1855,1858
1840,1831,1859
1855,1803,1851
1869,1814,1840
1856,1791,1798
1835,1859,1862
1840,1895,1879
1858,1872,1867
1862,1794,1837
1840,1841,1851
1858,1894,1872
1890,1869,1830
1847,1891,1819
1785,1806,1854
1808,1791,1859
1843,1808,1856
1868,1875,1852
1853,1887,1846
1842,1817,1852
1808,1783,1856
1833,1785,1850
1837,1809,1838
1854,1779,1796
1851,1844,1863
1847,1876,1888
1856,1855,1867
1847,1834,1856
1851,1828,1846
1846,1841,1855
1841,1851,1862
1871,1872,1840
1904,1795,1809
1837,1795,1839
1799,1822,1869
1815,1872,1872
1843,1885,1872
1840,1911,1861
1856,1927,1858
1840,1804,1849
1871,1825,1855
1845,1843,1843
1829,1869,1838
1840,1763,1805
1849,1793,1813
1813,1834,1867
1813,1833,1857
1824,1795,1857
1840,1823,1855
1856,1836,1851
1838,1833,1855
1845,1840,1852
1859,1856,1841
1872,1847,1840
1847,1840,1840
1862,1889,1871
1859,1841,1852
1840,1805,1844
1808,1808,1854
1839,1850,1863
1883,1844,1840
1838,1846,1856
1822,1825,1868
1863,1858,1852
1871,1794,1809
1808,1838,1854
1802,1818,1871
1827,1792,1824
1840,1812,1847
1842,1842,1872
1840,1847,1863
1839,1872,1851
1843,1863,1858
1856,1842,1851
1842,1830,1863
1866,1851,1863
1853,1838,1855
1847,1869,1855
1823,1877,1855
1813,1822,1868
1835,1829,1854
1835,1839,1856
1837,1808,1858
1861,1856,1854
1854,1858,1849
1830,1809,1846
1839,1851,1851
1835,1840,1845
1861,1806,1811
1823,1822,1856
1802,1840,1890
1840,1840,1872
1872,1840,1831
1837,1886,1847
1809,1891,1855
1838,1820,1856
1826,1811,1857
1835,1831,1862
1843,1856,1861
1846,1856,1855
1862,1882,1844
1842,1840,1847
1822,1865,1854
1827,1837,1855
1853,1827,1846
1834,1822,1854
1838,1853,1867
1840,1879,1855
1872,1877,1802
1853,1874,1840
1834,1788,1862
1856,1757,1846
1830,1847,1882
1827,1871,1879
1840,1798,1856
1843,1824,1840
1872,1883,1859
1864,1879,1872
1817,1854,1857
1825,1813,1871
1843,1829,1856
1850,1834,1853
1843,1840,1855
1851,1872,1858
1866,1901,1837
1863,1815,1843
1853,1798,1863
1837,1823,1869
1856,1871,1865
1868,1907,1843
1840,1843,1808
1818,1861,1859
1813,1838,1879
1839,1840,1875
1825,1793,1871
1863,1840,1840
1887,1769,1797
1818,1785,1867
1806,1819,1895
1840,1850,1886
1871,1859,1869
1861,1837,1859
1853,1840,1867
1863,1840,1869
1862,1840,1856
1853,1872,1851
1841,1867,1845
1862,1891,1853
1869,1878,1834
1840,1815,1829
1823,1791,1854
1819,1805,1815
1850,1909,1830
1837,1793,1856
1799,1811,1878
1814,1840,1872
1847,1859,1856
1872,1889,1859
1853,1906,1857
1834,1820,1852
1844,1815,1851
1854,1840,1854
1843,1844,1851
1862,1841,1843
1888,1893,1842
1855,1869,1853
1823,1822,1859
1847,1823,1865
1856,1876,1871
1853,1885,1846
1846,1777,1783
1840,1774,1809
1830,1817,1888
1842,1857,1905
1837,1829,1861
1851,1865,1855
1853,1893,1871
1844,1893,1857
1841,1873,1855
1869,1853,1853
1853,1834,1843
1843,1855,1845
1850,1881,1855
1870,1841,1854
1911,1861,1846
1841,1859,1845
1803,1814,1831
1834,1808,1825
1837,1840,1840
1840,1832,1861
1840,1817,1869
1856,1886,1827
1872,1828,1813
1840,1793,1850
1840,1808,1872
1839,1851,1877
1843,1865,1861
1843,1847,1847
1841,1856,1856
1869,1862,1861
1872,1884,1866
1871,1845,1852
1846,1865,1858
1872,1893,1856
1874,1871,1853
1829,1821,1843
1821,1824,1853
1855,1824,1830
1845,1834,1834
1840,1840,1856
1847,1847,1866
1841,1844,1853
1842,1840,1857
1863,1920,1840
1851,1770,1807
1831,1825,1887
1854,1920,1895
1845,1853,1872
1854,1833,1857
1862,1872,1835
1836,1794,1840
1816,1813,1865
1818,1831,1868
1844,1842,1863
1858,1870,1854
1867,1903,1857
1873,1853,1857
1856,1851,1846
1840,1850,1833
1791,1776,1837
1798,1795,1855
1838,1822,1856
1847,1842,1851
1847,1850,1853
1866,1885,1858
1849,1854,1845
1855,1783,1805
1850,1779,1825
1821,1866,1875
1844,1868,1883
1853,1866,1872
1837,1838,1866
1835,1843,1867
1846,1810,1856
1860,1831,1854
1856,1883,1854
1849,1854,1871
1843,1776,1818
1834,1802,1850
1814,1885,1870
1819,1850,1865
1856,1847,1838
1840,1821,1847
1825,1813,1862
1826,1833,1869
1840,1845,1859
1871,1895,1853
1869,1823,1813
1843,1769,1853
1843,1830,1894
1855,1878,1879
1850,1872,1867
1845,1901,1867
1864,1872,1840
1860,1811,1840
1842,1868,1863
1798,1829,1872
1817,1840,1868
1840,1802,1849
1833,1785,1843
1837,1808,1853
1855,1839,1850
1867,1845,1858
1871,1851,1856
1855,1888,1854
1830,1839,1852
1851,1854,1855
1859,1833,1860
1840,1860,1854
1853,1846,1840
1873,1759,1783
1872,1853,1823
1851,1847,1850
1795,1819,1879
1823,1815,1872
1851,1829,1867
1837,1838,1860
1837,1839,1855
1846,1838,1850
1863,1850,1855
1855,1872,1861
1850,1830,1851
1872,1840,1842
1867,1885,1849
1840,1872,1842
1823,1809,1854
1850,1822,1855
1920,1914,1849
1883,1792,1827
1787,1782,1857
1783,1853,1870
1828,1856,1858
1844,1788,1824
1842,1776,1820
1839,1845,1869
1839,1871,1861
1840,1867,1854
1841,1813,1847
1852,1861,1843
1855,1841,1847
1842,1828,1855
1841,1879,1857
1859,1833,1847
1845,1790,1857
1840,1801,1855
1861,1831,1843
1891,1825,1817
1899,1792,1812
1807,1867,1867
1808,1896,1861
1835,1822,1845
1840,1811,1845
1834,1856,1870
1859,1895,1869
1886,1882,1850
1851,1863,1857
1837,1795,1778
1814,1747,1815
1814,1785,1895
1813,1824,1887
1824,1824,1857
1835,1802,1850
1871,1827,1849
1847,1844,1850
1818,1833,1853
1824,1833,1847
1867,1838,1841
1855,1840,1849
1839,1840,1855
1814,1850,1847
1840,1860,1853
1846,1858,1854
1840,1889,1856
1854,1834,1824
1875,1856,1841
1846,1866,1853
1826,1856,1843
1886,1890,1815
1875,1840,1822
1794,1808,1861
1781,1838,1871
1808,1792,1861
1838,1807,1857
1843,1875,1858
1837,1826,1865
1821,1811,1856
1836,1841,1840
1835,1856,1839
1831,1827,1843
1830,1830,1847
1843,1860,1849
1859,1921,1851
1835,1797,1839
1845,1808,1853
1842,1853,1858
1842,1872,1866
1838,1872,1871
1845,1849,1853
1875,1845,1807
1891,1797,1812
1806,1840,1886
1803,1854,1870
1822,1840,1847
1823,1835,1840
1815,1808,1845
1834,1819,1849
1878,1842,1806
1843,1805,1815
1801,1821,1876
1814,1827,1872
1849,1848,1859
1851,1849,1857
1837,1849,1856
1849,1868,1841
1853,1863,1851
1853,1836,1855
1856,1791,1836
1844,1850,1846
1833,1861,1865
1836,1890,1863
1844,1825,1827
1853,1808,1835
1847,1847,1858
1840,1872,1860
1814,1895,1852
1830,1821,1849
1810,1767,1848
1821,1801,1850
1840,1811,1845
1839,1819,1849
1850,1845,1844
1862,1818,1833
1842,1821,1849
1841,1871,1870
1862,1879,1839
1865,1861,1853
1843,1836,1838
1840,1845,1825
1858,1782,1798
1818,1784,1867
1797,1827,1903
1814,1845,1878
1853,1877,1843
1840,1863,1840
1840,1845,1847
1885,1856,1843
1865,1861,1852
1890,1790,1853
1859,1777,1845
1776,1792,1838
1786,1840,1845
1886,1849,1857
1879,1840,1862
1834,1840,1834
1825,1889,1786
1803,1842,1837
1797,1846,1899
1889,1870,1857
1844,1855,1866
1776,1787,1855
1776,1776,1860
1855,1827,1846
1936,1916,1882
1843,1857,1851
1785,1765,1782
1749,1776,1866
1766,1847,1934
1883,1934,1860
1829,1935,1758
1741,1802,1847
1829,1831,1905
1935,1872,1852
1873,1849,1792
1849,1818,1766
1920,1781,1861
2035,1874,1872
1782,1893,1823
1680,1850,1809
1756,1846,1805
1808,1898,1770
1780,1803,1808
1751,1758,1872
1794,1818,1880
1724,1808,1857
1722,1888,1861
1767,1901,1829
1810,1839,1808
1830,1792,1741
1823,1820,1777
1792,1923,1895
1781,1954,1926
1773,1950,1776
1850,1868,1729
1937,1854,1818
1936,1871,1857
1827,1911,1844
1717,1863,1775
1676,1951,1813
1744,2073,1776
1876,1984,1779
1751,1776,1783
1673,1636,1781
1659,1799,1855
1711,1907,1811
1760,1813,1803
1789,1789,1819
1782,1856,1781
1759,1885,1776
1883,1870,1823
1863,1963,1887
1776,1870,1770
1871,1927,1771
1839,1885,1779
1641,1947,1790
1627,1824,1749
1718,1777,1831
1743,1951,1893
1739,1891,1858
1701,1815,1795
1808,1889,1822
1797,1709,1755
1666,1744,1735
1712,1885,1853
1757,1978,1862
1795,1936,1823
1810,1901,1797
1889,1889,1849
2064,1893,1877
1675,1927,1805
1574,1896,1795
1667,1839,1802
1774,1907,1764
1831,1973,1844
1761,1830,1853
1775,1847,1822
1818,1870,1857
1729,1783,1844
1728,1895,1843
1749,1872,1831
1745,1807,1853
1912,1903,1863
1798,1834,1765
1738,1777,1721
1798,1956,1909
1799,1899,1975
1735,1920,1834
1747,1904,1776
1830,2039,1872
1891,1834,1830
1682,1795,1810
1718,1889,1829
1794,1826,1815
1723,1779,1792
1826,1840,1791
1890,1827,1830
1822,1874,1878
1747,1923,1972
1834,1887,1930
1824,1919,1869
1766,1904,1859
1767,1773,1821
1799,1872,1846
1804,1975,1763
1805,1969,1846
1819,1865,1940
1840,1831,1936
1862,1776,1818
1765,1856,1805
1773,1906,1871
1857,1917,1879
1765,1787,1748
1708,1778,1754
1834,1861,1847
1851,1935,1926
1778,1970,1889
1807,1965,1862
1755,1771,1856
1749,1727,1833
1759,1856,1841
1755,1846,1833
1808,1904,1929
1859,1943,2004
1842,1844,1911
1782,1745,1807
1743,1733,1730
1797,1937,1872
1903,1993,1953
2032,1841,1872
1781,1876,1813
1650,1871,1847
1699,1833,1885
1811,1749,1789
1862,1825,1909
1813,1872,1975
1875,1910,1935
1935,2011,1805
1777,1830,1824
1733,1729,1878
1797,1823,1879
1842,1925,1920
1776,1932,1872
1806,1905,1834
1829,1808,1920
1825,1893,1985
1890,1875,1921
1854,1711,1744
1802,1698,1751
1773,1865,1906
1815,1967,1965
1817,1958,1937
1823,1879,1968
1798,1808,1799
1850,1845,1773
1852,1853,1869
1843,1883,1922
1792,1857,1874
1798,1887,1847
1833,1926,1856
1936,1941,1918
1868,1871,1869
1843,1706,1767
1808,1709,1845
1742,1938,1894
1767,1934,1908
1829,1937,1924
1798,1822,1903
1843,1855,1915
1872,1872,1893
1870,1827,1815
1814,1883,1877
1904,1904,1991
1889,1875,1859
1766,1803,1721
1842,1906,1785
1875,1959,1907
1846,1910,1924
1809,1709,1900
1855,1856,1841
1840,1954,1856
1808,1873,1962
1845,1843,1936
1885,1788,1808
1767,1808,1825
1824,1917,1891
1853,1919,1939
1811,1770,1872
1845,1898,1867
1936,2003,1922
1942,1930,1877
1865,1829,1865
1866,1767,1839
1803,1813,1805
1857,1946,1849
1881,1843,1814
1783,1809,1899
1789,1867,1919
1860,1760,1869
1815,1893,1983
1834,1915,1870
1821,1859,1808
1815,1839,1862
1842,1877,1906
1809,1887,1858
1850,1883,1850
1895,1835,1879
1827,1891,1855
1950,1842,1934
1927,1889,1840
1872,1889,1759
1806,1894,1781
1769,1792,1876
1769,1840,1929
1858,1866,1979
1855,1796,1936
1872,1840,1874
1842,1846,1795
1766,1851,1840
1798,1860,1889
1878,1856,1886
1962,1919,1887
2013,1965,1918
1891,1777,1888
1833,1814,1830
1869,1979,1879
1840,1906,1950
1928,1771,1881
1962,1805,1749
1739,1730,1919
1678,1872,2029
1802,1948,1971
2018,1964,1921
1936,1835,1776
1825,1811,1798
1753,1845,1921
1819,1872,1858
1883,1898,1886
1897,1919,1953
1897,1927,1983
1929,1811,1796
1835,1878,1827
1842,1899,1863
1979,1963,1889
2016,1855,1872
1857,1874,1886
1819,1790,1856
1823,1771,1904
1753,1796,1919
1813,1872,1901
1869,1902,1824
1882,1897,1866
1883,1853,2016
1904,1835,1904
1824,1852,1798
1810,1867,1836
1928,1783,1801
1890,1890,1880
1849,1863,1898
1855,1885,1904
1947,1936,1875
1931,1953,1827
1869,1778,1902
1774,1753,1900
1826,1842,1871
1821,1818,1877
1891,1792,1984
1897,1833,1903
1787,1767,1753
1851,1808,1823
1887,1906,1915
1856,1919,1904
1884,1927,1878
1962,1906,1862
1968,1746,1738
1808,1862,1886
1871,1914,1945
1933,1873,1862
1987,1879,1903
1903,1925,1910
1759,1815,1863
1807,1857,1843
1767,1744,1872
1830,1728,1829
1881,1810,1881
1920,1890,1973
1850,1825,1808
1909,1871,1792
1927,1906,1902
1889,1895,1891
1829,1835,1850
1904,1831,1849
1975,1770,1790
1840,1907,1887
1871,1961,1968
1899,1831,1817
1874,1858,1793
1927,1831,1759
1776,1789,1891
1754,1803,1981
1841,1787,1855
1886,1799,1822
1872,1839,1890
1879,1883,1936
1862,1854,1883
1953,1893,1926
1883,1814,1811
1879,1719,1780
1885,1872,1855
1853,1911,1882
1894,1878,1872
1948,1849,1812
1969,1772,1907
1872,1911,1941
1826,1776,1798
1807,1739,1760
1897,1776,1878
1904,1786,1926
1809,1847,1951
1764,1897,1850
1860,1849,1808
1900,1831,1914
1813,1771,1856
1854,1776,1798
1894,1843,1872
1872,1777,1922
1866,1856,1906
1904,1943,1735
1919,1755,1792
1903,1745,1920
1894,1837,1939
1924,1796,1906
1823,1813,1840
1882,1872,1846
1878,1861,1920
1902,1776,1891
1886,1775,1918
1913,1863,1877
1810,1824,1793
1837,1765,1858
1903,1807,1791
1916,1949,1854
1906,1898,1895
1842,1840,1925
1872,1785,1856
1937,1843,1966
1858,1769,1885
1748,1744,1765
1813,1767,1807
1932,1901,1949
1904,1779,1918
1799,1775,1925
1830,1735,1837
1802,1840,1775
1892,1878,1805
1985,1925,1858
1923,1903,1926
1815,1823,1831
1814,1728,1792
1885,1837,1905
2012,1965,1979
1834,1785,1842
1746,1669,1749
1808,1753,1811
1861,1781,1872
1949,1791,1926
1838,1833,1918
1826,1873,1877
1857,1856,1834
1943,1808,1881
1855,1810,1899
1904,1840,1886
1900,1835,1839
1818,1771,1776
1869,1857,1874
1881,1875,1945
1951,1831,1845
1949,1889,1782
1830,1723,1885
1791,1713,1903
1925,1713,1916
1871,1750,1872
1760,1791,1746
1764,1819,1783
1841,1875,1875
1900,1908,1974
1822,1842,1915
1856,1819,1872
1870,1821,1831
1863,1825,1837
1918,1887,2037
1941,1910,1919
1920,1954,1730
1903,1686,1735
1851,1712,1917
1785,1761,1904
1840,1665,1757
1861,1766,1824
1840,1891,1968
1981,1894,2006
1865,1855,1847
1765,1835,1777
1828,1853,1826
1904,1835,1866
1943,1853,1918
1901,1834,1897
1809,1766,1789
1805,1840,1813
1904,1873,1870
1899,1776,1846
1844,1776,1953
1820,1885,1891
1851,1728,1786
1915,1591,1736
1773,1856,1878
1831,1934,1970
1956,1910,1985
1845,1820,1922
1753,1794,1897
1776,1787,1761
1872,1838,1766
1919,1915,1866
1911,1838,1875
1851,1783,1805
1970,1809,1855
1896,1856,1875
1738,1711,1849
1774,1600,1782
1885,1808,1951
1887,1987,2094
1822,1808,1808
1808,1823,1718
1920,1883,1817
1925,1807,1850
1856,1789,1853
1737,1840,1877
1931,2010,1932
1968,1926,1957
1822,1730,1776
1744,1747,1779
1889,1893,1839
1858,1629,1775
1747,1821,1878
1817,1856,1897
1869,1820,1859
1975,1856,1885
1939,1866,1892
1840,1858,1886
1791,1885,1846
1869,1802,1799
1884,1840,1930
1825,1902,1891
1932,1920,1833
2064,1851,1815
1795,1655,1781
1727,1904,1906
1895,1966,1926
1861,1731,1839
1752,1717,1747
1909,1871,1881
1907,1840,1981
1783,1712,1861
1765,1747,1707
1852,1878,1813
1936,1879,1919
1790,1810,1823
1837,1847,1808
1951,1923,1891
1938,1850,1907
1870,1929,1873
1840,1878,1803
1829,1831,1858
1872,1778,1827
1835,1909,1952
1790,1793,1873
1789,1716,1782
1856,1719,1737
1901,1831,1877
1943,1849,1917
1859,1842,1872
1786,1872,1895
1843,1894,1926
1817,1845,1814
1904,1842,1729
1907,1843,1806
1840,1891,1891
1859,1906,1897
1952,1884,1886
1861,1766,1814
1776,1932,1934
1799,1779,1797
1765,1670,1777
1773,1758,1866
1855,1803,1872
1998,1798,1886
1863,1904,1889
1758,1913,1806
1751,1840,1794
1909,1883,1936
1949,1878,1851
1795,1872,1830
1826,1938,1888
1859,1850,1863
1856,1765,1814
2055,1882,1808
1937,1802,1862
1742,1778,1891
1712,1675,1808
1771,1791,1856
1793,1817,1825
1759,1840,1836
1808,1904,1909
1870,1846,1923
1854,1855,1856
1888,1895,1789
1877,1869,1808
1997,1904,1892
1865,1898,1857
1805,1755,1769
1936,1793,1825
1838,1889,1929
1762,1825,1899
1869,1808,1885
1808,1822,1776
1744,1879,1861
1968,1845,1918
2022,1835,1917
1710,1760,1718
1658,1718,1710
1835,1778,1812
1893,1844,1881
1789,1879,1905
1852,1922,1913
1843,1904,1847
1791,1833,1808
1815,1808,1835
1923,1862,1866
2001,1736,1715
1963,1877,1849
1763,1927,1959
1727,1867,1975
1779,1747,1757
1840,1732,1738
1877,1865,1889
1869,1810,1914
1841,1964,1905
1773,1829,1766
1785,1783,1763
1871,1856,1855
2013,1861,1935
1933,1873,1905
1710,1853,1733
1775,1805,1745
1814,1882,1870
1903,1904,1930
1975,1911,1887
1805,1805,1837
1794,1807,1872
1831,1808,1865
1791,1840,1742
1822,1739,1759
1889,1876,1938
1948,1883,1973
1903,1791,1869
1782,1856,1853
1705,1831,1779
1774,1831,1770
1849,1894,1858
1897,1921,1901
1923,1865,1968
1952,1919,1835
1953,1968,1829
1879,1904,1885
1937,1799,1857
1709,1776,1751
1630,1698,1795
1734,1781,1867
2065,1829,1885
1898,1891,1905
1663,1788,1837
1707,1799,1742
1801,1841,1787
1907,1885,1923
1921,1883,1901
1887,1901,1878
1904,1940,1932
1973,1878,1943
1908,1745,1757
1949,1911,1760
1847,1904,1902
1766,1843,1903
1686,1839,1767
1742,1826,1776
1839,1851,1851
1904,1842,1951
1856,1849,1850
1895,1851,1830
2030,1917,1985
1981,1846,2003
1803,1771,1728
1696,1812,1745
1759,1829,1971
1802,1822,1788
1953,1827,1808
1810,1850,1773
1771,1863,1807
1853,1865,1836
2079,1893,1887
1910,1771,1941
1674,1771,1834
1723,1787,1757
1840,1924,1847
1977,1904,1937
1986,1890,2029
1778,1820,1837
1750,1819,1697
1823,1895,1811
1973,1979,2071
2021,1958,2156
1806,1904,1637
1782,1719,1519
1808,1760,1726
1767,1815,1858
1785,1840,1861
1938,1920,1810
2118,1731,1818
1933,1797,1974
1699,1904,2047
1598,1807,1918
1675,1735,1664
1815,1795,1682
1920,1856,1833
1840,1856,1933
1810,1863,1938
1872,1823,1827
1849,1891,1774
1872,1933,1835
1873,1891,1910
1917,1847,1884
2030,1997,1918
1959,1970,1903
1791,1749,1696
1830,1837,1773
1706,1578,1809
1790,1763,1924
1853,1776,1908
1891,1850,1926
1798,1884,1793
1680,1814,1697
1743,1819,1765
1866,1851,1891
1907,1916,1959
1984,1926,1995
1923,1907,1855
1808,1858,1810
1837,1830,1742
1909,1874,1779
1794,1894,1868
1835,1951,1914
1885,1855,1831
1814,1631,1785
1815,1761,1835
1846,1837,1938
1826,1808,1863
1783,1840,1808
1818,1845,1872
1840,1858,1955
1840,1863,1838
1875,1845,1763
1994,1879,1918
2127,2016,2181
1840,1875,1811
1800,1789,1535
1744,1831,1712
1921,1907,1985
1907,1942,1951
1758,1695,1712
1790,1695,1771
1809,1698,1879
1771,1817,1962
1761,1840,1883
1839,1894,1845
1913,1910,1898
1951,1881,1957
1876,1856,1981
1870,1859,1925
1916,1827,1744
1888,1842,1751
1802,1863,1797
1969,1854,1920
1989,2080,1930
1856,1825,1789
1726,1727,1838
1693,1682,1760
1741,1680,1726
1827,1782,1889
1836,1877,1950
1810,1868,1920
1824,1843,1872
1904,1847,1770
1916,1824,1726
1866,1855,1840
1869,1904,1995
1885,1909,1975
1877,1869,1823
1879,1827,1865
1892,1916,1872
1867,1912,1716
1965,1925,1802
1833,1786,2006
1718,1763,1861
1774,1790,1729
