1837,1823,1802
1838,1827,1771
1830,1813,1795
1830,1808,1856
1836,1829,1834
1869,1878,1839
1853,1853,1856
1805,1781,1812
1808,1808,1804
1842,1839,1807
1840,1840,1822
1802,1792,1790
1827,1825,1793
1874,1872,1825
1867,1840,1860
1825,1808,1859
1830,1825,1775
1856,1854,1799
1846,1835,1822
1830,1809,1841
1827,1817,1807
1840,1837,1791
1846,1837,1829
1808,1791,1818
1807,1803,1807
1840,1843,1799
1839,1819,1796
1831,1807,1806
1870,1866,1810
1886,1893,1856
1825,1829,1836
1786,1776,1765
1815,1814,1785
1852,1857,1799
1859,1849,1842
1839,1814,1840
1823,1811,1791
1836,1840,1799
1830,1818,1805
1818,1809,1814
1829,1838,1821
1851,1859,1827
1849,1826,1839
1821,1795,1808
1840,1839,1825
1854,1854,1835
1840,1827,1791
1811,1797,1798
1820,1807,1760
1842,1833,1770
1843,1838,1869
1840,1831,1890
1849,1847,1827
1841,1839,1776
1836,1813,1803
1825,1808,1811
1842,1840,1824
1850,1855,1840
1839,1831,1841
1810,1802,1821
1834,1832,1795
1859,1857,1791
1843,1828,1831
1808,1785,1803
1808,1797,1766
1830,1823,1800
1841,1825,1870
1826,1805,1866
1841,1841,1840
1862,1859,1809
1843,1826,1803
1822,1797,1804
1839,1826,1808
1849,1841,1811
1838,1827,1815
1815,1808,1818
1830,1818,1808
1856,1851,1807
1843,1829,1815
1808,1801,1806
1806,1802,1771
1806,1806,1778
1823,1813,1807
1858,1846,1850
1867,1869,1847
1840,1867,1833
1827,1829,1806
1821,1817,1803
1830,1841,1829
1840,1863,1810
1819,1840,1807
1806,1808,1813
1833,1847,1811
1854,1871,1803
1823,1827,1792
1776,1787,1801
1781,1806,1809
1815,1838,1807
1840,1847,1808
1837,1835,1803
1811,1826,1777
1795,1825,1768
1791,1787,1776
1786,1787,1797
1830,1837,1803
1842,1856,1795
1823,1819,1791
1789,1794,1803
1795,1817,1788
1809,1827,1778
1799,1808,1781
1794,1803,1818
1797,1823,1805
1803,1833,1781
1798,1822,1796
1791,1812,1809
1789,1825,1802
1787,1815,1783
1794,1809,1795
1825,1837,1811
1835,1847,1808
1831,1856,1807
1800,1820,1790
1765,1776,1783
1766,1795,1803
1802,1823,1817
1817,1826,1803
1808,1819,1802
1818,1855,1799
1821,1859,1791
1790,1814,1779
1765,1797,1801
1794,1827,1818
1837,1859,1814
1834,1856,1821
1811,1840,1837
1803,1841,1815
1802,1838,1773
1798,1813,1785
1795,1808,1808
1810,1830,1808
1828,1855,1803
1819,1845,1813
1767,1787,1802
1780,1810,1827
1856,1875,1830
1879,1872,1808
1854,1849,1835
1820,1838,1818
1817,1830,1791
1840,1827,1795
1866,1849,1815
1885,1886,1839
1889,1889,1823
1840,1833,1807
1792,1777,1793
1828,1827,1808
1898,1893,1842
1903,1885,1853
1856,1841,1835
1837,1841,1819
1845,1849,1808
1838,1840,1831
1830,1826,1838
1840,1850,1818
1856,1858,1823
1829,1840,1817
1791,1802,1797
1792,1806,1786
1843,1853,1815
1872,1882,1839
1852,1861,1823
1818,1834,1789
1796,1824,1778
1825,1839,1798
1846,1858,1818
1855,1872,1808
1843,1869,1789
1803,1807,1749
1807,1803,1726
1861,1858,1729
1895,1893,1723
1857,1847,1694
1822,1808,1673
1827,1813,1650
1840,1823,1635
1834,1801,1614
1827,1794,1623
1845,1823,1615
1869,1840,1600
1859,1811,1590
1821,1778,1555
1835,1804,1559
1842,1819,1563
1809,1757,1514
1786,1731,1488
1833,1783,1471
1919,1879,1488
1920,1872,1494
1866,1819,1462
1847,1807,1439
1861,1812,1442
1862,1796,1450
1837,1773,1451
1863,1808,1455
1889,1840,1459
1873,1811,1441
1837,1775,1429
1856,1799,1441
1899,1845,1468
1887,1830,1472
1845,1796,1477
1830,1769,1423
1874,1813,1456
1904,1839,1491
1885,1825,1507
1882,1826,1490
1856,1805,1450
1817,1750,1443
1842,1791,1477
1904,1842,1503
1927,1869,1512
1898,1831,1502
1861,1806,1505
1867,1819,1504
1873,1824,1510
1868,1801,1505
1851,1792,1506
1872,1815,1525
1884,1832,1531
1863,1807,1520
1851,1790,1511
1870,1819,1535
1883,1829,1523
1867,1811,1535
1851,1790,1535
1870,1821,1569
1884,1835,1567
1869,1808,1571
1852,1793,1573
1861,1814,1575
1877,1838,1587
1870,1823,1604
1854,1800,1594
1865,1827,1605
1872,1823,1600
1866,1808,1591
1847,1797,1594
1868,1823,1620
1878,1837,1630
1872,1817,1629
1859,1809,1633
1867,1824,1629
1881,1847,1649
1863,1818,1633
1850,1801,1642
1867,1820,1649
1886,1825,1655
1871,1810,1654
1854,1795,1651
1875,1808,1654
1887,1830,1664
1873,1810,1680
1857,1797,1677
1873,1814,1664
1883,1828,1680
1875,1808,1691
1857,1802,1686
1872,1816,1709
1880,1838,1694
1871,1809,1700
1861,1807,1715
1877,1827,1715
1887,1839,1712
1873,1815,1702
1862,1794,1697
1882,1782,1687
1893,1821,1712
1861,1820,1723
1856,1789,1722
1872,1840,1734
1884,1808,1694
1857,1820,1728
1855,1831,1765
1871,1845,1763
1883,1851,1755
1872,1825,1734
1857,1779,1715
1872,1824,1746
1887,1869,1770
1866,1834,1766
1872,1815,1759
1899,1790,1727
1897,1853,1776
1873,1861,1805
1855,1829,1788
1872,1831,1773
1890,1815,1775
1872,1814,1782
1863,1839,1805
1877,1825,1822
1876,1822,1820
1874,1793,1805
1899,1760,1788
1911,1798,1825
1901,1870,1867
1855,1830,1850
1856,1810,1840
1872,1835,1858
1879,1836,1840
1872,1817,1846
1861,1813,1840
1879,1847,1847
1877,1859,1855
1887,1853,1871
1883,1843,1871
1904,1867,1858
1898,1872,1878
1880,1857,1897
1872,1840,1887
1894,1843,1872
1905,1813,1841
1890,1878,1923
1872,1887,1936
1878,1906,1903
1885,1902,1899
1883,1818,1879
1879,1845,1902
1882,1907,1922
1900,1943,1881
1891,1873,1905
1862,1810,1922
1874,1853,1935
1890,1907,1948
1881,1893,1968
1867,1872,1923
1883,1890,1909
1897,1899,1921
1887,1902,1937
1863,1879,1958
1883,1887,1946
1900,1915,1935
1901,1885,1914
1876,1872,1941
1876,1898,1920
1871,1983,1957
1859,1903,1953
1871,1909,1971
1887,1877,1934
1887,1919,1953
1866,1886,1962
1859,1895,1970
1872,1921,1968
1901,1939,1973
1901,1840,1955
1872,1889,1942
1894,1963,1933
1871,1985,1981
1843,1904,1957
1845,1869,1950
1863,1932,1971
1883,1975,1979
1865,1914,1981
1860,1923,1995
1872,1934,1970
1874,1959,1955
1865,1922,1952
1856,1906,1981
1885,1948,1968
1910,1834,1893
1878,1846,1946
1838,1957,2022
1847,1965,1999
1886,1936,1975
1862,1950,1971
1851,1934,1968
1870,1997,1968
1887,1993,1970
1853,1945,1969
1840,1935,1975
1857,1952,1988
1877,1955,1981
1870,1941,1965
1875,1901,1936
1885,1982,1979
1874,2003,1987
1856,1926,1953
1842,1968,1968
1865,1994,1980
1866,1984,1981
1855,2002,1999
1855,1933,1968
1877,1976,1952
1882,1975,1978
1855,1955,2000
1859,1942,1999
1879,2015,1986
1870,1927,1936
1857,1904,1957
1839,1934,1982
1854,1934,1998
1872,1987,1979
1850,1951,1968
1854,1952,1981
1856,1947,1978
1871,1946,1985
1863,1933,1958
1849,1965,1950
1858,1965,1962
1872,1967,1980
1866,1968,1985
1859,1907,1949
1872,1939,1963
1875,1961,1982
1867,1942,1980
1853,1921,1969
1875,1886,1936
1882,1965,1984
1845,1954,1983
1840,1936,1974
1862,1974,1965
1869,1924,1938
1862,1927,1943
1840,1913,1958
1845,1924,1971
1856,1919,1972
1853,1916,1967
1835,1911,1967
1841,1927,1958
1863,1934,1970
1850,1874,1926
1833,1920,1937
1841,1957,1981
1862,1886,1931
1841,1898,1936
1840,1904,1955
1871,1920,1957
1862,1921,1955
1842,1927,1955
1834,1905,1919
1854,1883,1923
1856,1883,1918
1845,1889,1939
1834,1904,1951
1846,1957,1936
1847,1895,1927
1845,1863,1894
1859,1807,1898
1860,1789,1899
1824,1894,1966
1805,1909,1977
1808,1902,1962
1833,1891,1936
1855,1887,1923
1840,1871,1918
1827,1869,1939
1846,1874,1936
1836,1904,1927
1819,1874,1904
1814,1840,1905
1858,1840,1918
1843,1894,1925
1830,1857,1900
1809,1875,1903
1822,1905,1940
1840,1859,1922
1818,1853,1941
1819,1855,1937
1830,1855,1898
1841,1867,1885
1827,1855,1884
1823,1866,1934
1849,1959,1931
1843,1840,1875
1827,1806,1888
1799,1839,1918
1823,1856,1929
1843,1810,1885
1855,1791,1878
1821,1872,1931
1821,1911,1934
1846,1950,1904
1823,1851,1893
1803,1794,1897
1819,1796,1908
1837,1840,1925
1830,1831,1907
1822,1821,1898
1823,1859,1936
1838,1869,1905
1829,1830,1867
1815,1827,1870
1833,1842,1879
1841,1841,1890
1838,1802,1870
1839,1801,1866
1839,1887,1914
1840,1899,1911
1828,1841,1897
1835,1817,1903
1841,1872,1911
1835,1845,1899
1825,1814,1873
1819,1810,1858
1840,1859,1887
1842,1871,1871
1817,1765,1882
1809,1767,1909
1832,1810,1906
1846,1821,1882
1831,1814,1850
1825,1807,1855
1840,1843,1879
1846,1845,1876
1856,1744,1828
1829,1818,1889
1821,1904,1937
1834,1877,1901
1839,1831,1863
1840,1808,1874
1851,1861,1874
1853,1842,1880
1831,1821,1879
1818,1808,1861
1840,1843,1876
1872,1895,1882
1845,1824,1875
1816,1803,1903
1841,1808,1857
1851,1795,1858
1825,1808,1863
1818,1805,1875
1840,1837,1875
1862,1774,1834
1838,1806,1872
1811,1826,1899
1838,1826,1887
1855,1838,1902
1838,1840,1906
1818,1820,1875
1840,1831,1867
1851,1840,1871
1839,1821,1874
1839,1812,1885
1847,1862,1882
1843,1849,1897
1827,1763,1809
1823,1776,1850
1833,1823,1901
1835,1836,1892
1830,1814,1867
1822,1786,1840
1829,1802,1849
1840,1856,1884
1837,1821,1872
1831,1813,1872
1840,1835,1872
1840,1826,1882
1826,1814,1874
1824,1837,1847
1840,1811,1867
1840,1792,1874
1819,1779,1849
1811,1780,1840
1839,1816,1862
1843,1821,1858
1823,1801,1859
1818,1795,1869
1831,1810,1854
1847,1818,1857
1832,1808,1862
1829,1802,1870
1841,1767,1815
1842,1829,1860
1840,1788,1855
1829,1791,1855
1829,1866,1882
1835,1855,1885
1822,1808,1863
1816,1804,1856
1835,1822,1855
1836,1814,1871
1828,1792,1855
1822,1788,1854
1827,1810,1857
1843,1821,1874
1824,1808,1866
1819,1793,1846
1831,1813,1840
1842,1822,1856
1828,1803,1855
1821,1803,1856
1835,1805,1841
1840,1810,1845
1842,1804,1859
1826,1803,1864
1835,1811,1857
1837,1808,1840
1831,1793,1837
1832,1792,1851
1840,1815,1855
1850,1823,1858
1835,1798,1859
1811,1778,1840
1801,1773,1817
1835,1811,1835
1883,1849,1872
1882,1846,1878
1872,1846,1869
1857,1831,1871
1824,1796,1830
1805,1779,1815
1827,1794,1839
1851,1826,1871
1837,1803,1840
1811,1780,1823
1861,1834,1874
1869,1833,1854
1875,1829,1862
1861,1828,1881
1818,1776,1833
1846,1817,1825
1909,1872,1869
1897,1857,1904
1869,1840,1865
1843,1820,1823
1834,1808,1856
1835,1806,1853
1857,1831,1853
1845,1812,1843
1808,1774,1810
1809,1778,1827
1859,1837,1856
1867,1846,1851
1812,1782,1815
1730,1702,1781
1766,1728,1765
1910,1876,1840
1918,1889,1862
1872,1840,1849
1807,1785,1809
1711,1683,1740
1728,1687,1738
1927,1881,1882
1970,1935,1915
1917,1895,1919
1838,1782,1840
1782,1727,1710
1837,1792,1765
1882,1840,1815
1859,1808,1811
1814,1765,1809
1793,1744,1807
1840,1797,1841
1857,1805,1814
1846,1780,1782
1840,1792,1791
1854,1798,1813
1867,1808,1840
1827,1765,1808
1809,1755,1771
1831,1776,1792
1863,1804,1840
1857,1811,1850
1844,1823,1834
1822,1775,1748
1831,1779,1798
1840,1774,1792
1840,1799,1795
1838,1804,1803
1840,1798,1818
1814,1774,1808
1837,1808,1856
1897,1872,1919
1875,1828,1856
1840,1774,1744
1850,1797,1763
1867,1808,1797
1835,1777,1808
1811,1759,1795
1863,1808,1823
1881,1835,1821
1860,1807,1797
1830,1779,1808
1850,1819,1831
1849,1810,1825
1789,1737,1776
1750,1680,1750
1870,1819,1801
1953,1904,1817
1868,1833,1809
1782,1759,1806
1833,1797,1758
1909,1873,1776
1889,1854,1808
1841,1827,1840
1850,1841,1840
1871,1830,1779
1875,1805,1738
1845,1794,1787
1826,1783,1766
1823,1808,1809
1827,1776,1763
1855,1780,1710
1897,1850,1728
1909,1885,1829
1887,1837,1825
1820,1741,1694
1793,1776,1734
1852,1833,1806
1855,1811,1774
1839,1783,1775
1823,1798,1775
1823,1786,1709
1874,1827,1833
1891,1857,1939
1843,1813,1757
1818,1788,1666
1823,1762,1696
1839,1775,1755
1853,1799,1718
1867,1819,1750
1866,1808,1799
1845,1777,1788
1876,1830,1834
1891,1840,1805
1879,1810,1751
1840,1762,1734
1839,1776,1723
1872,1810,1755
1863,1798,1799
1829,1746,1757
1810,1751,1715
1826,1785,1753
1856,1798,1783
1872,1805,1840
1858,1827,1917
1865,1822,1808
1837,1778,1715
1793,1724,1723
1808,1754,1726
1866,1826,1779
1884,1833,1814
1863,1797,1838
1840,1802,1837
1826,1777,1734
1858,1797,1808
1844,1776,1830
1835,1792,1781
1850,1811,1806
1821,1775,1776
1824,1751,1811
1841,1789,1830
1846,1799,1819
1817,1765,1790
1814,1760,1825
1843,1800,1855
1890,1842,1835
1843,1789,1787
1793,1730,1782
1778,1746,1783
1839,1811,1883
1849,1809,1870
1840,1779,1807
1845,1811,1810
1846,1820,1818
1786,1746,1799
1790,1763,1875
1858,1831,1920
1875,1836,1813
1847,1795,1773
1805,1771,1841
1791,1778,1863
1807,1792,1838
1819,1776,1829
1839,1787,1872
1815,1792,1809
1836,1811,1805
1808,1779,1821
1815,1779,1903
1854,1849,1957
1856,1856,1949
1781,1756,1744
1750,1717,1744
1792,1774,1809
1867,1840,1925
1826,1808,1898
1771,1750,1820
1781,1767,1807
1835,1816,1838
1872,1843,1936
1831,1830,1959
1809,1807,1877
1803,1795,1803
1779,1761,1830
1775,1744,1834
1820,1821,1872
1837,1824,1873
1777,1775,1872
1748,1744,1906
1792,1795,1856
1887,1881,1886
1843,1830,1853
1814,1796,1883
1776,1776,1840
1815,1829,1885
1840,1839,1959
1781,1776,1840
1787,1805,1818
1815,1840,1875
1792,1808,1877
1779,1783,1867
1806,1815,1885
1826,1840,1904
1796,1808,1908
1761,1770,1839
1771,1776,1846
1840,1840,1863
1829,1824,1872
1798,1776,1878
1804,1810,1915
1817,1840,1925
1837,1833,1906
1793,1783,1897
1763,1776,1847
1803,1819,1863
1809,1813,1856
1783,1782,1870
1815,1809,1875
1822,1833,1863
1810,1827,1911
1787,1805,1904
1785,1781,1840
1799,1795,1842
1808,1808,1888
1778,1783,1895
1819,1837,1933
1847,1877,1977
1799,1802,1904
1792,1776,1838
1836,1840,1866
1862,1872,1885
1840,1836,1874
1815,1807,1913
1775,1776,1865
1781,1809,1866
1791,1808,1883
1792,1802,1902
1821,1830,1920
1850,1877,1959
1839,1839,1931
1776,1771,1857
1795,1794,1826
1831,1851,1861
1827,1838,1905
1796,1802,1904
1808,1839,1910
1830,1859,1889
1829,1847,1933
1812,1810,1935
1797,1808,1856
1814,1842,1867
1807,1822,1909
1782,1787,1869
1811,1811,1870
1833,1846,1872
1814,1819,1885
1806,1799,1920
1814,1840,1933
1818,1843,1891
1821,1835,1910
1806,1798,1893
1826,1840,1891
1855,1872,1885
1840,1840,1877
1804,1811,1903
1812,1846,1938
1823,1853,1903
1827,1840,1874
1804,1810,1874
1796,1813,1871
1829,1835,1874
1840,1850,1926
1830,1842,1959
1833,1850,1949
1825,1850,1924
1785,1801,1841
1776,1780,1795
1840,1859,1879
1855,1877,1897
1820,1824,1894
1806,1810,1933
1840,1857,1936
1840,1856,1894
1799,1802,1854
1799,1794,1872
1821,1847,1883
1839,1884,1911
1825,1852,1935
1803,1823,1911
1807,1830,1855
1825,1852,1843
1831,1836,1891
1818,1829,1915
1827,1846,1891
1840,1861,1874
1842,1847,1899
1806,1807,1893
1792,1817,1901
1820,1845,1891
1831,1851,1911
1798,1808,1889
1809,1840,1892
1830,1859,1874
1808,1836,1855
1795,1803,1870
1815,1821,1856
1847,1846,1840
1856,1856,1882
1830,1840,1921
1818,1833,1874
1829,1840,1872
1846,1856,1955
1815,1829,1919
1802,1830,1823
1831,1857,1818
1840,1858,1867
1827,1811,1878
1822,1821,1873
1840,1872,1895
1840,1850,1903
1814,1811,1881
1822,1838,1855
1857,1875,1872
1841,1856,1879
1801,1808,1884
1797,1819,1899
1821,1834,1856
1822,1825,1835
1814,1821,1874
1831,1858,1910
1845,1862,1857
1833,1824,1851
1821,1811,1847
1837,1851,1872
1850,1882,1888
1845,1856,1891
1822,1842,1883
1808,1840,1890
1809,1822,1859
1825,1827,1913
1810,1824,1902
1815,1840,1835
1847,1874,1820
1828,1840,1851
1795,1799,1872
1818,1840,1889
1871,1895,1889
1857,1885,1907
1809,1829,1887
1819,1840,1850
1861,1876,1860
1821,1826,1856
1794,1810,1857
1828,1863,1902
1855,1881,1891
1841,1856,1861
1817,1824,1839
1843,1853,1856
1854,1875,1898
1840,1862,1903
1811,1821,1876
1805,1817,1860
1850,1860,1853
1847,1858,1877
1808,1819,1865
1795,1812,1840
1829,1843,1845
1839,1857,1905
1825,1845,1919
1825,1846,1815
1833,1856,1795
1825,1832,1840
1807,1818,1872
1815,1843,1863
1858,1889,1923
1843,1856,1904
1803,1811,1856
1811,1836,1808
1840,1851,1840
1855,1857,1879
1849,1840,1876
1831,1849,1860
1856,1872,1889
1852,1853,1907
1806,1807,1839
1801,1814,1815
1823,1846,1803
1840,1842,1853
1840,1829,1856
1845,1834,1849
1838,1854,1842
1823,1836,1886
1810,1825,1879
1831,1854,1836
1846,1874,1817
1840,1853,1871
1825,1840,1915
1821,1831,1838
1851,1856,1824
1854,1854,1872
1835,1833,1885
1836,1850,1853
1854,1874,1863
1840,1837,1840
1815,1808,1851
1823,1829,1853
1861,1881,1907
1840,1841,1904
1779,1789,1819
1807,1813,1782
1854,1861,1825
1863,1856,1859
1851,1851,1933
1818,1844,1887
1819,1839,1789
1819,1823,1809
1831,1833,1878
1808,1825,1850
1823,1855,1847
1831,1855,1883
1811,1814,1839
1826,1842,1854
1851,1877,1871
1835,1830,1833
1811,1819,1865
1823,1839,1863
1862,1887,1884
1872,1872,1907
1808,1794,1813
1799,1808,1808
1847,1862,1872
1825,1837,1870
1814,1826,1858
1861,1855,1872
1856,1862,1863
1849,1855,1887
1823,1825,1843
1840,1834,1825
1840,1841,1845
1817,1819,1856
1802,1791,1852
1851,1852,1907
1860,1864,1845
1840,1831,1828
1814,1808,1862
1840,1840,1875
1860,1879,1881
1840,1824,1823
1812,1794,1851
1840,1837,1903
1865,1860,1866
1854,1855,1861
1827,1818,1875
1830,1838,1919
1849,1853,1856
1847,1844,1863
1841,1828,1901
1837,1837,1851
1856,1867,1858
1839,1834,1855
1819,1808,1862
1823,1811,1842
1840,1840,1842
1841,1838,1872
1847,1840,1907
1871,1872,1971
1857,1859,1884
1832,1809,1787
1802,1783,1823
1827,1815,1846
1847,1865,1855
1835,1838,1859
1824,1809,1872
1845,1840,1872
1872,1885,1920
1853,1862,1965
1808,1791,1847
1810,1792,1781
1848,1843,1840
1872,1847,1889
1840,1815,1876
1840,1839,1888
1871,1847,1885
1829,1812,1851
1808,1797,1867
1840,1843,1871
1890,1902,1941
1869,1845,1921
1821,1792,1818
1825,1814,1823
1834,1829,1830
1845,1835,1878
1825,1798,1870
1830,1824,1855
1879,1877,1872
1872,1860,1913
1837,1822,1914
1835,1836,1867
1844,1842,1821
1853,1841,1844
1827,1803,1864
1846,1840,1881
1859,1866,1872
1839,1831,1840
1794,1775,1856
1831,1822,1898
1872,1872,1871
1877,1862,1842
1845,1830,1858
1843,1841,1871
1855,1868,1857
1855,1840,1865
1841,1823,1885
1856,1853,1894
1890,1885,1910
1857,1840,1847
1808,1787,1797
1814,1805,1808
1855,1857,1871
1866,1843,1865
1840,1812,1847
1839,1817,1840
1863,1863,1847
1869,1857,1875
1847,1825,1879
1840,1841,1867
1862,1864,1874
1869,1845,1887
1819,1805,1811
1838,1818,1797
1862,1851,1830
1854,1837,1866
1841,1835,1927
1840,1842,1878
1853,1857,1835
1854,1847,1865
1829,1808,1860
1856,1840,1884
1869,1854,1834
1843,1834,1823
1814,1811,1837
1856,1846,1847
1878,1872,1859
1861,1851,1868
1825,1805,1827
1820,1821,1820
1862,1867,1859
1858,1843,1872
1857,1834,1874
1833,1840,1837
1860,1872,1824
1850,1837,1838
1837,1811,1866
1845,1840,1843
1872,1875,1857
1854,1833,1854
1820,1794,1845
1830,1821,1854
1853,1856,1885
1839,1814,1827
1840,1811,1842
1842,1840,1834
1872,1867,1833
1854,1827,1837
1833,1807,1858
1839,1838,1829
1872,1862,1835
1867,1853,1896
1841,1808,1868
1854,1830,1814
1858,1843,1808
1840,1809,1808
1817,1792,1844
1840,1822,1867
1891,1875,1907
1863,1837,1840
1810,1787,1793
1825,1817,1824
1854,1843,1831
1833,1809,1810
1822,1797,1838
1867,1859,1886
1871,1863,1885
1840,1818,1825
1839,1801,1810
1870,1839,1829
1872,1859,1840
1835,1819,1856
1803,1786,1853
1833,1819,1850
1870,1857,1859
1856,1830,1815
1833,1807,1818
1835,1823,1840
1840,1837,1866
1811,1791,1822
1825,1797,1837
1863,1853,1855
1859,1854,1835
1838,1815,1840
1837,1823,1879
1867,1874,1909
1875,1887,1877
1854,1845,1843
1833,1827,1843
1835,1827,1862
1847,1840,1809
1855,1839,1792
1826,1804,1797
1839,1819,1820
1855,1858,1854
1846,1835,1851
1827,1808,1859
1841,1828,1879
1851,1850,1894
1835,1814,1809
1814,1797,1794
1835,1823,1808
1845,1845,1824
1833,1826,1837
1819,1807,1849
1837,1843,1866
1840,1845,1813
1828,1817,1807
1831,1823,1867
1838,1831,1859
1852,1858,1847
1839,1823,1861
1809,1785,1798
1830,1821,1808
1872,1872,1877
1840,1840,1834
1827,1812,1840
1840,1837,1844
1862,1861,1853
1856,1841,1843
1831,1817,1848
1815,1803,1798
1831,1827,1815
1839,1829,1867
1853,1835,1905
1859,1840,1834
1840,1839,1779
1818,1806,1795
1815,1802,1825
1852,1846,1862
1879,1879,1860
1857,1840,1846
1819,1809,1863
1808,1817,1831
1831,1827,1781
1839,1835,1806
1839,1809,1867
1845,1834,1872
1871,1874,1867
1856,1840,1841
1830,1808,1826
1842,1815,1818
1843,1835,1830
1851,1827,1843
1860,1838,1842
1849,1835,1833
1844,1845,1844
1850,1829,1840
1819,1802,1841
1831,1808,1840
1869,1872,1865
1873,1859,1842
1840,1826,1819
1841,1829,1819
1856,1835,1818
1840,1811,1822
1811,1779,1858
1834,1821,1863
1879,1872,1860
1840,1815,1823
1806,1786,1841
1837,1820,1870
1865,1861,1889
1835,1818,1822
1808,1794,1840
1840,1834,1859
1872,1862,1872
1841,1819,1855
1829,1791,1837
1867,1853,1851
1883,1872,1897
1846,1825,1873
1797,1767,1812
1819,1803,1821
1879,1856,1856
1866,1847,1885
1849,1815,1899
1861,1840,1894
1841,1840,1847
1833,1814,1856
1818,1797,1866
1834,1820,1835
1873,1867,1872
1866,1856,1913
1817,1789,1850
1808,1794,1830
1843,1837,1837
1871,1854,1872
1856,1824,1899
1841,1840,1889
1852,1839,1862
1849,1833,1854
1840,1810,1872
1871,1851,1915
1889,1881,1909
1822,1823,1840
1808,1789,1845
1822,1810,1859
1840,1826,1863
1866,1849,1918
1843,1815,1900
1833,1808,1839
1856,1844,1841
1851,1834,1879
1823,1796,1904
1835,1823,1871
1878,1871,1886
1859,1841,1898
1814,1807,1901
1823,1814,1905
1840,1827,1872
1849,1824,1877
1855,1808,1916
1839,1840,1910
1844,1847,1907
1819,1808,1877
1797,1766,1857
1823,1802,1877
1879,1872,1910
1877,1856,1943
1824,1801,1910
1829,1818,1892
1869,1849,1891
1854,1836,1903
1821,1808,1932
1826,1821,1967
1859,1844,1929
1846,1820,1856
1840,1819,1870
1846,1836,1911
1872,1850,1914
1850,1824,1929
1815,1788,1913
1833,1815,1915
1855,1846,1906
1851,1835,1958
1850,1821,1978
1856,1840,1941
1856,1854,1949
1823,1808,1881
1798,1767,1859
1840,1827,1905
1887,1872,1927
1873,1857,1948
1831,1811,1936
1824,1815,1913
1856,1855,1920
1839,1828,1948
1826,1805,1936
1843,1836,1935
1854,1843,1911
1847,1836,1953
1823,1802,1985
1825,1803,1918
1869,1846,1913
1859,1834,1897
1849,1814,1893
1835,1812,1902
1846,1853,1923
1833,1813,1926
1834,1808,1970
1840,1828,1965
1872,1857,1951
1866,1840,1874
1855,1827,1928
1824,1810,1907
1825,1808,1872
1840,1819,1910
1843,1829,1977
1856,1849,1961
1869,1861,1920
1853,1840,1920
1840,1827,1957
1822,1829,1954
1829,1838,1946
1808,1808,1936
1823,1799,1952
1857,1846,1943
1889,1893,2009
1856,1848,1981
1841,1811,1955
1829,1814,1902
1834,1830,1890
1853,1846,1944
1840,1819,1986
1849,1849,1999
1856,1857,1981
1814,1794,1902
1805,1778,1921
1857,1846,1994
1903,1887,2036
1851,1826,1919
1835,1803,1936
1812,1794,1927
1825,1823,1940
1869,1852,1973
1867,1839,2000
1849,1839,1970
1825,1815,1917
1815,1804,1929
1831,1808,1983
1857,1840,2003
1863,1846,1985
1837,1813,1936
1854,1824,1971
1850,1856,2010
1841,1843,1966
1835,1833,1924
1826,1806,1957
1824,1824,1964
1842,1847,1951
1848,1831,1949
1831,1811,1972
1833,1819,1968
1827,1833,1934
1824,1822,1952
1809,1793,1936
1810,1807,1926
1849,1856,1996
1872,1846,1973
1822,1795,1902
1821,1824,1901
1842,1856,1943
1836,1829,1957
1828,1815,1952
1843,1833,1963
1838,1840,1936
1819,1808,1904
1794,1767,1883
1830,1814,1934
1859,1863,1948
1863,1850,1939
1847,1829,1934
1840,1842,1959
1856,1857,1936
1831,1831,1895
1825,1814,1919
1836,1812,1918
1849,1848,1913
1835,1838,1875
1813,1807,1888
1823,1827,1903
1840,1852,1920
1851,1847,1947
1817,1796,1857
1802,1793,1845
1836,1850,1885
1847,1839,1905
1827,1817,1901
1821,1817,1882
1843,1835,1862
1836,1829,1893
1839,1823,1925
1840,1835,1895
1842,1851,1855
1841,1840,1870
1850,1840,1904
1840,1831,1867
1840,1840,1895
1827,1826,1867
1801,1791,1854
1829,1830,1883
1856,1855,1863
1838,1836,1830
1815,1794,1853
1833,1830,1895
1865,1859,1872
1859,1838,1875
1825,1813,1842
1831,1840,1871
1852,1858,1839
1840,1838,1859
1811,1802,1881
1826,1809,1834
1851,1834,1815
1846,1821,1838
1840,1821,1861
1822,1809,1840
1824,1825,1824
1840,1840,1875
1836,1840,1879
1838,1845,1847
1856,1862,1811
1855,1846,1850
1830,1810,1856
1823,1817,1844
1850,1847,1824
1851,1840,1822
1822,1808,1862
1827,1824,1840
1873,1877,1842
1859,1846,1845
1812,1805,1808
1825,1836,1835
1840,1843,1819
1837,1815,1783
1830,1801,1831
1856,1850,1858
1875,1871,1825
1837,1833,1809
1799,1789,1825
1831,1821,1842
1869,1867,1835
1858,1845,1852
1805,1793,1776
1813,1816,1801
1857,1837,1817
1862,1840,1827
1840,1821,1867
1840,1841,1842
1851,1840,1773
1855,1828,1792
1839,1812,1824
1829,1814,1834
1850,1853,1837
1863,1842,1824
1839,1825,1840
1844,1839,1829
1848,1842,1806
1814,1810,1759
1813,1799,1783
1852,1852,1792
1893,1899,1845
1863,1856,1808
1807,1811,1808
1808,1821,1823
1837,1840,1808
1857,1855,1811
1840,1833,1814
1828,1836,1788
1840,1847,1807
1825,1826,1808
1826,1807,1776
1841,1837,1790
1879,1882,1818
1873,1866,1819
1849,1827,1826
1842,1838,1805
1837,1833,1774
1831,1822,1794
1855,1824,1823
1865,1863,1862
1872,1872,1836
1827,1805,1758
1799,1767,1739
1856,1843,1831
1877,1872,1849
1850,1826,1775
1819,1792,1759
1847,1829,1807
1881,1856,1807
1863,1842,1822
1823,1807,1820
1822,1806,1777
1856,1838,1811
1853,1816,1819
1838,1794,1792
1838,1820,1792
1827,1808,1765
1839,1829,1807
1846,1827,1823
1841,1829,1791
1850,1855,1809
1855,1847,1839
1830,1797,1839
1858,1840,1833
1861,1851,1787
1835,1818,1770
1808,1779,1771
1822,1810,1818
1850,1850,1814
1873,1843,1797
1851,1818,1818
