1850,1821,1845
1814,1827,1922
1781,1854,1965
1806,1805,1936
1799,1769,1892
1814,1799,1895
1831,1817,1890
1828,1796,1867
1806,1818,1913
1807,1845,1914
1824,1823,1898
1839,1783,1881
1815,1787,1904
1807,1827,1913
1823,1839,1901
1811,1799,1872
1807,1797,1872
1835,1808,1856
1840,1875,1923
1806,1857,1936
1799,1860,1923
1808,1808,1880
1809,1793,1870
1816,1779,1877
1799,1780,1888
1808,1781,1887
1830,1822,1905
1831,1834,1917
1815,1809,1865
1813,1827,1854
1830,1855,1862
1854,1774,1826
1822,1744,1856
1805,1858,1925
1815,1861,1922
1830,1819,1897
1823,1799,1871
1806,1817,1879
1815,1846,1891
1827,1881,1893
1805,1809,1904
1836,1828,1878
1856,1825,1873
1833,1811,1872
1810,1775,1873
1819,1831,1885
1831,1811,1858
1812,1835,1895
1799,1815,1891
1825,1918,1882
1824,1872,1871
1805,1774,1877
1805,1771,1889
1812,1797,1879
1840,1818,1887
1851,1766,1841
1823,1790,1872
1809,1840,1889
1819,1843,1903
1826,1873,1893
1819,1824,1867
1850,1743,1841
1843,1758,1837
1806,1872,1920
1792,1860,1947
1808,1835,1881
1845,1854,1865
1834,1885,1857
1806,1808,1859
1814,1789,1858
1835,1792,1875
1829,1790,1876
1831,1774,1867
1833,1841,1878
1829,1833,1875
1834,1810,1874
1813,1803,1882
1834,1812,1866
1851,1747,1808
1855,1764,1835
1819,1829,1866
1811,1936,1907
1820,1861,1904
1826,1814,1890
1826,1792,1875
1830,1822,1871
1849,1898,1884
1831,1837,1847
1808,1744,1847
1820,1825,1873
1834,1805,1867
1826,1776,1855
1826,1794,1861
1830,1833,1865
1845,1831,1850
1854,1762,1825
1819,1811,1887
1825,1866,1889
1818,1895,1874
1826,1875,1865
1808,1826,1859
1823,1830,1862
1847,1887,1855
1831,1805,1845
1825,1792,1867
1843,1824,1870
1840,1851,1844
1824,1821,1843
1827,1749,1825
1827,1728,1821
1846,1793,1868
1819,1869,1889
1808,1851,1882
1835,1830,1856
1845,1840,1887
1824,1843,1887
1797,1810,1859
1823,1821,1861
1843,1835,1849
1840,1871,1853
1821,1839,1895
1827,1802,1866
1840,1809,1847
1849,1821,1841
1817,1789,1840
1838,1802,1808
1859,1797,1819
1819,1806,1872
1802,1830,1891
1823,1840,1884
1845,1831,1858
1831,1823,1833
1820,1799,1840
1823,1830,1877
1827,1855,1878
1835,1841,1865
1819,1827,1871
1835,1835,1854
1855,1860,1852
1854,1866,1850
1818,1788,1861
1808,1796,1849
1827,1827,1846
1827,1770,1803
1839,1776,1831
1826,1862,1902
1831,1893,1877
1815,1826,1842
1810,1771,1833
1840,1806,1863
1835,1854,1864
1824,1844,1856
1839,1824,1874
1840,1839,1840
1830,1861,1856
1820,1834,1852
1818,1802,1855
1833,1824,1856
1851,1810,1835
1851,1797,1821
1827,1860,1864
1806,1837,1882
1818,1846,1879
1838,1838,1841
1821,1803,1818
1821,1838,1858
1835,1863,1873
1829,1840,1865
1818,1808,1857
1837,1856,1895
1843,1829,1809
1850,1797,1779
1823,1808,1835
1808,1836,1886
1831,1859,1869
1825,1826,1843
1813,1808,1838
1839,1829,1844
1869,1819,1837
1814,1837,1856
1809,1872,1849
1829,1856,1850
1842,1861,1867
1846,1796,1847
1817,1761,1834
1820,1846,1852
1834,1918,1884
1827,1851,1856
1827,1818,1845
1833,1825,1839
1845,1807,1840
1852,1793,1853
1835,1803,1859
1818,1859,1859
1830,1882,1854
1849,1819,1840
1821,1855,1872
1839,1837,1839
1857,1789,1806
1829,1869,1870
1808,1847,1877
1825,1851,1853
1843,1845,1841
1840,1817,1831
1826,1807,1851
1840,1842,1863
1856,1862,1851
1840,1818,1821
1826,1803,1827
1828,1811,1825
1837,1829,1837
1830,1855,1861
1828,1839,1858
1861,1842,1853
1872,1842,1840
1853,1829,1846
1830,1845,1856
1823,1850,1823
1827,1872,1856
1819,1833,1861
1822,1863,1854
1839,1819,1845
1858,1825,1855
1847,1833,1850
1853,1792,1829
1846,1837,1826
1837,1872,1839
1840,1831,1839
1846,1824,1787
1831,1856,1856
1836,1879,1866
1835,1853,1861
1830,1831,1840
1840,1847,1837
1846,1859,1830
1849,1787,1813
1840,1815,1808
1824,1845,1869
1831,1885,1879
1846,1901,1871
1837,1838,1843
1828,1855,1822
1837,1821,1839
1833,1810,1842
1830,1823,1851
1840,1847,1856
1856,1856,1846
1840,1825,1821
1828,1818,1827
1847,1842,1833
1874,1835,1823
1840,1786,1833
1818,1840,1862
1813,1862,1871
1838,1860,1847
1840,1838,1831
1839,1805,1811
1843,1841,1855
1853,1857,1856
1840,1856,1831
1829,1840,1825
1836,1860,1853
1858,1882,1847
1855,1829,1835
1837,1808,1827
1841,1842,1840
1858,1904,1819
1840,1826,1827
1820,1775,1811
1855,1757,1792
1854,1835,1830
1835,1879,1875
1833,1859,1859
1840,1852,1846
1856,1894,1835
1856,1850,1834
1845,1810,1843
1849,1799,1821
1862,1830,1821
1865,1858,1840
1826,1846,1840
1827,1853,1839
1859,1838,1807
1854,1827,1810
1827,1834,1823
1845,1853,1838
1866,1870,1840
1872,1796,1796
1847,1790,1813
1825,1895,1862
1844,1880,1856
1846,1839,1844
1836,1818,1829
1842,1838,1826
1851,1849,1833
1850,1844,1840
1841,1805,1819
1847,1851,1833
1856,1875,1844
1840,1842,1825
1829,1830,1814
1849,1851,1831
1858,1863,1830
1847,1843,1827
1841,1838,1829
1843,1855,1827
1872,1870,1828
1854,1842,1826
1837,1833,1830
1840,1851,1831
1849,1862,1830
1853,1846,1823
1852,1843,1817
1867,1802,1792
1856,1871,1840
1841,1872,1842
1831,1843,1831
1847,1863,1842
1869,1883,1862
1858,1856,1830
1838,1831,1808
1843,1844,1811
1856,1867,1831
1843,1849,1817
1834,1838,1805
1840,1856,1813
1853,1866,1824
1846,1842,1823
1834,1828,1829
1855,1856,1847
1879,1879,1850
1872,1866,1835
1850,1843,1834
1854,1852,1840
1854,1855,1838
1850,1839,1823
1852,1840,1829
1846,1843,1835
1853,1853,1835
1840,1830,1806
1852,1840,1819
1858,1853,1845
1868,1871,1845
1844,1843,1835
1819,1807,1819
1813,1808,1819
1823,1815,1805
1872,1859,1826
1905,1903,1870
1887,1894,1865
1876,1889,1853
1861,1869,1829
1862,1850,1815
1884,1877,1839
1875,1885,1872
1827,1840,1861
1808,1797,1831
1846,1831,1830
1874,1856,1823
1888,1856,1841
1895,1875,1867
1914,1904,1885
1904,1895,1855
1847,1838,1821
1786,1765,1793
1843,1829,1819
1936,1933,1894
1926,1905,1872
1871,1845,1827
1835,1834,1818
1840,1840,1825
1859,1851,1831
1847,1837,1837
1808,1811,1814
1792,1788,1799
1838,1823,1823
1886,1869,1854
1890,1872,1862
1843,1834,1834
1808,1806,1825
1804,1795,1819
1862,1846,1861
1903,1888,1853
1861,1840,1807
1824,1791,1808
1856,1839,1855
1895,1873,1856
1877,1854,1839
1835,1799,1820
1799,1776,1807
1801,1776,1801
1856,1820,1840
1890,1850,1853
1871,1845,1843
1837,1824,1836
1826,1807,1837
1850,1820,1843
1853,1829,1821
1871,1847,1849
1847,1806,1811
1765,1713,1758
1744,1698,1760
1858,1819,1829
1910,1872,1871
1872,1835,1872
1869,1843,1841
1889,1872,1828
1872,1837,1817
1830,1779,1806
1825,1787,1821
1868,1840,1842
1874,1831,1811
1841,1792,1807
1826,1778,1794
1815,1786,1791
1804,1759,1785
1840,1792,1823
1872,1824,1826
1879,1845,1809
1877,1834,1785
1851,1801,1784
1832,1801,1829
1832,1795,1839
1822,1772,1744
1853,1795,1770
1843,1808,1819
1869,1821,1791
1872,1813,1772
1873,1820,1809
1871,1823,1822
1879,1850,1829
1870,1822,1793
1810,1753,1744
1805,1740,1747
1872,1823,1803
1906,1840,1811
1893,1808,1850
1841,1781,1799
1857,1811,1758
1894,1834,1781
1865,1802,1808
1833,1793,1813
1827,1777,1772
1812,1733,1721
1850,1780,1765
1872,1830,1798
1916,1869,1830
1893,1840,1853
1831,1765,1769
1862,1806,1793
1904,1853,1854
1886,1811,1825
1848,1769,1744
1828,1775,1721
1891,1840,1859
1883,1811,1840
1846,1751,1709
1838,1799,1729
1841,1803,1717
1854,1796,1776
1847,1766,1781
1872,1799,1762
1897,1856,1795
1886,1842,1823
1833,1766,1744
1825,1765,1739
1858,1811,1756
1882,1820,1834
1832,1755,1753
1820,1760,1776
1840,1776,1728
1878,1803,1733
1876,1808,1802
1861,1805,1818
1865,1807,1745
1865,1795,1727
1861,1765,1715
1862,1791,1739
1878,1835,1763
1863,1817,1778
1838,1764,1773
1860,1796,1804
1907,1854,1803
1915,1853,1808
1856,1785,1750
1822,1771,1765
1851,1783,1740
1878,1808,1749
1851,1778,1776
1846,1774,1776
1881,1840,1794
1878,1826,1805
1859,1791,1807
1855,1805,1815
1879,1835,1869
1842,1777,1745
1825,1746,1703
1846,1796,1786
1903,1842,1838
1871,1810,1815
1809,1751,1799
1817,1763,1744
1865,1809,1760
1877,1833,1815
1872,1810,1872
1838,1791,1843
1870,1837,1916
1856,1789,1768
1820,1747,1741
1860,1814,1818
1871,1840,1828
1853,1802,1771
1834,1767,1771
1843,1782,1814
1853,1834,1845
1852,1813,1829
1840,1798,1871
1851,1809,1853
1868,1831,1853
1829,1803,1859
1821,1774,1778
1872,1821,1793
1887,1840,1831
1849,1826,1835
1818,1803,1843
1825,1799,1844
1842,1813,1823
1843,1805,1808
1809,1770,1856
1789,1755,1835
1837,1808,1859
1867,1845,1936
1841,1808,1895
1822,1786,1791
1839,1806,1821
1817,1779,1870
1802,1759,1851
1826,1797,1835
1856,1824,1854
1851,1834,1851
1834,1792,1855
1823,1793,1861
1872,1854,1915
1840,1819,1861
1802,1769,1811
1813,1798,1855
1834,1823,1863
1840,1833,1893
1808,1786,1903
1801,1792,1865
1837,1827,1866
1847,1830,1895
1811,1789,1871
1805,1786,1875
1819,1809,1863
1834,1819,1901
1802,1767,1854
1808,1798,1872
1819,1820,1849
1824,1822,1890
1808,1798,1938
1791,1795,1908
1819,1821,1876
1830,1838,1856
1786,1776,1867
1782,1771,1865
1808,1805,1834
1786,1781,1845
1831,1825,1919
1878,1873,1964
1872,1892,1942
1839,1845,1904
1805,1797,1935
1797,1782,1882
1830,1831,1856
1827,1818,1834
1815,1803,1904
1827,1821,1948
1840,1842,1900
1854,1857,1904
1834,1830,1936
1813,1818,1911
1842,1847,1915
1837,1840,1901
1814,1811,1935
1809,1805,1876
1837,1826,1869
1822,1829,1916
1774,1783,1906
1783,1809,1970
1819,1840,1920
1838,1827,1843
1802,1790,1839
1787,1794,1904
1814,1840,1937
1821,1819,1903
1786,1774,1898
1783,1806,1974
1824,1843,1973
1821,1825,1841
1815,1807,1856
1830,1839,1917
1850,1867,1922
1845,1869,1933
1814,1833,1939
1793,1807,1904
1817,1827,1889
1814,1825,1949
1787,1776,1910
1791,1796,1879
1818,1824,1878
1830,1829,1920
1811,1817,1924
1819,1840,1953
1850,1872,2000
1827,1840,1899
1785,1789,1853
1790,1803,1891
1810,1831,1886
1815,1834,1903
1785,1805,1919
1771,1796,1917
1821,1851,1920
1843,1857,1918
1799,1808,1897
1786,1798,1895
1834,1859,1938
1890,1905,1987
1856,1862,1972
1819,1840,1936
1806,1822,1837
1820,1810,1890
1825,1817,1933
1808,1837,1935
1815,1842,1869
1834,1840,1887
1822,1815,1921
1806,1820,1946
1805,1811,1863
1806,1808,1854
1830,1830,1922
1834,1830,1907
1837,1851,1900
1829,1861,1930
1802,1813,1914
1793,1809,1924
1835,1857,1905
1855,1872,1890
1833,1856,1970
1808,1830,1899
1833,1859,1865
1823,1847,1898
1805,1826,1939
1808,1827,1915
1823,1838,1828
1809,1826,1840
1783,1807,1920
1817,1854,2027
1845,1877,1946
1841,1871,1849
1818,1819,1895
1801,1797,1879
1834,1856,1882
1839,1872,1911
1808,1824,1907
1804,1823,1904
1808,1835,1873
1817,1835,1875
1813,1823,1904
1826,1825,1913
1840,1862,1905
1845,1883,1923
1830,1848,1966
1808,1815,1899
1810,1836,1872
1814,1830,1856
1822,1823,1886
1839,1855,1958
1857,1883,1957
1841,1846,1885
1809,1811,1907
1780,1793,1856
1814,1835,1860
1823,1823,1856
1807,1815,1879
1811,1835,1909
1850,1872,1932
1831,1837,1909
1794,1808,1904
1812,1820,1902
1857,1872,1871
1872,1882,1904
1830,1834,1905
1782,1809,1877
1824,1845,1840
1846,1861,1903
1808,1809,1877
1814,1823,1862
1851,1875,1902
1854,1885,1983
1806,1815,1942
1782,1782,1808
1854,1843,1839
1875,1873,1900
1811,1810,1866
1792,1805,1862
1840,1856,1906
1859,1871,1909
1856,1843,1890
1840,1854,1933
1852,1885,1949
1808,1824,1814
1782,1791,1825
1813,1823,1874
1851,1877,1959
1827,1840,1872
1793,1799,1815
1803,1823,1873
1838,1861,1940
1823,1813,1826
1811,1803,1817
1810,1824,1872
1819,1840,1872
1835,1840,1873
1845,1851,1947
1843,1852,1947
1840,1851,1839
1841,1840,1792
1820,1831,1875
1826,1840,1950
1838,1845,1892
1822,1834,1809
1796,1806,1809
1796,1808,1856
1840,1856,1888
1869,1872,1904
1853,1847,1936
1810,1818,1917
1808,1828,1814
1846,1850,1842
1868,1867,1948
1856,1850,1904
1841,1839,1818
1840,1827,1814
1814,1799,1866
1808,1806,1889
1823,1840,1896
1840,1855,1879
1820,1826,1884
1823,1821,1898
1840,1849,1869
1855,1859,1863
1839,1841,1925
1794,1785,1831
1818,1808,1817
1863,1853,1863
1851,1833,1893
1830,1840,1925
1826,1840,1863
1824,1825,1885
1798,1788,1854
1815,1802,1858
1851,1843,1835
1857,1863,1828
1840,1840,1882
1823,1834,1903
1827,1833,1832
1824,1827,1844
1827,1824,1887
1837,1838,1866
1859,1872,1870
1859,1855,1882
1817,1818,1852
1813,1823,1856
1815,1825,1851
1851,1867,1907
1835,1835,1891
1813,1808,1853
1810,1815,1796
1829,1835,1839
1850,1851,1932
1846,1854,1927
1842,1840,1808
1851,1853,1808
1825,1823,1877
1813,1833,1914
1838,1836,1835
1856,1857,1844
1839,1829,1872
1819,1807,1850
1846,1841,1869
1856,1846,1855
1845,1833,1861
1824,1822,1851
1818,1818,1842
1831,1825,1841
1856,1840,1888
1843,1840,1901
1854,1856,1891
1853,1853,1856
1835,1827,1873
1829,1830,1910
1855,1857,1894
1851,1856,1872
1830,1819,1852
1837,1833,1872
1858,1878,1883
1864,1869,1895
1847,1838,1946
1829,1818,1919
1853,1857,1882
1856,1844,1817
1839,1811,1843
1819,1819,1856
1856,1856,1857
1859,1856,1877
1833,1818,1872
1853,1849,1936
1886,1885,1936
1857,1847,1827
1815,1809,1827
1822,1808,1840
1860,1857,1878
1860,1856,1886
1840,1814,1874
1817,1794,1861
1854,1851,1897
1871,1885,1975
1843,1842,1883
1828,1814,1798
1837,1831,1799
1841,1829,1840
1833,1818,1904
1847,1837,1930
1866,1852,1840
1881,1867,1855
1850,1845,1919
1794,1781,1846
1840,1830,1851
1878,1872,1877
1850,1836,1845
1821,1821,1846
1829,1839,1836
1826,1824,1837
1827,1813,1867
1840,1831,1857
1870,1878,1919
1858,1863,1930
1820,1794,1803
1818,1799,1812
1866,1863,1872
1874,1868,1861
1826,1818,1831
1813,1823,1851
1837,1842,1858
1863,1870,1904
1837,1827,1872
1809,1798,1850
1837,1835,1833
1869,1863,1866
1843,1841,1868
1831,1831,1846
1836,1840,1847
1842,1841,1873
1833,1830,1882
1840,1849,1874
1856,1861,1868
1840,1837,1824
1831,1805,1810
1847,1827,1858
1872,1873,1887
1855,1869,1889
1808,1810,1866
1808,1813,1817
1856,1859,1845
1869,1859,1879
1817,1808,1859
1814,1808,1868
1854,1851,1874
1851,1851,1863
1825,1809,1858
1841,1840,1906
1852,1859,1858
1841,1855,1869
1822,1821,1893
1846,1856,1914
1872,1879,1872
1858,1854,1837
1840,1839,1911
1813,1819,1897
1840,1841,1853
1845,1851,1839
1833,1829,1885
1824,1829,1872
1846,1865,1902
1857,1871,1944
1807,1795,1869
1776,1761,1797
1834,1820,1834
1887,1866,1897
1863,1842,1936
1823,1811,1871
1851,1846,1844
1875,1869,1899
1851,1821,1911
1837,1818,1907
1851,1845,1888
1851,1855,1894
1815,1809,1893
1824,1818,1882
1858,1870,1904
1855,1851,1923
1821,1813,1906
1848,1865,1935
1878,1898,1923
1873,1874,1884
1838,1810,1853
1812,1795,1861
1843,1835,1903
1856,1831,1902
1836,1819,1909
1841,1840,1961
1872,1860,1965
1841,1830,1872
1813,1795,1858
1811,1808,1904
1852,1845,1938
1863,1845,1935
1838,1821,1949
1828,1818,1933
1861,1865,1943
1872,1867,1965
1853,1842,2016
1840,1845,2064
1845,1828,1882
1863,1847,1937
1846,1822,2002
1841,1839,2030
1839,1833,1950
1829,1799,1869
1845,1811,1954
1847,1829,2013
1868,1856,1971
1872,1858,1976
1821,1803,1975
1808,1806,2032
1855,1851,2035
1846,1840,2007
1838,1817,1993
1843,1840,2064
1840,1841,2015
1838,1831,1984
1829,1808,2000
1829,1806,2014
1843,1831,2021
1863,1866,2073
1857,1840,2064
1823,1808,2023
1840,1835,2006
1849,1838,2005
1829,1802,2037
1827,1805,2058
1859,1850,2013
1871,1856,2001
1835,1817,2039
1839,1829,2103
1827,1811,1999
1829,1815,1956
1851,1827,2019
1867,1847,2059
1871,1855,2013
1872,1861,2023
1840,1813,2037
1825,1803,2021
1840,1811,1968
1861,1847,1999
1825,1806,2019
1837,1833,2069
1858,1856,1985
1878,1863,2019
1825,1805,2014
1800,1778,1919
1834,1825,1934
1875,1875,2053
1856,1840,2019
1840,1819,1975
1838,1831,1980
1842,1827,1966
1847,1822,1982
1819,1811,1957
1840,1843,1952
1863,1845,1967
1847,1820,1994
1815,1781,1951
1841,1838,1959
1887,1893,2036
1857,1833,1945
1839,1810,1946
1855,1835,1915
1856,1829,1913
1839,1808,1949
1840,1808,1953
1850,1830,1911
1855,1840,1970
1839,1813,1981
1840,1826,1934
1851,1847,1920
1841,1826,1936
1808,1796,1919
1808,1792,1920
1854,1843,1907
1863,1856,1906
1845,1833,1936
1830,1817,1929
1847,1849,1921
1853,1853,1961
1805,1791,1936
1782,1766,1887
1842,1838,1894
1889,1892,1943
1857,1841,1936
1829,1828,1949
1840,1829,1833
1851,1838,1835
1854,1842,1937
1837,1823,1957
1823,1815,1867
1854,1856,1930
1833,1802,1911
1811,1788,1899
1824,1821,1930
1843,1833,1904
1843,1815,1904
1847,1828,1941
1856,1853,1961
1851,1856,1930
1839,1835,1970
1822,1808,1947
1841,1840,1910
1855,1844,1921
1834,1830,1995
1840,1837,1995
1863,1842,1963
1853,1824,1942
1843,1842,2020
1837,1838,2032
1838,1839,1933
1840,1817,1881
1808,1783,1918
1814,1804,1979
1866,1869,1975
1874,1861,1973
1827,1817,1969
1819,1815,1957
1845,1859,1949
1858,1864,1965
1841,1822,1973
1810,1804,1987
1823,1821,1915
1857,1854,1917
1856,1831,1962
1840,1817,1968
1835,1825,1930
1847,1840,1958
1843,1822,2000
1819,1803,1921
1841,1829,1913
1840,1818,1904
1818,1792,1909
1850,1835,1981
1866,1867,1952
1872,1861,1921
1835,1804,1892
1808,1791,1904
1846,1843,1937
1857,1849,1933
1812,1790,1925
1818,1811,1995
1863,1842,1920
1876,1852,1872
1831,1802,1873
1815,1796,1923
1844,1837,1919
1838,1832,1875
1826,1808,1898
1840,1811,1909
1840,1835,1904
1861,1870,1931
1835,1821,1905
1818,1807,1892
1856,1846,1872
1843,1824,1845
1827,1790,1887
1826,1794,1892
1846,1839,1881
1853,1843,1857
1842,1817,1910
1856,1820,1905
1867,1849,1853
1848,1826,1811
1824,1793,1851
1838,1811,1887
1854,1843,1886
1855,1837,1847
1852,1835,1893
1839,1830,1903
1833,1802,1775
1839,1791,1774
1818,1793,1850
1840,1808,1868
1876,1861,1840
1889,1871,1856
1854,1828,1857
1826,1807,1843
1840,1840,1888
1847,1824,1807
1846,1818,1822
1841,1824,1860
1842,1840,1824
1842,1838,1820
1840,1817,1859
1835,1829,1865
1851,1837,1841
1841,1823,1799
1802,1789,1804
1805,1799,1840
1851,1833,1841
1875,1857,1825
1849,1836,1827
1831,1824,1872
1843,1835,1854
1861,1839,1813
1849,1811,1830
1860,1837,1867
1859,1851,1822
1843,1839,1819
1809,1780,1827
1814,1792,1840
1879,1867,1819
1877,1866,1808
1822,1811,1827
1805,1804,1844
1841,1845,1839
1862,1851,1849
1807,1776,1766
1811,1787,1777
1840,1849,1814
1856,1847,1841
1821,1805,1840
1813,1806,1821
1853,1854,1849
1869,1851,1808
1847,1812,1808
1799,1783,1817
1790,1776,1734
1845,1822,1772
1872,1845,1822
1886,1871,1945
1858,1862,1872
1816,1801,1739
1794,1767,1762
1825,1806,1821
1875,1865,1815
1861,1843,1790
1827,1789,1770
1829,1803,1815
1862,1854,1823
1870,1870,1826
1826,1830,1813
1808,1808,1808
1863,1878,1882
1846,1844,1788
1811,1790,1762
1821,1803,1830
1831,1846,1836
1840,1840,1808
1803,1793,1749
1811,1793,1766
1827,1839,1788
1839,1837,1798
1798,1792,1790
1813,1814,1818
1866,1871,1827
1863,1875,1840
1835,1824,1846
1810,1807,1802
1818,1829,1744
1861,1863,1798
1847,1833,1841
1824,1818,1822
1819,1819,1758
1830,1820,1753
1844,1837,1795
1853,1847,1837
1856,1870,1851
1850,1854,1848
1798,1787,1811
1796,1782,1776
1857,1840,1755
1853,1851,1791
1833,1837,1860
1831,1815,1862
1839,1827,1785
1838,1839,1783
1798,1787,1776
1795,1796,1824
1850,1849,1832
1863,1855,1829
1830,1808,1759
1812,1807,1787
1841,1845,1812
1836,1824,1790
1803,1778,1776
1817,1806,1839
1871,1872,1857
1862,1866,1783
1818,1806,1775
1808,1786,1775
1855,1847,1821
1876,1877,1895
1845,1820,1792
1829,1795,1775
1835,1830,1763
1840,1836,1770
1841,1821,1809
1857,1846,1900
1843,1846,1840
1841,1829,1772
1828,1814,1782
1821,1810,1808
1829,1815,1745
1840,1817,1770
1860,1852,1846
1841,1830,1827
1825,1808,1789
1830,1798,1742
1852,1811,1837
1846,1841,1889
1840,1835,1779
1849,1830,1757
1829,1800,1775
1821,1793,1808
1838,1810,1776
1872,1855,1808
1848,1825,1824
1823,1797,1808
1840,1845,1813
1866,1850,1826
1813,1799,1859
1830,1807,1822
1865,1851,1767
1868,1857,1806
1840,1811,1799
1817,1787,1797
1820,1804,1758
1855,1847,1777
1845,1840,1818
1829,1823,1871
1831,1824,1822
1847,1842,1807
1825,1795,1783
1815,1794,1796
1855,1850,1846
1863,1846,1804
1821,1803,1765
1820,1815,1799
1838,1829,1799
1863,1852,1821
1849,1841,1832
1843,1846,1855
1859,1865,1871
1851,1840,1813
1802,1790,1798
1825,1836,1867
1856,1856,1806
1845,1830,1746
1822,1805,1791
1810,1798,1806
1825,1826,1805
1853,1846,1823
1833,1824,1850
1808,1811,1834
1834,1840,1776
1865,1869,1834
1835,1824,1830
1817,1813,1821
1833,1825,1808
1826,1818,1805
1831,1807,1772
1834,1825,1782
1846,1856,1806
1869,1863,1840
1840,1811,1837
1798,1791,1835
1809,1814,1831
1866,1859,1840
1853,1835,1793
1823,1812,1789
1840,1840,1846
1840,1829,1802
1819,1795,1754
1802,1789,1783
1824,1827,1808
1875,1879,1872
1857,1834,1821
1834,1825,1802
1853,1853,1808
1840,1837,1831
1803,1779,1801
1813,1792,1808
1867,1860,1859
1874,1869,1881
1824,1814,1792
1803,1791,1767
1831,1830,1801
1860,1863,1835
1824,1821,1802
1808,1808,1803
1834,1851,1847
1859,1859,1863
1824,1804,1814
1818,1798,1803
1822,1814,1776
1841,1842,1813
1834,1821,1834
1810,1807,1830
1841,1840,1840
1855,1842,1829
1839,1815,1841
1810,1793,1815
1839,1823,1803
1859,1846,1831
1855,1833,1867
1840,1829,1872
1846,1843,1841
1838,1818,1778
1799,1775,1791
1815,1809,1857
1862,1856,1902
1873,1861,1883
1839,1827,1825
1819,1807,1799
1835,1833,1776
1855,1840,1802
1830,1810,1843
1802,1803,1839
1840,1841,1840
1875,1870,1849
1846,1840,1868
1831,1839,1875
1843,1856,1853
1838,1845,1809
1804,1791,1792
1792,1778,1791
1829,1824,1799
1887,1886,1853
1866,1855,1883
1821,1815,1837
1835,1837,1827
1850,1841,1822
1852,1857,1968
1833,1849,1927
1826,1829,1770
1819,1808,1702
1813,1788,1733
1824,1806,1808
1850,1855,1851
1872,1873,1854
1857,1845,1869
1834,1813,1843
1834,1825,1826
1847,1839,1853
1844,1824,1872
1846,1819,1889
1853,1856,1884
1859,1845,1803
1840,1805,1775
1810,1798,1813
1835,1837,1853
1855,1859,1853
1835,1831,1825
1815,1827,1871
1831,1830,1791
1867,1859,1799
1840,1827,1840
1814,1808,1855
1834,1839,1855
1843,1839,1851
1837,1829,1842
1831,1835,1845
1842,1850,1837
1845,1840,1824
1835,1830,1865
1828,1824,1865
1844,1841,1842
1853,1838,1805
1825,1807,1791
1803,1789,1819
1825,1825,1818
1861,1851,1869
1856,1852,1904
1838,1833,1856
1833,1830,1829
1827,1824,1826
1840,1827,1854
1847,1838,1863
1857,1842,1838
1849,1840,1821
1830,1813,1851
1829,1822,1863
1849,1853,1840
1871,1862,1868
1826,1807,1809
1814,1794,1797
1840,1845,1854
1851,1840,1835
1846,1818,1819
1842,1829,1862
1842,1841,1839
1845,1829,1811
1821,1797,1808
1813,1798,1808
1840,1839,1831
1856,1855,1841
1849,1833,1857
1838,1819,1870
1855,1840,1858
1869,1859,1861
1828,1809,1859
1828,1808,1850
1860,1866,1831
1867,1846,1781
1847,1797,1785
1837,1807,1852
1831,1818,1840
1834,1817,1804
1839,1827,1872
1839,1825,1856
1835,1834,1813
1843,1845,1818
1853,1859,1889
1856,1862,1951
1854,1856,1838
1840,1839,1766
1808,1795,1795
1819,1803,1840
1858,1847,1872
1840,1834,1815
1819,1803,1817
1830,1815,1858
1870,1873,1884
1873,1861,1827
1840,1824,1811
1818,1809,1809
1826,1823,1833
1845,1841,1841
1871,1846,1889
1851,1830,1871
1851,1845,1829
1840,1840,1808
1815,1801,1831
1808,1796,1870
1850,1851,1903
1889,1891,1909
1871,1855,1863
1840,1821,1829
1840,1840,1813
1858,1854,1855
1840,1830,1881
1814,1789,1851
1831,1815,1801
1858,1846,1827
1863,1845,1891
1835,1823,1871
1855,1858,1899
1856,1856,1933
1808,1776,1786
1817,1799,1790
1857,1852,1818
1872,1856,1853
1829,1804,1840
1801,1774,1825
1860,1855,1868
1877,1855,1851
1869,1845,1920
1830,1819,1920
1815,1809,1808
1842,1817,1772
1856,1813,1810
1862,1840,1895
1859,1855,1889
1854,1842,1852
1821,1808,1867
1816,1809,1865
1839,1849,1866
1841,1834,1858
1830,1808,1829
1822,1808,1799
1841,1830,1808
1862,1855,1845
1840,1826,1872
1835,1826,1878
1866,1871,1890
1852,1847,1872
1827,1811,1839
1841,1819,1831
1875,1872,1866
1870,1862,1872
1851,1840,1870
1815,1826,1918
1826,1834,1897
1827,1810,1769
1806,1786,1766
1836,1817,1841
1860,1859,1874
1847,1842,1872
1837,1832,1870
1847,1843,1863
1869,1872,1872
1866,1875,1927
1817,1807,1782
1818,1796,1790
1861,1859,1872
1899,1894,1878
1840,1832,1844
1805,1814,1845
1824,1821,1821
1853,1840,1826
1860,1839,1885
1841,1823,1916
1849,1845,1908
1859,1867,1886
1840,1825,1794
1837,1814,1826
1847,1840,1831
1869,1869,1894
1847,1845,1922
1816,1802,1851
1820,1830,1808
1837,1831,1811
1837,1825,1869
1828,1815,1875
1852,1855,1872
1883,1894,1942
1840,1840,1892
1805,1789,1808
1817,1823,1825
1840,1841,1841
1861,1851,1882
1845,1845,1904
1831,1838,1841
1833,1829,1838
1828,1819,1855
1823,1809,1853
1839,1848,1871
1837,1845,1837
1827,1817,1850
1839,1837,1887
1862,1872,1897
1863,1865,1841
1842,1834,1840
1843,1840,1887
1842,1846,1891
1841,1834,1849
1821,1802,1815
1808,1809,1846
1840,1842,1875
1861,1852,1879
1855,1835,1919
1826,1823,1887
1823,1814,1793
1825,1807,1761
1838,1808,1840
1861,1862,1924
1870,1866,1863
1856,1851,1840
1820,1808,1844
1810,1811,1886
1838,1845,1857
1866,1873,1846
1844,1840,1862
1810,1818,1862
1833,1834,1826
1846,1851,1823
1840,1840,1870
1831,1846,1922
1852,1872,1904
1853,1852,1883
1797,1774,1781
1797,1781,1781
1855,1850,1829
1852,1842,1834
1830,1813,1855
1847,1840,1909
1870,1870,1925
1853,1849,1841
1837,1813,1830
1830,1819,1851
1827,1829,1819
1840,1844,1825
