1885,1861,1627
1879,1846,1645
1856,1809,1609
1872,1837,1626
1882,1840,1643
1861,1809,1635
1839,1794,1614
1865,1831,1648
1885,1853,1661
1877,1845,1706
1855,1826,1709
1857,1825,1654
1866,1827,1643
1840,1793,1664
1848,1808,1712
1880,1855,1749
1883,1856,1739
1859,1838,1747
1840,1821,1739
1861,1853,1776
1874,1850,1776
1857,1819,1758
1854,1786,1747
1873,1819,1775
1877,1851,1814
1857,1839,1813
1842,1786,1778
1861,1840,1813
1871,1855,1839
1847,1823,1830
1840,1808,1811
1872,1842,1863
1875,1838,1854
1862,1798,1815
1843,1790,1788
1863,1821,1840
1867,1811,1834
1863,1739,1782
1846,1808,1860
1859,1854,1895
1863,1849,1879
1844,1817,1855
1845,1808,1887
1862,1798,1901
1871,1829,1911
1849,1824,1885
1844,1810,1879
1854,1818,1891
1863,1817,1911
1857,1790,1895
1843,1782,1865
1867,1810,1893
1872,1820,1936
1867,1797,1934
1861,1782,1919
1869,1760,1849
1860,1788,1872
1840,1787,1909
1840,1793,1939
1871,1827,1996
1870,1770,1922
1842,1769,1869
1840,1791,1891
1856,1814,1926
1859,1821,1954
1845,1797,1945
1841,1781,1923
1859,1789,1927
1871,1778,1926
1842,1797,1963
1841,1778,1959
1845,1808,1951
1856,1805,1936
1856,1793,1937
1845,1792,1973
1865,1808,1971
1867,1797,1961
1857,1755,1905
1843,1750,1923
1855,1808,1966
1854,1835,1995
1840,1811,1990
1846,1808,1991
1859,1827,1989
1858,1799,1937
1845,1743,1914
1833,1795,1945
1840,1822,1975
1853,1817,1982
1855,1782,1971
1854,1801,1984
1854,1824,1955
1860,1794,1919
1847,1807,1968
1834,1820,1981
1845,1829,1968
1853,1817,1980
1845,1792,1955
1835,1824,1974
1851,1853,1973
1859,1841,1981
1842,1809,1950
1837,1807,1951
1856,1825,1959
1857,1813,1968
1839,1801,1968
1837,1808,1952
1861,1840,1997
1863,1841,1995
1844,1796,1918
1845,1776,1924
1851,1822,1959
1843,1827,1949
1829,1820,1957
1835,1794,1929
1855,1807,1941
1856,1808,1975
1826,1830,1946
1824,1834,1946
1840,1829,1968
1850,1839,1981
1834,1817,1949
1829,1808,1954
1858,1822,2006
1845,1840,1989
1821,1814,1934
1830,1839,1999
1834,1823,1947
1831,1810,1908
1824,1799,1936
1837,1775,1922
1840,1843,1997
1840,1835,1985
1817,1834,1967
1820,1835,1961
1831,1840,1972
1839,1855,1974
1821,1843,1986
1825,1840,1984
1840,1840,1975
1851,1830,2011
1835,1838,2003
1815,1834,1957
1831,1850,1962
1833,1841,1955
1829,1819,1958
1840,1794,1953
1840,1872,2036
1828,1853,2009
1825,1801,1954
1824,1829,1984
1825,1853,1991
1841,1874,2014
1830,1840,1983
1822,1826,1957
1833,1837,1947
1835,1842,1958
1824,1797,1937
1833,1818,1969
1838,1866,1995
1837,1870,1985
1826,1840,1982
1828,1840,1991
1840,1867,2009
1842,1836,1954
1837,1793,1938
1826,1837,1974
1833,1867,1964
1838,1850,1975
1825,1840,1979
1838,1804,1945
1838,1857,1953
1834,1872,1965
1824,1873,1972
1824,1839,1965
1835,1843,1968
1842,1838,1984
1829,1808,1933
1818,1807,1925
1829,1853,1980
1844,1883,2003
1828,1866,1997
1815,1839,1929
1823,1840,1916
1844,1850,1948
1830,1827,1936
1835,1821,1941
1830,1879,1980
1840,1872,1982
1822,1849,1963
1808,1825,1894
1840,1821,1872
1835,1873,1934
1810,1831,1921
1825,1783,1898
1840,1883,1937
1843,1881,1923
1823,1843,1900
1821,1842,1915
1836,1850,1889
1855,1846,1900
1830,1841,1899
1823,1834,1926
1840,1840,1875
1827,1851,1831
1827,1803,1801
1834,1822,1872
1841,1861,1921
1838,1829,1872
1829,1836,1862
1826,1842,1879
1840,1856,1887
1842,1829,1845
1839,1810,1840
1826,1838,1878
1838,1861,1883
1838,1853,1869
1830,1840,1891
1826,1829,1845
1834,1852,1846
1840,1865,1859
1833,1842,1857
1824,1831,1847
1844,1822,1823
1859,1818,1857
1842,1861,1913
1823,1861,1887
1840,1858,1890
1847,1827,1840
1838,1836,1831
1828,1841,1851
1842,1858,1867
1846,1856,1867
1829,1843,1872
1822,1838,1869
1848,1850,1872
1857,1863,1882
1829,1843,1843
1813,1839,1835
1831,1893,1889
1851,1870,1889
1840,1831,1856
1830,1829,1846
1847,1863,1872
1859,1863,1889
1842,1807,1826
1827,1827,1862
1835,1876,1911
1850,1829,1870
1837,1817,1833
1835,1862,1868
1840,1894,1903
1841,1869,1884
1827,1833,1860
1829,1836,1872
1850,1860,1883
1840,1845,1854
1840,1830,1873
1824,1858,1882
1830,1866,1856
1840,1856,1830
1819,1841,1847
1826,1840,1872
1829,1855,1862
1839,1866,1869
1827,1845,1851
1827,1843,1851
1836,1831,1828
1843,1844,1874
1813,1858,1893
1808,1853,1885
1838,1875,1883
1839,1859,1869
1825,1840,1867
1823,1839,1853
1827,1815,1819
1840,1858,1888
1810,1859,1903
1809,1840,1853
1837,1855,1849
1842,1855,1856
1827,1835,1863
1834,1825,1869
1846,1840,1860
1839,1872,1872
1820,1851,1869
1818,1842,1885
1834,1857,1897
1835,1831,1845
1814,1799,1799
1803,1844,1840
1824,1883,1888
1838,1863,1879
1823,1835,1872
1823,1831,1863
1834,1843,1843
1831,1842,1840
1823,1826,1853
1822,1823,1861
1838,1792,1830
1835,1857,1872
1808,1859,1873
1806,1839,1869
1827,1851,1858
1839,1855,1855
1824,1839,1858
1819,1831,1858
1833,1847,1845
1837,1852,1852
1826,1837,1857
1823,1839,1871
1833,1855,1875
1836,1855,1890
1829,1838,1858
1819,1834,1846
1837,1850,1843
1840,1831,1831
1833,1786,1815
1823,1834,1872
1833,1857,1862
1837,1849,1863
1827,1838,1866
1825,1774,1835
1841,1840,1851
1841,1887,1894
1824,1866,1885
1818,1840,1840
1840,1856,1850
1854,1869,1879
1840,1832,1861
1819,1845,1858
1831,1865,1872
1835,1854,1834
1835,1843,1854
1835,1838,1871
1839,1851,1854
1836,1851,1850
1821,1835,1864
1824,1839,1872
1845,1853,1861
1842,1845,1829
1839,1787,1797
1828,1835,1854
1840,1865,1881
1840,1856,1875
1834,1840,1887
1827,1824,1855
1839,1840,1856
1841,1844,1858
1830,1818,1837
1823,1821,1855
1833,1843,1872
1840,1844,1861
1825,1834,1854
1825,1786,1863
1845,1843,1871
1842,1872,1866
1831,1844,1862
1833,1835,1867
1840,1849,1859
1839,1843,1852
1831,1821,1858
1831,1827,1874
1840,1851,1879
1839,1840,1859
1826,1827,1856
1823,1830,1861
1846,1847,1856
1841,1853,1872
1831,1838,1872
1824,1826,1862
1826,1840,1861
1839,1854,1878
1825,1824,1840
1818,1811,1828
1835,1839,1846
1841,1840,1859
1825,1805,1831
1829,1789,1827
1833,1858,1893
1840,1851,1926
1830,1795,1837
1823,1837,1830
1840,1863,1853
1839,1852,1863
1826,1833,1861
1814,1811,1825
1831,1837,1841
1839,1840,1858
1828,1823,1859
1825,1815,1855
1851,1842,1872
1851,1846,1872
1826,1822,1857
1819,1823,1851
1838,1840,1842
1845,1841,1845
1835,1827,1866
1839,1835,1886
1842,1852,1891
1836,1834,1845
1829,1815,1839
1826,1811,1840
1839,1830,1856
1840,1829,1840
1834,1814,1845
1831,1819,1859
1839,1842,1874
1830,1837,1847
1820,1810,1844
1822,1815,1856
1841,1840,1862
1842,1844,1862
1835,1831,1862
1838,1835,1879
1840,1840,1888
1840,1837,1869
1829,1779,1828
1833,1827,1847
1829,1846,1837
1839,1840,1856
1828,1824,1843
1824,1823,1840
1839,1838,1847
1851,1850,1862
1827,1820,1852
1822,1809,1829
1840,1840,1843
1841,1835,1855
1833,1813,1849
1825,1826,1859
1833,1841,1854
1840,1840,1861
1831,1824,1854
1829,1829,1865
1840,1847,1872
1840,1835,1847
1825,1820,1856
1816,1810,1831
1831,1838,1856
1829,1831,1839
1819,1809,1822
1821,1814,1831
1837,1837,1839
1840,1833,1841
1826,1819,1850
1829,1820,1851
1839,1840,1856
1838,1838,1835
1826,1826,1840
1821,1817,1841
1838,1830,1852
1839,1840,1841
1831,1827,1846
1838,1827,1858
1840,1840,1871
1840,1827,1847
1833,1814,1834
1838,1820,1845
1852,1842,1858
1853,1837,1851
1837,1809,1844
1840,1812,1843
1840,1819,1801
1845,1827,1808
1838,1814,1822
1829,1815,1838
1841,1835,1833
1843,1829,1813
1831,1813,1826
1822,1819,1824
1838,1840,1820
1843,1840,1831
1839,1819,1839
1819,1813,1827
1834,1834,1824
1843,1839,1830
1840,1831,1842
1821,1826,1851
1830,1828,1810
1838,1834,1805
1827,1808,1821
1829,1813,1856
1831,1835,1847
1835,1830,1815
1827,1817,1808
1831,1821,1825
1847,1841,1858
1849,1843,1850
1833,1820,1810
1825,1818,1825
1839,1839,1829
1838,1831,1808
1822,1808,1809
1823,1815,1830
1843,1847,1864
1841,1854,1871
1818,1818,1831
1808,1801,1793
1835,1825,1813
1836,1828,1818
1821,1814,1812
1822,1820,1837
1835,1840,1840
1851,1850,1843
1830,1821,1827
1831,1827,1837
1840,1839,1827
1847,1837,1824
1834,1822,1823
1834,1834,1851
1850,1856,1869
1840,1831,1812
1831,1816,1806
1819,1795,1762
1831,1819,1754
1838,1835,1776
1839,1823,1808
1824,1809,1780
1831,1825,1769
1840,1834,1779
1837,1808,1782
1835,1813,1792
1843,1827,1789
1842,1843,1794
1830,1838,1806
1824,1808,1755
1824,1810,1729
1837,1820,1750
1829,1808,1767
1826,1808,1776
1839,1835,1779
1847,1833,1773
1838,1814,1782
1826,1821,1814
1833,1823,1758
1838,1818,1742
1827,1808,1762
1821,1808,1761
1837,1839,1777
1837,1831,1771
1817,1808,1749
1819,1808,1761
1834,1839,1785
1833,1837,1774
1821,1813,1761
1826,1826,1781
1837,1843,1781
1839,1834,1776
1822,1818,1776
1830,1829,1793
1842,1841,1797
1839,1844,1785
1827,1822,1767
1832,1822,1783
1840,1842,1774
1842,1840,1776
1835,1824,1781
1830,1821,1806
1841,1835,1785
1853,1834,1771
1840,1824,1785
1840,1822,1808
1846,1828,1797
1843,1823,1785
1830,1806,1777
1830,1802,1786
1840,1827,1786
1847,1834,1808
1837,1811,1809
1831,1817,1815
1845,1840,1817
1845,1840,1796
1838,1815,1795
1830,1821,1817
1840,1831,1783
1840,1839,1781
1835,1818,1798
1827,1821,1811
1838,1840,1816
1841,1838,1807
1831,1821,1807
1835,1841,1862
1839,1836,1824
1840,1838,1810
1822,1808,1806
1814,1802,1758
1832,1830,1782
1839,1840,1819
1833,1819,1810
1831,1825,1815
1847,1840,1826
1853,1850,1825
1837,1828,1819
1839,1829,1843
1841,1840,1827
1844,1841,1814
1840,1838,1839
1840,1840,1830
1839,1840,1809
1853,1842,1829
1840,1813,1815
1834,1819,1821
1845,1840,1830
1848,1846,1840
1840,1828,1840
1840,1825,1843
1844,1827,1824
1851,1841,1853
1835,1814,1821
1826,1814,1807
1845,1841,1831
1855,1841,1839
1835,1814,1826
1835,1811,1822
1840,1829,1829
1854,1843,1840
1840,1823,1851
1834,1812,1829
1839,1834,1842
1847,1843,1872
1836,1821,1849
1831,1808,1817
1846,1828,1817
1857,1840,1839
1843,1827,1850
1833,1811,1823
1840,1829,1823
1847,1840,1831
1839,1824,1840
1834,1827,1870
1843,1840,1863
1844,1838,1853
1837,1817,1841
1840,1808,1829
1849,1830,1840
1845,1831,1842
1839,1813,1862
1840,1815,1874
1846,1835,1846
1850,1840,1838
1832,1808,1819
1829,1808,1834
1843,1830,1847
1847,1845,1856
1837,1833,1858
1833,1821,1850
1847,1843,1858
1855,1849,1864
1840,1835,1861
1839,1834,1876
1846,1843,1875
1846,1840,1866
1829,1823,1850
1835,1827,1869
1843,1839,1845
1842,1838,1846
1838,1827,1857
1831,1813,1840
1842,1839,1845
1851,1855,1873
1840,1824,1862
1834,1824,1855
1843,1845,1870
1850,1842,1867
1828,1827,1867
1834,1821,1862
1840,1839,1853
1841,1846,1860
1835,1838,1877
1831,1826,1887
1835,1825,1841
1842,1830,1815
1842,1822,1837
1839,1825,1856
1856,1841,1872
1849,1833,1857
1843,1815,1859
1834,1808,1854
1841,1827,1868
1843,1834,1872
1841,1821,1887
1831,1811,1857
1842,1826,1846
1845,1834,1861
1840,1814,1872
1840,1818,1879
1851,1833,1862
1852,1845,1875
1840,1821,1881
1830,1814,1875
1841,1831,1872
1845,1842,1871
1825,1821,1849
1833,1819,1865
1846,1842,1882
1856,1841,1872
1840,1821,1866
1834,1819,1867
1841,1830,1855
1845,1835,1855
1839,1830,1862
1838,1835,1872
1841,1841,1862
1856,1847,1881
1842,1817,1870
1834,1811,1862
1852,1845,1889
1852,1844,1874
1834,1821,1847
1829,1814,1855
1842,1844,1872
1851,1855,1888
1839,1828,1871
1840,1830,1877
1837,1838,1839
1842,1841,1843
1834,1835,1842
1829,1819,1855
1840,1840,1860
1849,1841,1869
1839,1831,1856
1838,1834,1883
1840,1843,1872
1840,1842,1857
1826,1827,1859
1830,1815,1843
1841,1845,1859
1851,1850,1887
1841,1824,1871
1830,1823,1862
1839,1841,1866
1843,1840,1844
1830,1815,1847
1825,1821,1859
1838,1844,1873
1840,1840,1872
1840,1825,1872
1825,1819,1869
1837,1840,1872
1840,1843,1881
1826,1814,1841
1829,1824,1846
1846,1840,1834
1851,1854,1860
1843,1840,1887
1831,1829,1872
1825,1820,1845
1823,1819,1840
1845,1842,1873
1846,1846,1874
1851,1855,1873
1842,1844,1878
1824,1811,1849
1815,1811,1839
1828,1823,1851
1831,1823,1853
1858,1844,1866
1872,1865,1902
1855,1866,1903
1833,1834,1865
1827,1818,1844
1858,1852,1867
1869,1868,1895
1835,1831,1872
1808,1783,1856
1839,1803,1867
1872,1853,1872
1867,1866,1871
1853,1851,1865
1838,1838,1863
1818,1822,1843
1821,1813,1845
1856,1840,1874
1873,1867,1899
1859,1868,1887
1831,1839,1871
1827,1816,1858
1853,1849,1871
1866,1856,1879
1850,1841,1885
1838,1831,1882
1829,1814,1867
1835,1824,1869
1867,1854,1902
1851,1831,1874
1840,1833,1868
1862,1853,1887
1879,1872,1872
1861,1842,1831
1823,1811,1793
1810,1803,1789
1808,1789,1798
1863,1842,1838
1885,1870,1840
1871,1866,1842
1870,1863,1822
1843,1827,1781
1821,1806,1776
1825,1814,1771
1840,1826,1793
1850,1839,1793
1831,1812,1761
1839,1823,1749
1872,1853,1770
1855,1840,1775
1813,1797,1749
1823,1813,1744
1841,1845,1769
1844,1839,1776
1872,1855,1776
1871,1867,1763
1856,1847,1754
1808,1792,1727
1813,1803,1759
1820,1817,1758
1827,1806,1701
1855,1829,1714
1861,1846,1773
1887,1886,1788
1878,1886,1781
1808,1808,1758
1760,1743,1695
1845,1829,1711
1923,1909,1779
1891,1872,1779
1840,1834,1758
1827,1830,1774
1809,1808,1767
1790,1771,1735
1823,1806,1778
1872,1863,1787
1865,1857,1771
1835,1820,1744
1834,1827,1790
1844,1854,1788
1862,1863,1785
1857,1849,1794
1805,1803,1776
1802,1805,1759
1856,1847,1771
1877,1847,1787
1840,1835,1819
1817,1817,1818
1830,1835,1802
1835,1830,1737
1808,1808,1682
1793,1834,1661
1840,1842,1657
1881,1831,1747
1869,1813,1875
1861,1852,1950
1840,1841,1853
1811,1785,1743
1787,1754,1741
1809,1781,1757
1888,1843,1804
1948,1853,1808
1899,1819,1811
1735,1773,1749
1755,1808,1738
1824,1841,1792
1865,1862,1824
1857,1869,1830
1843,1849,1773
1815,1801,1715
1808,1780,1733
1812,1809,1764
1826,1815,1781
1810,1792,1754
1827,1798,1734
1890,1866,1771
1862,1835,1758
1798,1756,1684
1771,1760,1748
1895,1894,1803
1971,1919,1776
1980,1871,1765
1947,1808,1718
1840,1835,1725
1841,1853,1717
1847,1854,1732
1781,1813,1705
1810,1808,1680
1825,1827,1706
1845,1824,1731
1851,1818,1686
1887,1886,1738
1911,1907,1738
1872,1847,1691
1834,1798,1680
1840,1813,1764
1871,1834,1687
1933,1871,1648
1871,1840,1648
1863,1854,1648
1903,1883,1701
1939,1902,1806
1891,1821,1711
1849,1801,1627
1945,1856,1629
2000,1887,1798
1847,1845,1760
1764,1826,1604
1854,1866,1633
1911,1882,1751
1857,1819,1712
1808,1795,1678
1851,1839,1678
1967,1920,1802
1947,1903,1787
1872,1825,1615
1882,1863,1637
1885,1840,1715
1890,1842,1799
1872,1837,1666
1882,1834,1603
1909,1838,1659
1879,1843,1728
1867,1875,1714
1890,1884,1680
1886,1856,1722
1857,1823,1735
1842,1822,1688
1863,1861,1696
1858,1839,1786
1877,1840,1760
1905,1879,1712
1917,1903,1729
1887,1857,1759
1867,1840,1785
1872,1845,1790
1870,1843,1749
1854,1806,1673
1863,1818,1785
1911,1886,1849
1889,1863,1716
1865,1813,1695
1872,1818,1766
1864,1837,1833
1870,1863,1778
1885,1858,1760
1900,1851,1794
1894,1850,1808
1856,1845,1759
1904,1877,1872
1863,1839,1863
1834,1798,1718
1840,1823,1740
1841,1840,1809
1860,1841,1869
1892,1871,1856
1877,1836,1790
1831,1808,1781
1793,1774,1773
1843,1829,1808
1929,1918,1903
1900,1863,1867
1813,1787,1771
1806,1801,1730
1851,1847,1834
1875,1841,1861
1877,1850,1863
1887,1862,1825
1872,1875,1842
1846,1854,1871
1831,1825,1890
1872,1867,1862
1901,1890,1838
1829,1840,1808
1807,1825,1814
1840,1855,1839
1879,1873,1831
1847,1855,1813
1804,1843,1857
1849,1904,1921
1869,1917,1951
1842,1884,1884
1814,1859,1863
1808,1856,1828
1851,1904,1894
1849,1893,1935
1810,1840,1873
1819,1869,1819
1853,1904,1847
1829,1863,1873
1807,1854,1920
1825,1895,1941
1840,1906,1908
1856,1879,1873
1844,1875,1926
1842,1901,1904
1873,1922,1888
1806,1891,1919
1776,1830,1879
1770,1839,1871
1853,1915,1926
1871,1909,1941
1826,1872,1911
1834,1894,1898
1857,1931,1929
1825,1883,1933
1802,1842,1911
1810,1870,1914
1837,1883,1851
1837,1890,1893
1815,1895,1977
1815,1895,1905
1825,1892,1875
1815,1855,1893
1799,1851,1987
1822,1888,1963
1846,1911,1872
1820,1872,1870
1826,1853,1890
1830,1872,1907
1814,1893,1947
1792,1847,1906
1807,1845,1901
1813,1891,1932
1841,1906,1946
1822,1873,1929
1805,1861,1930
1818,1874,1968
1817,1866,1881
1824,1871,1886
1820,1854,1936
1820,1877,1947
1856,1914,1967
1845,1879,1962
1803,1863,1949
1808,1872,1919
1838,1893,1936
1815,1859,1935
1788,1853,1919
1803,1867,1929
1839,1904,1972
1817,1863,1968
1792,1831,1936
1808,1842,1901
1821,1877,1909
1840,1875,1969
1824,1856,1967
1808,1861,1967
1818,1885,1962
1808,1843,1894
1794,1809,1893
1811,1855,1957
1846,1904,1984
1851,1877,1963
1822,1862,1968
1805,1871,1968
1801,1856,1946
1795,1829,1951
1787,1811,1963
1794,1840,1941
1807,1869,1903
1818,1856,1934
1813,1835,1963
1825,1868,2005
1807,1861,1991
1773,1803,1890
1802,1810,1905
1840,1856,1950
1847,1887,1991
1810,1845,1979
1776,1790,1913
1815,1834,1904
1845,1870,1936
1802,1839,1945
1801,1833,2000
1823,1854,1963
1836,1855,1893
1823,1855,1937
1797,1828,1957
1799,1837,1922
1808,1846,1928
1808,1825,1958
1803,1819,1989
1819,1840,1923
1834,1858,1926
1808,1834,1930
1801,1823,1953
1831,1851,1942
1842,1860,1952
1822,1830,1936
1813,1813,1928
1854,1850,1940
1863,1873,1964
1776,1808,1911
1732,1771,1862
1776,1805,1895
1847,1872,1973
1840,1839,1933
1808,1817,1923
1808,1825,1917
1822,1845,1895
1817,1834,1919
1823,1819,1941
1840,1840,1943
1842,1860,1939
1837,1838,1958
1806,1797,1923
1811,1828,1931
1831,1842,1910
1819,1807,1905
1806,1795,1943
1804,1815,1924
1838,1857,1934
1842,1856,1978
1809,1806,1920
1808,1799,1866
1820,1834,1889
1818,1824,1951
1803,1789,1909
1822,1815,1889
1840,1833,1879
1839,1827,1943
1808,1809,1969
1831,1814,1916
1831,1825,1891
1802,1790,1854
1799,1801,1893
1856,1866,1983
1858,1869,1969
1798,1797,1875
1779,1770,1841
1814,1815,1872
1845,1840,1915
1837,1821,1981
1808,1792,1927
1824,1817,1911
1837,1830,1873
1838,1815,1922
1817,1808,1929
1820,1804,1872
1839,1822,1876
1830,1798,1907
1793,1783,1953
1803,1808,1986
1819,1810,1861
1818,1802,1840
1819,1799,1891
1823,1824,1907
1841,1844,1903
1865,1868,2006
1795,1778,1903
1806,1776,1803
1847,1839,1860
1829,1819,1904
1805,1805,1949
1826,1821,1910
1826,1823,1873
1825,1818,1922
1821,1808,1914
1823,1808,1857
1837,1808,1818
1838,1813,1895
1840,1825,1968
1840,1827,1905
1821,1824,1850
1818,1811,1886
1821,1806,1925
1819,1803,1904
1847,1833,1938
1845,1828,1936
1830,1799,1874
1830,1802,1834
1817,1802,1846
1797,1782,1861
1776,1763,1882
1839,1823,1899
1872,1847,1878
1841,1815,1872
1810,1806,1891
1834,1822,1899
1830,1823,1915
1808,1808,1911
1797,1808,1919
1815,1825,1856
1856,1840,1882
1812,1790,1846
1792,1773,1862
1801,1775,1836
1839,1840,1872
1856,1846,1935
1819,1814,1922
1829,1825,1902
1846,1847,1875
1839,1839,1894
1821,1814,1964
1813,1818,1886
1824,1806,1805
1808,1781,1793
1818,1775,1841
1821,1802,1883
1865,1872,1918
1817,1807,1872
1796,1767,1870
1840,1839,1919
1859,1871,1932
1811,1802,1872
1779,1754,1806
1829,1818,1855
1882,1869,1936
1833,1819,1895
1808,1805,1897
1825,1817,1860
1847,1843,1870
1823,1805,1870
1808,1773,1869
1825,1802,1855
1852,1841,1870
1849,1826,1893
1805,1779,1871
1799,1775,1845
1809,1792,1870
1843,1814,1879
1842,1811,1890
1847,1839,1866
1857,1849,1861
1843,1835,1923
1824,1815,1928
1813,1799,1839
1829,1819,1839
1826,1797,1851
1820,1792,1887
1834,1823,1895
1871,1857,1905
1839,1806,1854
1780,1743,1770
1807,1797,1817
1861,1860,1881
1856,1853,1885
1822,1808,1871
1851,1827,1887
1861,1850,1907
1836,1814,1879
1811,1803,1872
1823,1826,1906
1855,1842,1846
1835,1819,1840
1808,1790,1877
1795,1775,1825
1808,1776,1790
1836,1810,1834
1838,1824,1897
1866,1849,1915
1861,1847,1871
1847,1818,1847
1826,1803,1889
1822,1810,1856
1847,1834,1863
1846,1823,1878
1811,1783,1866
1851,1828,1855
1863,1846,1850
1810,1797,1827
1797,1793,1894
1833,1830,1886
1853,1838,1817
1838,1810,1813
1825,1809,1849
1831,1826,1884
1836,1830,1862
1830,1792,1815
1825,1811,1890
1859,1841,1904
1852,1827,1851
1837,1814,1865
1839,1801,1838
1849,1818,1824
1849,1840,1825
1841,1814,1813
1826,1805,1857
1819,1819,1887
1841,1823,1855
1842,1819,1878
1823,1779,1853
1839,1817,1890
1842,1823,1830
1846,1826,1823
1833,1808,1858
1841,1811,1863
1841,1842,1903
1818,1785,1808
1794,1771,1802
1840,1831,1863
1863,1850,1869
1848,1822,1847
1821,1809,1889
1828,1820,1871
1839,1815,1790
1846,1806,1827
1827,1792,1867
1810,1821,1857
1848,1850,1855
1863,1840,1860
1840,1820,1858
1817,1808,1840
1833,1833,1846
1849,1830,1869
1815,1789,1824
1821,1811,1814
1863,1866,1899
1850,1833,1885
1802,1787,1818
1818,1810,1808
1841,1825,1845
1844,1824,1867
1845,1811,1870
1854,1838,1904
1873,1852,1870
1840,1810,1827
1799,1787,1845
1821,1827,1926
1840,1835,1847
1843,1818,1815
1840,1804,1811
1845,1824,1830
1845,1830,1843
1809,1807,1846
1808,1801,1875
1839,1825,1840
1860,1838,1810
1851,1824,1855
1834,1819,1911
1815,1823,1905
1815,1807,1832
1838,1822,1847
1837,1808,1839
1840,1814,1808
1846,1841,1829
1850,1839,1886
1827,1797,1872
1823,1811,1840
1835,1822,1845
1858,1830,1859
1847,1821,1904
1840,1809,1806
1846,1843,1821
1839,1818,1825
1836,1794,1840
1839,1819,1865
1862,1855,1890
1856,1840,1894
1809,1791,1835
1824,1810,1833
1859,1845,1837
1858,1835,1845
1823,1805,1871
1827,1819,1877
1843,1839,1886
1843,1835,1862
1835,1818,1819
1854,1846,1841
1854,1851,1870
1829,1808,1867
1813,1783,1813
1840,1799,1794
1845,1840,1861
1839,1825,1866
1826,1811,1863
1848,1842,1898
1859,1843,1882
1835,1793,1817
1823,1793,1811
1841,1829,1843
1853,1855,1882
1845,1850,1965
1808,1791,1872
1806,1781,1778
1862,1832,1795
1854,1831,1851
1811,1796,1864
1845,1840,1904
1871,1865,1922
1841,1823,1882
1802,1793,1840
1836,1831,1862
1872,1868,1900
1854,1818,1836
1814,1786,1795
1834,1833,1855
1863,1856,1875
1872,1826,1872
1846,1813,1890
1820,1821,1847
1844,1831,1840
1835,1818,1849
1818,1817,1883
1826,1826,1852
1854,1853,1854
1839,1830,1843
1830,1808,1855
1845,1839,1871
1870,1868,1894
1846,1840,1897
1823,1817,1885
1843,1853,1927
1856,1844,1856
1855,1825,1874
1840,1808,1857
1842,1827,1831
1856,1847,1815
1866,1850,1869
1840,1837,1899
1829,1820,1871
1843,1826,1827
1851,1835,1840
1859,1843,1891
1856,1854,1895
1841,1843,1884
1840,1830,1867
1840,1841,1904
1847,1872,1943
1855,1851,1875
1839,1824,1851
1823,1808,1863
1844,1815,1885
1875,1856,1924
1844,1827,1931
1823,1787,1919
1834,1819,1955
1861,1861,1946
1847,1831,1925
1844,1839,1978
1851,1856,1982
1883,1860,1955
1871,1840,1943
1838,1824,1970
1809,1815,1947
1843,1840,1935
1872,1856,2000
1827,1810,1974
1817,1805,1925
1840,1825,1930
1835,1824,1968
1847,1823,1997
1858,1845,1985
1872,1876,1965
1863,1872,2026
1849,1857,2039
1825,1839,1950
1823,1818,1904
1854,1846,1966
1841,1829,1984
1845,1840,1996
1856,1846,1974
1840,1828,1971
1808,1802,1942
1819,1818,1919
1861,1874,1963
1865,1872,2013
1810,1815,1970
1826,1829,1931
1837,1831,1902
1839,1823,1911
1817,1821,1970
1834,1847,1984
1875,1878,1985
1858,1856,1969
1814,1822,1970
1811,1815,1919
1843,1845,1922
1846,1834,1939
1808,1813,1952
1809,1829,1942
1879,1889,1985
1867,1871,1968
1813,1814,1956
1822,1830,1950
1856,1872,1971
1839,1839,1926
1831,1810,1906
1847,1847,1947
1850,1838,1905
1818,1815,1895
1820,1815,1968
1827,1833,1968
1829,1836,1875
1854,1847,1904
1856,1847,1969
1863,1859,1961
1893,1872,1949
1808,1798,1857
1792,1807,1897
1814,1835,1910
1827,1834,1874
1833,1830,1907
1827,1815,1914
1842,1839,1861
1859,1843,1861
1831,1814,1881
1798,1808,1920
1833,1845,1921
1856,1861,1902
1852,1845,1899
1818,1815,1872
1841,1830,1872
1842,1854,1889
1835,1839,1894
1821,1809,1886
1830,1839,1882
1845,1847,1867
1838,1840,1877
1817,1799,1888
1821,1810,1852
1840,1837,1840
1855,1841,1877
1842,1835,1920
1841,1845,1867
1855,1843,1809
1838,1821,1842
1836,1827,1893
1853,1853,1903
1841,1834,1830
1834,1809,1828
1837,1822,1854
1866,1856,1870
1869,1856,1865
1840,1839,1904
1804,1801,1872
1817,1814,1793
1839,1840,1779
1838,1837,1813
1841,1840,1875
1858,1859,1892
1865,1861,1863
1811,1807,1827
1787,1781,1827
1848,1846,1899
1888,1904,1850
1844,1852,1802
1811,1808,1822
1825,1808,1807
1858,1863,1836
1861,1858,1873
1835,1832,1891
1833,1826,1825
1855,1839,1792
1863,1853,1850
1837,1821,1870
1808,1806,1817
1834,1843,1837
1855,1846,1851
1840,1819,1819
1838,1827,1818
1842,1824,1797
1822,1794,1808
1812,1805,1814
1843,1835,1839
1860,1861,1840
1841,1841,1840
1808,1807,1834
1835,1822,1794
1870,1854,1808
1867,1868,1855
1819,1807,1795
1827,1827,1798
1871,1872,1857
1863,1862,1847
1825,1807,1813
1821,1806,1786
1836,1840,1826
1837,1837,1858
1829,1818,1842
1889,1865,1838
1872,1858,1817
1840,1818,1819
1808,1786,1743
1830,1817,1779
1884,1865,1836
1859,1849,1840
1827,1823,1811
1838,1819,1778
1841,1829,1781
1841,1834,1823
1826,1808,1840
1851,1840,1818
1887,1879,1847
1874,1862,1869
1841,1815,1843
1817,1805,1763
1829,1823,1762
1826,1811,1803
1819,1817,1834
1825,1830,1825
1829,1820,1782
1842,1821,1779
1857,1834,1798
1870,1862,1833
1866,1868,1819
1838,1836,1839
1794,1789,1795
1845,1834,1803
1879,1872,1808
1856,1840,1795
1808,1799,1795
1831,1838,1835
