1869,1831,1840
1840,1862,1876
1808,1856,1879
1849,1807,1841
1838,1850,1870
1833,1872,1863
1835,1840,1838
1843,1808,1851
1863,1837,1855
1878,1830,1840
1818,1852,1840
1821,1851,1858
1845,1843,1872
1842,1827,1847
1840,1839,1839
1840,1778,1827
1858,1847,1877
1858,1926,1872
1850,1789,1814
1840,1818,1879
1851,1856,1877
1853,1856,1855
1856,1840,1859
1852,1821,1861
1856,1838,1861
1858,1856,1856
1863,1825,1866
1854,1842,1883
1859,1854,1841
1858,1866,1822
1851,1865,1837
1851,1851,1860
1859,1809,1853
1847,1853,1866
1855,1856,1862
1851,1831,1845
1858,1835,1847
1858,1846,1852
1851,1829,1852
1858,1844,1869
1856,1781,1865
1861,1814,1816
1858,1803,1803
1853,1839,1874
1856,1778,1838
1852,1888,1867
1841,1923,1886
1837,1887,1877
1845,1854,1862
1868,1870,1872
1862,1824,1867
1860,1805,1855
1859,1862,1841
1855,1902,1861
1849,1877,1861
1845,1837,1840
1850,1841,1835
1861,1856,1839
1875,1820,1834
1863,1819,1830
1865,1791,1818
1842,1907,1873
1857,1862,1850
1843,1869,1856
1843,1837,1831
1846,1781,1825
1841,1814,1865
1840,1858,1895
1838,1898,1872
1851,1907,1860
1857,1874,1877
1845,1854,1850
1837,1863,1837
1854,1868,1838
1854,1872,1847
1851,1863,1883
1859,1847,1903
1854,1857,1875
1827,1829,1807
1837,1859,1840
1863,1871,1853
1855,1819,1798
1840,1908,1808
1846,1872,1808
1858,1803,1840
1840,1910,1920
1828,1920,1838
1833,1819,1792
1852,1769,1821
1843,1810,1870
1830,1808,1847
1835,1769,1814
1839,1856,1872
1841,1856,1874
1858,1871,1870
1856,1860,1862
1847,1857,1872
1850,1830,1857
1854,1825,1842
1840,1847,1859
1857,1817,1859
1857,1827,1861
1861,1898,1899
1856,1872,1874
1849,1891,1840
1855,1846,1817
1836,1808,1801
1835,1835,1808
1822,1927,1865
1839,1836,1873
1840,1867,1815
1827,1746,1818
1832,1840,1899
1856,1886,1907
1841,1842,1856
1817,1776,1841
1845,1735,1827
1855,1871,1867
1857,1841,1856
1857,1818,1873
1828,1872,1848
1808,1934,1862
1820,1893,1871
1823,1846,1869
1842,1853,1866
1850,1861,1885
1867,1866,1907
1853,1771,1878
1824,1792,1791
1840,1814,1805
1840,1847,1821
1826,1797,1843
1857,1773,1871
1845,1881,1884
1858,1838,1811
1826,1778,1822
1818,1868,1879
1831,1856,1870
1827,1859,1872
1821,1791,1884
1808,1810,1881
1823,1843,1873
1831,1841,1850
1823,1815,1859
1827,1823,1867
1840,1839,1859
1826,1830,1849
1825,1803,1850
1827,1817,1851
1842,1850,1853
1840,1781,1827
1839,1804,1856
1823,1880,1906
1829,1877,1874
1827,1806,1817
1835,1739,1843
1869,1897,1901
1843,1869,1863
1793,1801,1823
1798,1766,1834
1811,1872,1854
1823,1852,1850
1825,1881,1825
1811,1795,1825
1809,1747,1853
1833,1808,1819
1817,1818,1849
1805,1840,1876
1823,1842,1875
1839,1823,1858
1826,1855,1841
1824,1842,1835
1827,1822,1836
1839,1795,1828
1851,1714,1801
1810,1862,1870
1813,1893,1878
1840,1882,1869
1828,1814,1844
1808,1744,1802
1829,1872,1829
1835,1867,1870
1840,1796,1839
1818,1853,1875
1813,1862,1882
1847,1753,1793
1849,1776,1823
1819,1889,1861
1808,1834,1890
1817,1843,1857
1803,1779,1808
1808,1752,1817
1811,1853,1859
1840,1857,1873
1830,1823,1847
1805,1742,1802
1810,1799,1847
1831,1859,1872
1831,1845,1858
1829,1830,1875
1844,1803,1857
1845,1812,1835
1834,1813,1831
1826,1781,1814
1833,1808,1831
1839,1871,1851
1842,1883,1872
1835,1835,1848
1840,1775,1833
1847,1723,1703
1837,1790,1846
1803,1861,1942
1796,1877,1902
1837,1861,1829
1816,1786,1823
1822,1779,1840
1823,1795,1856
1826,1792,1840
1831,1809,1831
1841,1783,1832
1846,1823,1843
1831,1859,1859
1826,1841,1857
1830,1817,1859
1849,1821,1859
1852,1805,1842
1855,1758,1810
1843,1776,1812
1836,1883,1863
1834,1856,1857
1842,1790,1859
1840,1770,1842
1831,1861,1840
1840,1867,1840
1841,1853,1837
1830,1812,1854
1834,1807,1849
1856,1778,1793
1822,1799,1841
1822,1790,1856
1827,1733,1814
1843,1863,1867
1819,1871,1883
1823,1815,1874
1836,1809,1853
1855,1834,1813
1855,1807,1821
1828,1729,1817
1803,1803,1850
1826,1851,1847
1840,1839,1845
1840,1814,1847
1825,1808,1839
1837,1821,1851
1835,1833,1837
1840,1746,1839
1839,1838,1850
1827,1893,1845
1837,1831,1825
1840,1664,1792
1829,1849,1872
1814,1926,1873
1837,1899,1833
1824,1777,1778
1808,1745,1863
1814,1802,1871
1839,1825,1857
1840,1792,1855
1844,1798,1855
1834,1810,1842
1847,1757,1788
1840,1827,1830
1834,1850,1882
1819,1905,1873
1840,1879,1863
1853,1851,1867
1826,1792,1837
1811,1807,1826
1815,1781,1814
1835,1791,1835
1834,1835,1857
1839,1891,1846
1854,1774,1791
1850,1722,1811
1820,1857,1890
1825,1829,1877
1833,1859,1842
1831,1850,1859
1839,1830,1854
1846,1858,1835
1833,1859,1827
1822,1808,1840
1840,1823,1851
1852,1788,1815
1834,1826,1845
1822,1833,1865
1829,1719,1808
1863,1809,1809
1831,1878,1860
1815,1904,1874
1803,1835,1862
1855,1791,1794
1822,1808,1840
1808,1851,1878
1830,1843,1871
1836,1823,1846
1850,1810,1831
1855,1711,1804
1825,1831,1841
1817,1877,1882
1829,1867,1889
1827,1831,1860
1840,1815,1855
1859,1853,1863
1847,1783,1808
1841,1805,1825
1829,1878,1855
1859,1859,1831
1847,1811,1843
1822,1840,1913
1810,1847,1864
1823,1871,1814
1815,1810,1826
1842,1755,1821
1846,1840,1863
1825,1789,1799
1798,1792,1853
1810,1823,1840
1820,1795,1871
1809,1747,1861
1819,1877,1869
1815,1888,1861
1812,1895,1841
1811,1842,1837
1808,1833,1837
1822,1822,1808
1808,1866,1854
1805,1831,1875
1827,1833,1856
1833,1697,1830
1812,1858,1844
1824,1776,1825
1808,1900,1837
1808,1806,1850
1795,1817,1878
1810,1811,1875
1803,1882,1855
1794,1854,1831
1814,1819,1819
1841,1805,1813
1804,1850,1866
1800,1808,1869
1825,1866,1847
1829,1819,1819
1803,1846,1867
1797,1834,1866
1817,1750,1843
1813,1825,1856
1807,1843,1858
1790,1845,1846
1813,1793,1815
1864,1709,1776
1808,1840,1875
1814,1837,1965
1827,1787,1835
1773,1813,1788
1765,1853,1808
1795,1832,1822
1811,1821,1840
1825,1835,1841
1834,1836,1846
1840,1845,1840
1830,1800,1867
1809,1798,1840
1811,1770,1783
1837,1824,1808
1823,1872,1871
1819,1855,1869
1817,1792,1844
1830,1721,1828
1840,1771,1882
1835,1872,1840
1829,1815,1778
1808,1822,1838
1792,1843,1866
1822,1957,1863
1809,1823,1868
1810,1797,1865
1822,1808,1850
1825,1825,1840
1825,1827,1840
1840,1747,1837
1819,1801,1855
1808,1859,1845
1808,1850,1838
1823,1765,1814
1821,1789,1884
1838,1910,1872
1838,1855,1793
1805,1810,1859
1791,1795,1884
1809,1751,1814
1836,1789,1779
1817,1788,1849
1803,1849,1841
1818,1839,1839
1799,1894,1873
1798,1860,1877
1811,1776,1844
1827,1707,1808
1831,1839,1858
1820,1846,1859
1819,1857,1863
1828,1843,1844
1834,1817,1840
1829,1809,1840
1830,1849,1861
1853,1819,1813
1837,1689,1794
1776,1867,1874
1786,1922,1889
1788,1875,1840
1808,1794,1827
1811,1776,1866
1819,1778,1831
1825,1867,1858
1826,1871,1855
1831,1824,1833
1831,1818,1831
1818,1863,1873
1831,1826,1865
1825,1792,1845
1835,1759,1829
1855,1777,1808
1825,1904,1843
1834,1859,1847
1834,1762,1846
1817,1844,1888
1795,1840,1872
1814,1785,1810
1823,1747,1819
1820,1879,1873
1827,1895,1895
1830,1846,1883
1826,1820,1835
1852,1841,1817
1835,1826,1837
1846,1801,1815
1846,1670,1751
1798,1895,1911
1806,1904,1922
1813,1833,1873
1835,1792,1840
1819,1856,1817
1817,1854,1840
1813,1826,1843
1817,1861,1872
1829,1842,1854
1840,1840,1847
1840,1809,1845
1830,1826,1849
1835,1843,1858
1828,1825,1870
1840,1771,1829
1840,1822,1831
1837,1909,1865
1833,1903,1872
1840,1872,1856
1845,1753,1829
1843,1801,1847
1827,1875,1887
1840,1851,1849
1870,1772,1838
1818,1862,1871
1789,1856,1852
1830,1823,1836
1809,1765,1839
1840,1737,1811
1809,1847,1854
1815,1872,1872
1830,1875,1873
1842,1797,1829
1831,1797,1838
1824,1748,1852
1846,1747,1872
1835,1965,1841
1821,1872,1810
1809,1722,1821
1843,1712,1841
1851,1872,1913
1840,1875,1876
1845,1849,1867
1843,1822,1851
1843,1797,1811
1835,1850,1854
1840,1837,1833
1839,1789,1837
1849,1798,1854
1858,1857,1872
1838,1824,1849
1854,1740,1808
1838,1867,1843
1839,1879,1866
1846,1831,1856
1878,1779,1863
1875,1794,1842
1841,1872,1851
1833,1809,1856
1840,1844,1862
1855,1873,1823
1831,1862,1823
1824,1795,1869
1826,1742,1889
1835,1803,1851
1840,1827,1829
1846,1821,1840
1873,1779,1830
1861,1792,1845
1840,1856,1879
1841,1839,1868
1855,1775,1808
1850,1907,1869
1846,1902,1878
1845,1837,1890
1859,1825,1856
1845,1862,1836
1850,1857,1821
1842,1855,1840
1856,1777,1832
1854,1851,1843
1857,1872,1859
1855,1857,1857
1847,1814,1873
1861,1714,1782
1867,1782,1776
1849,1935,1862
1825,1921,1951
1837,1838,1904
1839,1839,1829
1845,1804,1842
1857,1823,1890
1856,1819,1843
1853,1804,1818
1851,1782,1814
1846,1835,1846
1853,1885,1873
1854,1870,1875
1828,1741,1797
1838,1695,1791
1838,1901,1872
1840,1936,1893
1830,1897,1874
1840,1833,1879
1847,1857,1845
1858,1826,1787
1844,1859,1847
1813,1847,1872
1839,1763,1833
1857,1742,1791
1853,1735,1826
1831,1874,1927
1847,1877,1922
1859,1791,1849
1834,1876,1813
1839,1883,1820
1837,1851,1830
1840,1829,1867
1845,1834,1831
1840,1827,1804
1843,1851,1812
1855,1854,1838
1841,1834,1840
1849,1834,1841
1855,1852,1856
1860,1843,1837
1850,1835,1841
1847,1841,1848
1852,1840,1841
1856,1831,1835
1853,1776,1829
1879,1773,1818
1889,1744,1779
1814,1907,1874
1813,1927,1872
1786,1775,1865
1805,1718,1843
1835,1823,1801
1824,1871,1869
1808,1850,1872
1815,1858,1856
1833,1837,1853
1846,1819,1856
1835,1808,1863
1858,1834,1855
1851,1840,1872
1854,1812,1829
1852,1813,1823
1842,1835,1838
1842,1840,1852
1853,1826,1843
1857,1807,1837
1856,1851,1856
1878,1775,1783
1863,1666,1741
1834,1872,1871
1823,1869,1906
1819,1861,1894
1839,1819,1856
1854,1775,1869
1888,1872,1823
1819,1923,1806
1789,1797,1840
1794,1772,1893
1830,1834,1887
1859,1726,1827
1844,1780,1820
1847,1825,1835
1840,1847,1843
1835,1885,1868
1840,1858,1863
1844,1827,1872
1859,1865,1856
1858,1818,1850
1832,1808,1829
1866,1693,1793
1865,1744,1832
1823,1907,1908
1796,2025,1878
1796,1797,1872
1830,1840,1857
1834,1776,1801
1822,1779,1808
1836,1792,1840
1861,1799,1844
1855,1824,1849
1840,1825,1840
1857,1793,1808
1865,1783,1807
1840,1798,1835
1853,1809,1857
1819,1966,1894
1810,1936,1869
1819,1836,1863
1839,1823,1871
1855,1835,1875
1846,1823,1839
1840,1737,1819
1830,1755,1787
1823,1731,1829
1815,1904,1879
1835,1919,1857
1839,1828,1887
1839,1726,1792
1840,1776,1792
1866,1921,1865
1824,1895,1857
1838,1850,1865
1840,1865,1861
1851,1831,1840
1836,1816,1814
1837,1808,1794
1825,1901,1842
1847,1842,1851
1843,1792,1839
1826,1776,1875
1834,1840,1859
1828,1872,1842
1840,1805,1849
1827,1821,1844
1840,1837,1831
1840,1838,1860
1840,1855,1895
1845,1872,1866
1840,1837,1862
1830,1814,1817
1845,1694,1776
1859,1782,1814
1842,1843,1837
1829,1905,1861
1810,1918,1876
1844,1884,1870
1844,1879,1822
1821,1741,1814
1810,1742,1861
1840,1763,1869
1863,1838,1853
1834,1858,1826
1819,1845,1839
1843,1840,1859
1855,1840,1855
1858,1788,1819
1843,1839,1875
1846,1866,1886
1851,1856,1848
1865,1790,1827
1854,1829,1866
1840,1885,1873
1849,1886,1882
1845,1851,1863
1867,1776,1830
1857,1744,1799
1827,1858,1835
1850,1703,1810
1837,1929,1934
1808,1934,1874
1793,1776,1850
1808,1793,1872
1827,1790,1850
1840,1822,1840
1854,1844,1840
1843,1831,1862
1825,1808,1884
1843,1806,1889
1845,1846,1840
1840,1862,1815
1833,1830,1841
1842,1796,1850
1863,1746,1845
1840,1866,1859
1829,1824,1853
1837,1817,1862
1842,1851,1867
1849,1824,1822
1831,1943,1877
1809,1857,1888
1822,1840,1867
1840,1827,1858
1840,1836,1876
1840,1827,1867
1835,1837,1851
1840,1841,1836
1845,1829,1863
1850,1839,1889
1843,1835,1842
1849,1819,1840
1840,1814,1854
1849,1799,1838
1850,1866,1861
1828,1872,1856
1823,1835,1849
1835,1852,1865
1861,1791,1840
1841,1830,1824
1827,1853,1840
1829,1877,1850
1843,1907,1856
1834,1875,1873
1818,1840,1874
1837,1839,1842
1843,1824,1841
1843,1808,1820
1839,1776,1839
1840,1875,1877
1847,1879,1840
1843,1870,1858
1799,1840,1870
1809,1841,1872
1838,1856,1861
1847,1772,1840
1872,1790,1857
1825,1921,1904
1826,1893,1854
1824,1927,1793
1803,1851,1878
1839,1822,1872
1867,1825,1792
1823,1877,1841
1799,1923,1859
1803,1865,1876
1834,1865,1851
1824,1743,1806
1824,1830,1845
1827,1869,1869
1841,1871,1857
1840,1837,1834
1843,1779,1838
1835,1871,1873
1829,1884,1872
1831,1898,1872
1838,1862,1840
1841,1835,1840
1867,1799,1829
1862,1861,1859
1831,1872,1869
1831,1825,1841
1816,1851,1850
1819,1875,1847
1815,1861,1865
1839,1811,1834
1844,1831,1841
1837,1841,1825
1838,1813,1826
1824,1881,1889
1827,1907,1883
1824,1867,1808
1809,1806,1866
1810,1841,1889
1825,1822,1820
1824,1820,1826
1819,1841,1861
1825,1840,1851
1840,1856,1862
1840,1840,1838
1829,1831,1837
1837,1833,1851
1845,1855,1839
1831,1808,1840
1829,1773,1845
1830,1729,1829
1862,1774,1827
1855,1882,1875
1808,1919,1904
1802,1915,1859
1829,1886,1843
1826,1854,1847
1838,1831,1871
1838,1863,1910
1835,1904,1872
1823,1807,1797
1817,1778,1808
1821,1805,1833
1838,1830,1840
1835,1829,1834
1833,1792,1851
1824,1761,1851
1835,1839,1814
1839,1776,1763
1813,1846,1879
1796,1889,1875
1813,1885,1850
1825,1891,1856
1824,1840,1844
1824,1872,1862
1826,1872,1884
1815,1827,1841
1819,1845,1821
1829,1838,1871
1839,1834,1850
1840,1829,1823
1840,1840,1841
1841,1841,1867
1846,1822,1859
1831,1739,1776
1809,1798,1824
1820,1907,1873
1834,1879,1872
1843,1847,1854
1811,1840,1856
1826,1821,1851
1845,1803,1840
1833,1862,1842
1808,1849,1855
1823,1850,1862
1839,1837,1846
1850,1821,1842
1827,1835,1839
1840,1857,1856
1851,1855,1862
1822,1833,1844
1808,1829,1844
1808,1807,1847
1853,1748,1801
1842,1819,1872
1840,1811,1844
1810,1899,1872
1830,1882,1826
1823,1875,1855
1814,1798,1861
1817,1825,1875
1830,1850,1846
1840,1857,1843
1840,1776,1842
1835,1811,1862
1827,1811,1808
1829,1862,1841
1826,1879,1871
1833,1847,1865
1843,1845,1856
1856,1841,1853
1839,1833,1844
1834,1834,1853
1840,1856,1877
1843,1820,1853
1862,1762,1831
1849,1855,1872
1815,1851,1824
1830,1793,1797
1831,1872,1840
1853,1866,1852
1840,1719,1806
1842,1713,1824
1787,1910,1898
1794,1920,1899
1827,1858,1852
1842,1835,1835
1827,1702,1799
1825,1775,1824
1840,1911,1870
1839,1894,1865
1828,1840,1860
1826,1823,1840
1842,1840,1846
1855,1801,1837
1851,1810,1847
1842,1808,1841
1845,1823,1840
1840,1878,1872
1826,1843,1818
1831,1808,1815
1841,1827,1851
1842,1841,1822
1835,1776,1838
1833,1772,1818
1831,1810,1826
1815,1835,1833
1835,1717,1799
1867,1776,1845
1843,1987,1929
1818,1920,1887
1817,1766,1798
1825,1808,1808
1821,1874,1849
1829,1890,1849
1831,1828,1859
1853,1751,1861
1821,1776,1827
1826,1850,1870
1846,1808,1853
1830,1760,1799
1829,1734,1798
1849,1935,1988
1927,2035,2233
1803,1700,1747
1747,1729,1535
1814,1936,1863
2000,1973,2153
1842,1744,1879
1770,1684,1589
1776,1535,1554
1779,1715,1771
1775,1861,1884
1857,1862,1870
1851,1859,1884
1838,1871,1968
1781,1735,1938
1772,1737,1705
1899,1753,1772
1899,1759,1930
1787,1763,1978
1808,1735,1726
1792,1854,1786
1792,1966,1943
1827,1841,1991
1795,1776,1810
1829,1714,1696
1855,1759,1787
1899,1931,2183
1840,1719,1792
1791,1663,1535
1854,1761,1693
2022,1997,2081
1916,1822,1961
1719,1743,1675
1685,1829,1699
1764,1787,1798
1890,1879,1943
1894,1844,1939
1798,1768,1807
1764,1706,1712
1790,1758,1789
1818,1856,1859
1904,1879,1978
1897,1808,1933
1808,1706,1720
1757,1717,1680
1857,1926,1937
1921,1883,2127
1849,1867,2035
1779,1745,1520
1764,1639,1573
1750,1840,1815
1781,1865,1904
1840,1830,1994
1818,1697,1881
1786,1740,1691
1863,1775,1728
1808,1739,1753
1823,1787,1911
1758,1893,1974
1776,1907,1811
1750,1677,1718
1770,1771,1913
1829,1864,1922
1809,1861,1934
1807,1810,1846
1808,1761,1795
1772,1651,1714
1777,1783,1742
1830,1872,1943
1853,1765,1930
1815,1856,1963
1791,1817,1776
1781,1869,1814
1698,1690,1719
1783,1802,1897
1872,1921,1988
1814,1776,1706
1828,1803,1779
1762,1750,1829
1812,1765,1856
1795,1682,1808
1730,1825,1795
1751,1839,1872
1799,1806,1959
1762,1815,1904
1763,1795,1813
1808,1834,1899
1792,1858,1876
1767,1807,1815
1814,1697,1845
1844,1776,1802
1776,1901,1895
1804,1919,2094
1806,1796,1805
1911,1830,1798
1803,1830,1776
1754,1824,1771
1794,1706,1854
1785,1756,1850
1778,1795,1886
1783,1837,1826
1776,1811,1787
1823,1831,1895
1856,1776,1984
1792,1802,1806
1776,1904,1841
1846,1925,2017
1826,1826,1969
1777,1826,1799
1772,1809,1673
1813,1878,1871
1856,1731,1878
1795,1802,1872
1776,1719,1840
1799,1786,1859
1779,1859,1834
1802,1880,1856
1806,1855,1895
1776,1856,1927
1777,1872,1808
1814,1883,1875
1824,1858,1945
1856,1840,1907
1851,1840,1923
1814,1810,1809
1776,1808,1770
1785,1685,1799
1806,1754,1890
1847,1795,1888
1843,1925,1993
1811,1907,1915
1771,1872,1809
1755,1775,1797
1783,1857,1875
1821,1842,1885
1841,1846,1879
1818,1856,1919
1849,1895,1981
1803,1814,1797
1785,1804,1712
1808,1776,1831
1835,1826,1936
1889,1738,1851
1873,1854,1930
1806,1833,1818
1789,1946,1823
1792,1842,1883
1785,1839,1984
1840,1866,2000
1761,1852,1782
1776,1811,1776
1845,1819,1909
1826,1853,1897
1806,1801,1856
1811,1808,1865
1843,1868,1923
1850,1842,1847
1847,1783,1798
1842,1815,1915
1776,1780,1773
1797,1897,1847
1847,1869,1894
1943,1888,2033
1876,1872,1891
1760,1830,1765
1762,1886,1891
1830,1846,1973
1830,1769,1791
1794,1851,1790
1821,1765,1838
1826,1700,1833
1810,1891,1916
1841,1915,2002
1869,1866,2041
1829,1719,1809
1824,1745,1729
1854,1898,1903
1842,1878,1920
1796,1830,1823
1805,1867,1825
1871,1907,2046
1858,1837,1965
1852,1779,1730
1870,1866,1801
1904,1782,1837
1802,1825,1865
1768,1804,1887
1825,1814,1901
1850,1855,2047
1835,1722,1766
1797,1693,1776
1786,1847,1814
1837,1906,1919
1862,1849,1949
1856,1810,1942
1925,1965,2019
1827,1870,1789
1769,1791,1685
1789,1808,1779
1843,1840,1882
1909,1863,1863
1867,1859,1907
1808,1943,1904
1835,1757,1878
1888,1811,1921
1814,1834,1859
1783,1700,1753
1869,1840,1945
1791,1861,1887
1800,1818,1761
1845,1818,1826
1894,1925,2011
1887,1740,1921
1842,1801,1735
1789,1860,1818
1814,1904,1897
1859,1920,1966
1872,1851,1915
1877,1810,1779
1846,1775,1778
1811,1788,1878
1882,1748,1866
1863,1860,2029
1819,1821,1901
1825,1902,1865
1785,1808,1812
1790,1712,1777
1836,1867,1872
1855,1821,1866
1831,1871,1834
1841,1939,1892
1870,1854,1904
1865,1827,1921
1829,1834,1869
1819,1789,1771
1861,1837,1903
1881,1808,1958
1827,1686,1747
1776,1744,1746
1808,1890,1916
1855,1871,1845
1867,1936,1898
1831,1853,1910
1809,1840,1927
1794,1808,1779
1827,1817,1787
1847,1798,1891
1885,1797,1917
1860,1903,1914
1868,1859,1818
1807,1851,1904
1869,1922,2032
1862,1843,1813
1842,1829,1797
1850,1706,1782
1849,1914,1825
1891,1859,1904
1850,1750,1923
1798,1861,1765
1808,1840,1790
1837,1870,1866
1867,1861,2034
1811,1792,1875
1792,1782,1757
1822,1799,1802
1846,1824,1923
1856,1907,1953
1856,1916,1901
1867,1837,1941
1843,1753,1738
1872,1850,1776
1845,1857,1783
1840,1921,1830
1847,1721,1838
1872,1872,2012
1833,1902,1866
1835,1879,1767
1874,1830,1874
1854,1829,1917
1864,1874,1887
1843,1888,1840
1817,1882,1757
1788,1750,1793
1871,1744,1871
1886,1838,1985
1838,1931,1926
1821,1840,1758
1872,1838,1805
1846,1779,1837
1819,1799,1787
1840,1789,1830
1883,1795,1906
1935,1888,1945
1894,1949,1935
1792,1893,1830
1767,1871,1808
1808,1836,1808
1850,1818,1805
1861,1827,1818
1862,1853,1823
1921,1685,1815
1820,1903,1955
1776,1889,1955
1837,1792,1753
1891,1748,1771
1919,1887,2025
1811,1856,1901
1822,1845,1762
1802,1808,1739
1836,1811,1871
1872,1802,1903
1887,1859,1802
1881,1872,1770
1881,1815,1823
1801,1831,1854
1817,1795,1829
1850,1883,1833
1892,1847,1888
1909,1792,1952
1803,1841,1814
1799,1783,1709
1820,1850,1875
1850,1813,1905
1872,1805,1859
1884,1879,1862
1844,1875,1891
1819,1858,1791
1850,1853,1792
1840,1844,1875
1831,1746,1787
1835,1816,1773
1850,1866,1811
1872,1882,1857
1869,1845,1901
1881,1840,1830
1872,1856,1810
1891,1847,1895
1894,1825,1941
1808,1765,1726
1821,1766,1811
1857,1915,1961
1854,1856,1785
1833,1829,1761
1876,1821,1806
1856,1891,1889
1851,1875,1957
1860,1745,1875
1843,1776,1722
1885,1851,1776
1872,1879,1853
1843,1860,1948
1865,1825,1958
1843,1791,1847
1841,1789,1769
1856,1782,1805
1823,1834,1780
1837,1758,1776
1845,1737,1792
1871,1853,1898
1851,1970,1957
1872,1935,1792
1823,1826,1809
1840,1809,1881
1856,1822,1904
1855,1750,1797
1847,1731,1823
1836,1857,1888
1877,1891,1878
1892,1839,1840
1886,1735,1819
1841,1807,1919
1847,1872,1853
1850,1816,1791
1839,1755,1773
1850,1822,1917
1839,1888,1854
1822,1860,1795
1859,1823,1840
1859,1859,1979
1849,1882,1865
1850,1814,1783
1838,1831,1865
1826,1756,1765
1872,1735,1746
1939,1934,1812
1987,1987,1904
1839,1589,1889
1728,1762,1934
1750,1840,1885
1798,1831,1763
1820,1857,1809
1863,1856,1936
1875,1793,1840
1897,1826,1849
1867,1834,1852
1842,1920,1938
1859,1881,1806
1831,1715,1721
1808,1733,1808
1837,1834,1856
1867,1886,1875
1840,1809,1807
1808,1830,1817
1857,1728,1782
1955,1904,2060
1883,1861,1946
1807,1807,1907
1765,1744,1773
1805,1815,1737
1882,1847,1887
1820,1813,1787
1808,1828,1779
1844,1833,1870
1882,1834,1938
1874,1761,1826
1843,1814,1791
1859,1842,1794
1873,1814,1805
1855,1962,1981
1829,1827,1881
1852,1619,1712
1811,1773,1835
1819,1891,2058
1809,1919,1936
1795,1831,1680
1808,1786,1680
1838,1830,1866
1936,1878,1965
1920,1838,1878
1826,1706,1725
1814,1811,1855
1825,1808,1851
1798,1809,1805
1813,1846,1806
1853,1885,1874
1837,1867,1904
1840,1822,1817
1871,1830,1969
1897,1691,1842
1867,1756,1823
1775,1863,1740
1798,1878,1808
1907,1840,1882
1887,1871,1861
1853,1731,1874
1807,1778,1847
1792,1795,1793
1819,1903,1834
1887,1914,1887
1882,1857,1969
1842,1854,1864
1841,1839,1725
1855,1888,1882
1841,1841,1929
1836,1737,1782
1842,1772,1792
1865,1840,1899
1873,1725,1922
1808,1840,1802
1826,1845,1737
1915,1671,1776
1909,1777,1890
1807,1901,1863
1760,1909,1830
1813,1908,1890
1855,1856,1887
1856,1816,1767
1826,1807,1777
1874,1926,1910
1872,1914,1997
1849,1730,1870
1857,1648,1643
1809,1856,1743
1819,1900,1895
1878,1904,1973
1853,1822,1869
1859,1819,1791
1844,1869,1889
1819,1851,1843
1839,1851,1846
1920,1852,1908
1919,1777,1942
1823,1833,1791
1797,1773,1681
1831,1795,1818
1834,1865,1919
1861,1890,1921
1853,1837,1806
1840,1831,1805
1863,1843,1933
1872,1744,1798
1883,1791,1766
1792,1818,1821
1794,1890,1856
1847,1873,1899
1894,1897,1929
1850,1833,1791
1812,1826,1758
1847,1882,1856
1885,1846,2032
1872,1823,1947
1838,1786,1778
1813,1789,1734
1873,1861,1936
1872,1899,1990
1849,1830,1742
1859,1732,1691
1856,1753,1807
1853,1870,1941
1852,1839,1830
1831,1793,1781
1819,1817,1879
1840,1844,1922
1808,1889,1931
1814,1904,1872
1894,1972,1855
1872,1813,1808
1799,1697,1818
1805,1783,1842
1851,1771,1777
1858,1889,1818
1871,1846,1911
1888,1859,1963
1833,1776,1798
1806,1750,1788
1845,1827,1984
1806,1863,1835
1826,1869,1741
1856,1838,1797
1888,1841,1936
1904,1920,2000
1826,1856,1795
1827,1877,1785
1873,1856,1891
1879,1841,2031
1846,1755,1749
1854,1743,1687
1831,1850,1838
1841,1882,1906
1857,1841,1876
1808,1805,1830
1764,1749,1770
1821,1644,1783
1840,1873,1903
1813,1931,1866
1802,1909,1851
1862,1887,1995
1895,1930,1965
1872,1808,1798
1831,1822,1827
1836,1830,1830
1871,1787,1879
1830,1835,1846
1851,1864,1760
1833,1891,1776
1781,1843,1813
1805,1808,1879
1819,1870,1955
1826,1725,1891
1840,1822,1828
1813,1904,1766
1859,1834,1874
1850,1808,1904
1840,1795,1872
1868,1804,1856
1904,1900,2007
1886,1919,1954
1791,1846,1681
1744,1807,1705
1808,1805,1855
1839,1844,1858
1856,1886,1925
1839,1857,1879
1803,1769,1729
1829,1850,1866
1873,1761,1924
1886,1788,1840
1809,1776,1761
1794,1795,1813
1821,1934,1917
1852,1930,2001
1879,1776,1943
1856,1744,1783
1770,1840,1691
1808,1854,1785
1830,1889,1917
1847,1869,2083
1830,1806,1853
1789,1749,1625
1815,1769,1702
1857,1823,1873
1865,1850,1915
1845,1744,1773
1889,1837,1923
1829,1879,1979
1808,1883,1966
1817,1828,1817
1831,1810,1829
1833,1895,1842
1810,1888,1803
1869,1872,1882
1904,1762,1965
1836,1622,1808
1815,1782,1804
1777,1876,1761
1792,1898,1825
1803,1875,1869
1856,1926,1911
1863,1858,1920
1832,1694,1750
1817,1830,1776
1840,1835,1859
1892,1859,1862
1904,1866,1949
1840,1834,1885
1774,1841,1773
1764,1829,1779
1840,1871,1978
1872,1733,1894
1904,1741,1790
1810,1911,1861
1792,1884,1726
1778,1798,1757
1833,1826,1882
1872,1879,2000
1846,1791,1856
1856,1805,1745
1821,1817,1766
1812,1852,1863
1888,1851,1949
1830,1803,1886
1818,1806,1770
1835,1875,1799
1856,1920,1936
1824,1755,1809
1806,1701,1782
1859,1911,1971
1887,2005,1991
1815,1815,1807
1771,1737,1728
1834,1709,1734
1878,1808,1831
1869,1911,1977
1866,1936,2011
1815,1909,1794
1823,1777,1807
1813,1699,1825
1847,1772,1767
1873,1747,1797
1810,1824,1881
1786,1909,1919
1815,1920,1920
1853,1876,1778
1836,1777,1799
1838,1839,1901
1859,1878,1904
1881,1870,1951
1862,1748,1808
1800,1855,1831
1788,1811,1790
1843,1813,1765
1876,1738,1855
1878,1904,1926
1838,1860,1842
1808,1891,1872
1812,1856,1855
1859,1694,1797
1883,1766,1767
1798,1812,1797
1827,1889,1871
