1841,1858,1848
1837,1838,1850
1825,1835,1853
1833,1843,1846
1851,1873,1844
1831,1853,1846
1837,1758,1802
1858,1786,1824
1821,1940,1879
1779,1839,1866
1791,1808,1868
1819,1873,1856
1834,1856,1829
1818,1792,1856
1808,1794,1857
1829,1839,1846
1839,1851,1843
1827,1819,1847
1825,1821,1851
1821,1837,1845
1825,1850,1845
1827,1826,1843
1840,1806,1852
1850,1833,1841
1843,1819,1799
1843,1805,1833
1813,1840,1875
1789,1862,1878
1803,1860,1857
1828,1838,1854
1840,1840,1846
1819,1881,1849
1799,1822,1858
1803,1819,1851
1813,1801,1847
1826,1856,1845
1830,1815,1846
1809,1819,1853
1806,1810,1860
1809,1840,1861
1840,1843,1858
1836,1830,1857
1830,1835,1856
1840,1871,1857
1845,1853,1854
1824,1829,1856
1809,1819,1853
1821,1846,1847
1837,1826,1809
1819,1770,1805
1821,1803,1868
1819,1877,1904
1839,1855,1874
1831,1823,1839
1833,1838,1861
1848,1825,1863
1803,1826,1859
1802,1817,1854
1837,1837,1859
1834,1842,1851
1811,1810,1841
1829,1841,1847
1819,1834,1838
1811,1815,1851
1812,1827,1857
1809,1813,1855
1831,1829,1861
1840,1831,1856
1834,1834,1844
1831,1835,1850
1855,1807,1854
1847,1783,1808
1821,1776,1834
1797,1907,1867
1798,1805,1856
1823,1811,1857
1822,1857,1862
1821,1803,1859
1808,1777,1856
1810,1811,1858
1814,1854,1851
1807,1829,1853
1824,1868,1855
1814,1803,1835
1819,1809,1846
1841,1824,1854
1825,1840,1853
1835,1843,1848
1825,1818,1849
1820,1802,1845
1822,1823,1849
1859,1834,1831
1851,1867,1843
1811,1856,1857
1803,1791,1856
1822,1744,1810
1836,1838,1857
1855,1914,1850
1849,1783,1860
1806,1813,1875
1802,1840,1861
1823,1813,1858
1822,1810,1859
1839,1856,1857
1835,1873,1863
1825,1824,1856
1838,1822,1850
1843,1830,1855
1840,1885,1845
1837,1838,1829
1837,1808,1859
1840,1827,1856
1840,1789,1840
1861,1798,1830
1821,1857,1847
1822,1840,1837
1843,1806,1806
1830,1825,1863
1818,1832,1878
1809,1818,1855
1810,1838,1861
1825,1871,1846
1827,1856,1853
1840,1861,1857
1835,1854,1861
1823,1840,1851
1842,1855,1837
1859,1851,1861
1849,1805,1842
1830,1840,1843
1836,1857,1851
1861,1782,1838
1822,1781,1853
1807,1888,1877
1795,1840,1869
1835,1829,1854
1847,1829,1862
1830,1829,1872
1815,1852,1873
1810,1843,1866
1827,1842,1859
1823,1833,1859
1825,1845,1865
1828,1872,1867
1828,1863,1853
1835,1840,1855
1834,1887,1851
1840,1857,1851
1837,1846,1843
1828,1776,1845
1835,1792,1853
1849,1874,1839
1853,1823,1811
1810,1894,1878
1798,1815,1872
1809,1793,1873
1831,1792,1861
1815,1783,1843
1810,1840,1857
1815,1871,1862
1818,1871,1860
1827,1840,1856
1831,1846,1859
1840,1858,1861
1841,1867,1854
1840,1847,1855
1840,1851,1859
1845,1865,1859
1831,1870,1857
1843,1902,1853
1817,1787,1849
1831,1806,1851
1831,1786,1838
1833,1845,1887
1796,1834,1876
1814,1843,1867
1813,1840,1857
1809,1834,1857
1827,1856,1871
1841,1872,1846
1837,1827,1822
1814,1805,1856
1809,1813,1884
1815,1843,1870
1817,1857,1855
1814,1840,1854
1837,1840,1854
1851,1871,1859
1846,1906,1852
1824,1824,1851
1812,1819,1855
1819,1794,1840
1822,1808,1836
1826,1893,1857
1831,1895,1849
1824,1765,1811
1811,1829,1872
1805,1825,1875
1808,1840,1877
1838,1859,1857
1840,1874,1854
1821,1841,1854
1808,1827,1851
1834,1840,1843
1843,1831,1843
1840,1902,1867
1838,1866,1840
1821,1840,1853
1826,1823,1850
1826,1788,1839
1835,1846,1868
1818,1838,1856
1823,1801,1809
1821,1856,1869
1817,1856,1887
1825,1855,1869
1821,1841,1855
1814,1882,1851
1809,1835,1841
1822,1855,1856
1829,1817,1854
1819,1795,1853
1829,1870,1855
1825,1839,1846
1831,1807,1834
1814,1837,1857
1823,1859,1862
1826,1813,1829
1821,1871,1821
1808,1866,1855
1815,1872,1871
1829,1858,1857
1811,1839,1842
1808,1826,1839
1828,1827,1851
1847,1837,1851
1845,1810,1855
1823,1807,1853
1828,1787,1818
1831,1855,1846
1826,1850,1870
1808,1833,1871
1833,1856,1863
1838,1844,1866
1818,1843,1871
1808,1808,1841
1808,1837,1830
1835,1837,1838
1840,1837,1844
1839,1847,1857
1820,1845,1856
1814,1822,1837
1823,1799,1825
1831,1872,1851
1829,1849,1855
1862,1798,1833
1823,1826,1840
1787,1793,1837
1808,1806,1856
1813,1840,1857
1815,1863,1858
1806,1894,1850
1803,1792,1853
1825,1819,1855
1835,1840,1855
1830,1832,1847
1832,1872,1861
1809,1851,1845
1808,1822,1838
1813,1810,1839
1818,1819,1853
1837,1840,1853
1815,1857,1841
1809,1839,1840
1837,1813,1840
1836,1825,1830
1837,1911,1848
1805,1915,1871
1799,1808,1858
1818,1821,1840
1834,1783,1817
1840,1749,1797
1791,1841,1865
1809,1872,1872
1834,1893,1854
1826,1887,1839
1815,1809,1829
1850,1815,1849
1845,1847,1860
1794,1813,1840
1806,1837,1834
1808,1808,1849
1823,1808,1841
1817,1824,1845
1825,1799,1831
1824,1837,1844
1843,1872,1853
1835,1873,1858
1809,1825,1861
1804,1787,1840
1825,1765,1802
1810,1821,1835
1797,1869,1876
1808,1890,1869
1825,1840,1850
1825,1819,1845
1836,1817,1851
1834,1831,1851
1840,1839,1863
1842,1832,1849
1839,1838,1845
1821,1872,1841
1835,1861,1849
1825,1803,1852
1824,1773,1833
1834,1813,1838
1830,1877,1834
1808,1793,1838
1809,1783,1870
1843,1819,1867
1853,1834,1845
1856,1850,1842
1814,1818,1845
1802,1792,1811
1834,1791,1823
1831,1809,1855
1845,1894,1893
1840,1889,1858
1827,1815,1841
1815,1834,1853
1825,1808,1851
1834,1837,1840
1818,1823,1840
1819,1817,1844
1834,1820,1846
1844,1862,1843
1853,1859,1824
1830,1792,1829
1808,1817,1873
1829,1845,1865
1837,1834,1843
1859,1843,1814
1844,1845,1827
1811,1831,1845
1803,1823,1870
1812,1818,1856
1834,1836,1852
1867,1851,1846
1837,1851,1840
1808,1821,1846
1829,1847,1854
1835,1870,1846
1833,1891,1840
1808,1823,1840
1842,1839,1850
1831,1831,1840
1824,1846,1831
1831,1839,1840
1825,1862,1845
1857,1865,1846
1842,1850,1840
1830,1857,1837
1837,1839,1839
1850,1827,1841
1863,1777,1830
1842,1822,1824
1831,1870,1844
1830,1868,1857
1829,1810,1822
1813,1771,1807
1821,1844,1867
1837,1850,1863
1849,1862,1846
1840,1845,1834
1846,1856,1855
1824,1840,1851
1813,1865,1847
1819,1869,1843
1834,1811,1837
1840,1783,1834
1837,1840,1845
1829,1849,1856
1844,1856,1847
1847,1909,1823
1843,1891,1847
1825,1806,1861
1837,1783,1840
1837,1839,1846
1838,1858,1846
1849,1845,1834
1831,1776,1809
1828,1799,1821
1837,1889,1862
1826,1878,1865
1827,1840,1843
1867,1857,1839
1830,1818,1845
1808,1820,1854
1826,1840,1845
1850,1867,1840
1849,1854,1840
1839,1849,1846
1838,1837,1847
1823,1845,1840
1826,1845,1840
1837,1867,1852
1840,1845,1858
1856,1847,1853
1840,1847,1839
1824,1845,1840
1838,1871,1855
1840,1789,1823
1842,1794,1823
1827,1911,1859
1809,1829,1856
1819,1810,1849
1840,1779,1808
1860,1830,1827
1841,1875,1847
1808,1837,1870
1839,1855,1853
1808,1801,1856
1809,1810,1867
1821,1837,1847
1818,1837,1845
1831,1828,1847
1839,1835,1852
1843,1867,1841
1853,1874,1857
1842,1853,1846
1841,1839,1845
1862,1852,1839
1839,1871,1837
1834,1813,1834
1842,1806,1841
1850,1857,1856
1845,1857,1861
1823,1779,1850
1838,1792,1851
1837,1856,1856
1847,1870,1861
1842,1851,1863
1853,1843,1859
1856,1866,1850
1861,1821,1815
1839,1837,1858
1808,1865,1885
1830,1877,1867
1840,1853,1851
1840,1839,1847
1840,1841,1856
1834,1827,1842
1840,1853,1849
1842,1830,1845
1856,1861,1856
1849,1893,1830
1830,1803,1839
1823,1824,1853
1839,1774,1879
1869,1798,1863
1863,1847,1853
1814,1808,1853
1794,1830,1860
1822,1863,1856
1831,1823,1851
1840,1824,1854
1838,1834,1856
1841,1869,1856
1835,1850,1846
1833,1834,1855
1851,1817,1844
1872,1763,1803
1831,1870,1871
1805,1878,1879
1829,1866,1871
1837,1872,1851
1839,1840,1831
1842,1818,1855
1851,1840,1876
1835,1863,1871
1834,1866,1850
1842,1874,1846
1847,1817,1849
1838,1840,1843
1825,1859,1853
1827,1833,1861
1840,1807,1862
1825,1810,1854
1826,1818,1845
1843,1840,1856
1847,1837,1863
1857,1835,1847
1818,1820,1866
1808,1808,1870
1825,1835,1865
1839,1838,1853
1840,1821,1850
1843,1840,1840
1839,1808,1837
1808,1794,1818
1839,1863,1870
1818,1794,1870
1806,1789,1854
1804,1897,1880
1811,1904,1875
1824,1871,1872
1822,1824,1866
1838,1902,1859
1841,1850,1843
1813,1761,1852
1826,1799,1867
1840,1836,1858
1839,1830,1856
1826,1808,1851
1840,1838,1850
1845,1866,1850
1829,1818,1847
1826,1808,1852
1853,1817,1850
1871,1791,1822
1831,1853,1858
1802,1840,1853
1814,1834,1850
1861,1869,1843
1808,1834,1837
1783,1840,1866
1805,1839,1872
1840,1847,1857
1859,1850,1854
1843,1873,1853
1840,1894,1840
1829,1826,1855
1833,1798,1857
1811,1789,1853
1824,1810,1850
1840,1858,1856
1845,1842,1844
1851,1819,1845
1840,1836,1854
1846,1808,1805
1838,1830,1840
1817,1867,1872
1836,1866,1872
1838,1857,1863
1839,1808,1840
1831,1799,1832
1837,1904,1860
1831,1865,1844
1831,1788,1840
1830,1846,1862
1824,1840,1861
1824,1869,1851
1822,1823,1836
1834,1805,1843
1840,1853,1854
1840,1837,1847
1839,1830,1842
1840,1815,1842
1825,1827,1845
1840,1840,1853
1840,1853,1853
1823,1845,1853
1840,1830,1852
1845,1877,1855
1849,1867,1840
1792,1796,1845
1808,1799,1840
1829,1763,1807
1830,1841,1857
1831,1835,1856
1840,1893,1866
1827,1850,1866
1825,1838,1854
1824,1825,1858
1828,1841,1857
1845,1836,1835
1847,1846,1841
1822,1822,1855
1824,1831,1858
1845,1839,1849
1843,1849,1840
1821,1826,1840
1824,1847,1845
1837,1849,1840
1845,1903,1838
1845,1777,1825
1837,1798,1857
1846,1882,1867
1826,1821,1856
1818,1791,1838
1829,1822,1838
1858,1781,1808
1823,1873,1837
1797,1828,1870
1808,1811,1872
1826,1833,1856
1839,1846,1843
1835,1835,1840
1843,1834,1840
1842,1842,1839
1841,1847,1846
1827,1831,1846
1838,1837,1855
1851,1863,1846
1882,1872,1840
1819,1833,1840
1802,1795,1844
1811,1808,1840
1833,1854,1841
1850,1847,1843
1821,1803,1840
1815,1806,1834
1828,1813,1836
1828,1793,1827
1840,1771,1813
1840,1857,1855
1835,1867,1860
1839,1842,1851
1841,1786,1806
1837,1828,1846
1835,1862,1872
1831,1843,1874
1839,1875,1867
1849,1857,1842
1842,1829,1838
1829,1770,1827
1823,1821,1847
1819,1872,1854
1827,1872,1852
1821,1835,1840
1812,1813,1834
1831,1807,1841
1840,1819,1844
1841,1822,1851
1840,1840,1846
1821,1819,1843
1827,1809,1847
1813,1808,1850
1839,1817,1845
1840,1833,1846
1829,1847,1842
1824,1834,1845
1838,1844,1855
1840,1852,1846
1845,1801,1821
1835,1837,1838
1835,1820,1856
1840,1799,1826
1851,1811,1823
1815,1859,1872
1814,1862,1882
1836,1866,1858
1840,1921,1851
1815,1820,1840
1808,1804,1841
1813,1846,1835
1813,1779,1831
1839,1797,1839
1825,1833,1846
1845,1840,1839
1846,1809,1827
1808,1833,1844
1803,1844,1853
1808,1819,1839
1859,1838,1823
1852,1864,1854
1826,1851,1866
1831,1858,1856
1839,1840,1839
1840,1788,1808
1850,1821,1831
1830,1891,1871
1835,1914,1867
1819,1819,1847
1808,1804,1839
1839,1868,1837
1855,1904,1823
1829,1800,1828
1831,1777,1859
1835,1823,1859
1840,1793,1840
1840,1815,1841
1847,1807,1831
1834,1840,1840
1819,1854,1858
1829,1869,1860
1829,1866,1849
1843,1837,1847
1856,1843,1851
1850,1834,1847
1808,1821,1847
1827,1811,1808
1833,1854,1828
1835,1889,1864
1815,1799,1871
1835,1807,1854
1843,1845,1846
1826,1813,1842
1839,1802,1851
1862,1838,1846
1840,1872,1839
1845,1825,1829
1824,1803,1852
1837,1807,1840
1837,1798,1835
1833,1795,1841
1826,1863,1867
1845,1882,1865
1839,1873,1854
1845,1857,1856
1840,1882,1840
1825,1813,1829
1846,1788,1840
1840,1745,1815
1810,1809,1867
1818,1853,1867
1834,1853,1861
1834,1839,1854
1851,1858,1852
1850,1852,1844
1825,1830,1845
1825,1818,1843
1841,1872,1847
1835,1855,1854
1824,1797,1840
1841,1773,1834
1839,1863,1863
1835,1856,1867
1843,1856,1861
1819,1826,1846
1835,1831,1855
1836,1829,1807
1831,1748,1814
1807,1840,1878
1829,1853,1882
1845,1904,1855
1819,1827,1856
1809,1808,1869
1818,1808,1867
1833,1856,1846
1840,1854,1854
1851,1827,1871
1839,1819,1872
1834,1815,1845
1836,1840,1840
1843,1791,1843
1854,1792,1841
1823,1838,1857
1840,1874,1858
1820,1815,1856
1833,1842,1856
1824,1819,1854
1838,1796,1851
1851,1771,1824
1837,1790,1827
1823,1819,1866
1828,1856,1882
1830,1880,1885
1851,1844,1863
1840,1821,1857
1797,1823,1856
1795,1807,1857
1824,1808,1857
1841,1854,1847
1844,1843,1830
1811,1780,1869
1815,1791,1877
1823,1807,1857
1827,1827,1845
1846,1852,1840
1820,1778,1859
1805,1776,1860
1813,1793,1846
1827,1813,1855
1840,1793,1847
1819,1776,1806
1823,1757,1815
1798,1819,1871
1807,1839,1878
1823,1838,1853
1851,1808,1830
1833,1812,1840
1792,1811,1859
1798,1793,1840
1815,1837,1853
1824,1851,1853
1838,1844,1849
1846,1877,1867
1823,1796,1858
1797,1780,1848
1806,1780,1842
1821,1819,1854
1840,1851,1840
1808,1724,1805
1808,1725,1842
1808,1806,1882
1812,1853,1864
1835,1789,1856
1840,1792,1865
1807,1776,1843
1799,1808,1829
1792,1829,1863
1814,1836,1877
1840,1853,1877
1847,1855,1863
1827,1797,1854
1811,1838,1872
1794,1823,1853
1810,1872,1844
1803,1757,1856
1821,1731,1855
1837,1805,1850
1811,1824,1857
1791,1757,1904
1810,1812,1904
1808,1813,1835
1813,1730,1793
1808,1827,1838
1821,1899,1878
1863,1870,1907
1915,1912,1942
1849,1767,1871
1776,1745,1811
1788,1779,1843
1813,1774,1861
1862,1810,1818
1841,1889,1834
1786,1797,1840
1799,1783,1859
1829,1760,1877
1845,1807,1916
1840,1824,1849
1855,1853,1805
1835,1808,1837
1819,1733,1861
1819,1757,1845
1829,1775,1824
1815,1819,1839
1775,1861,1868
1795,1865,1858
1861,1822,1854
1834,1860,1867
1776,1855,1822
1776,1753,1809
1803,1738,1840
1790,1803,1837
1806,1863,1850
1835,1878,1843
1820,1776,1831
1832,1773,1822
1791,1795,1805
1794,1817,1802
1810,1870,1807
1855,1810,1818
1871,1748,1813
1840,1811,1818
1782,1808,1809
1743,1863,1824
1757,1865,1806
1779,1828,1797
1805,1746,1819
1818,1759,1808
1826,1744,1835
1805,1790,1824
1826,1843,1822
1788,1839,1794
1774,1786,1807
1789,1753,1771
1829,1791,1808
1811,1874,1847
1808,1840,1828
1810,1839,1849
1830,1873,1809
1809,1827,1789
1795,1808,1804
1802,1792,1765
1829,1872,1798
1791,1823,1790
1805,1789,1790
1800,1778,1810
1781,1680,1793
1819,1792,1829
1807,1885,1839
1791,1831,1825
1761,1777,1808
1802,1787,1813
1840,1840,1805
1830,1851,1793
1849,1872,1823
1824,1817,1823
1802,1782,1821
1840,1849,1840
1867,1840,1841
1808,1794,1822
1799,1872,1792
1807,1745,1793
1845,1842,1851
1853,1814,1840
1814,1811,1819
1830,1771,1775
1834,1739,1823
1825,1814,1813
1846,1821,1857
1813,1846,1888
1821,1838,1826
1854,1840,1810
1821,1798,1808
1850,1792,1836
1851,1826,1875
1833,1840,1859
1843,1872,1834
1897,1897,1833
1862,1887,1831
1810,1702,1795
1798,1755,1856
1857,1842,1877
1904,1846,1883
1872,1807,1842
1850,1792,1813
1837,1826,1824
1902,1907,1875
1873,1878,1840
1856,1837,1861
1877,1792,1840
1858,1856,1851
1866,1863,1829
1854,1790,1859
1849,1810,1922
1889,1827,1859
1903,1746,1794
1829,1807,1828
1852,1843,1802
1885,1831,1789
1904,1883,1856
1909,1898,1908
1942,1971,1905
1901,1837,1842
1898,1856,1841
1862,1771,1829
1889,1828,1851
1885,1872,1863
1884,1867,1863
1903,1811,1826
1890,1862,1835
1895,1795,1843
1893,1831,1850
1887,1814,1857
1885,1872,1835
1904,1811,1791
1899,1775,1840
1884,1890,1930
1889,1895,1893
1890,1967,1870
1858,1817,1815
1888,1803,1853
1925,1859,1871
1907,1801,1811
1851,1773,1817
1869,1808,1834
1891,1861,1875
1904,1906,1874
1904,1861,1870
1915,1839,1843
1869,1802,1817
1859,1853,1853
1895,1911,1872
1936,1894,1872
1901,1801,1845
1872,1793,1873
1904,1754,1843
1916,1868,1874
1911,1921,1859
1884,1872,1840
1865,1842,1843
1870,1840,1881
1917,1887,1867
1936,1817,1857
1900,1803,1863
1873,1808,1872
1893,1819,1847
1921,1887,1872
1903,1855,1876
1909,1860,1857
1941,1918,1883
1916,1879,1853
1883,1846,1846
1870,1714,1769
1913,1825,1874
1926,1905,1909
1878,1890,1884
1890,1885,1859
1919,1883,1883
1904,1877,1877
1889,1840,1857
1911,1874,1895
1920,1888,1879
1936,1877,1856
1904,1856,1847
1914,1854,1891
1904,1799,1840
1904,1834,1830
1901,1883,1895
1926,1856,1901
1934,1877,1867
1906,1869,1877
1872,1840,1889
1881,1855,1872
1929,1858,1851
1931,1867,1872
1904,1840,1897
1914,1857,1900
1939,1890,1904
1946,1907,1894
1904,1861,1846
1917,1873,1895
1951,1873,1905
1977,1957,1931
1954,1862,1868
1897,1851,1821
1889,1846,1842
1905,1824,1865
1920,1879,1891
1935,1883,1900
1931,1747,1846
1895,1863,1905
1863,1851,1891
1872,1830,1872
1902,1840,1862
1925,1879,1851
1927,1872,1878
1930,1883,1901
1958,1857,1902
1959,1914,1870
1904,1894,1852
1921,1904,1891
1907,1879,1843
1925,1823,1866
1909,1882,1901
1923,1878,1907
1941,1905,1857
1921,1855,1830
1905,1866,1856
1937,1915,1872
1908,1903,1922
1902,1897,1904
1889,1831,1840
1884,1751,1797
1909,1847,1842
1913,1933,1902
1935,1939,1904
1917,1917,1899
1920,1904,1895
1919,1899,1857
1924,1863,1840
1889,1846,1845
1881,1822,1869
1941,1905,1871
1914,1902,1858
1904,1872,1875
1885,1847,1869
1890,1856,1862
1930,1868,1882
1898,1826,1865
1936,1867,1854
1911,1893,1879
1917,1921,1902
1909,1865,1854
1922,1786,1794
1907,1831,1854
1863,1873,1887
1877,1920,1907
1907,1942,1903
1913,1875,1869
1943,1861,1871
1924,1872,1903
1934,1904,1891
1927,1882,1846
1872,1847,1861
1877,1843,1866
1898,1867,1861
1904,1817,1863
1936,1920,1916
1949,1851,1865
1902,1861,1847
1872,1856,1856
1867,1842,1855
1885,1868,1866
1939,1913,1865
1924,1841,1802
1921,1781,1829
1919,1862,1899
1895,1899,1919
1915,1917,1888
1913,1881,1843
1922,1881,1867
1903,1883,1910
1879,1802,1853
1872,1809,1846
1907,1865,1855
1946,1908,1885
1933,1893,1879
1883,1823,1855
1899,1912,1881
1921,1890,1872
1904,1830,1868
1879,1835,1895
1895,1901,1892
1917,1843,1834
1913,1823,1830
1890,1826,1846
1889,1845,1843
1917,1855,1854
1947,1893,1903
1934,1856,1857
1933,1843,1842
1919,1897,1843
1891,1898,1875
1941,1915,1903
1938,1847,1841
1904,1810,1801
1898,1840,1860
1917,1841,1861
1910,1866,1872
1952,1897,1851
1909,1853,1844
1872,1817,1863
1886,1789,1871
1913,1827,1862
1904,1867,1840
1890,1863,1853
1919,1868,1875
1936,1893,1886
1907,1897,1836
1895,1858,1855
1879,1794,1854
1937,1842,1846
1947,1877,1840
1953,1871,1870
1901,1853,1871
1919,1863,1869
1881,1847,1840
1857,1851,1835
1904,1840,1880
1920,1889,1856
1907,1852,1859
1910,1858,1872
1925,1827,1841
1913,1833,1842
1923,1834,1845
1903,1776,1814
1922,1891,1904
1919,1931,1909
1938,1886,1853
1905,1801,1814
1889,1865,1872
1904,1881,1863
1959,1904,1854
1899,1830,1855
1882,1822,1860
1882,1827,1858
1899,1779,1850
1904,1824,1856
1925,1879,1879
1936,1863,1854
1936,1918,1866
1904,1839,1878
1897,1819,1872
1885,1854,1794
1870,1831,1819
1903,1853,1879
1907,1840,1866
1927,1915,1863
1895,1837,1835
1897,1813,1854
1931,1833,1867
1933,1808,1867
1890,1848,1886
1873,1872,1836
1875,1841,1791
1904,1875,1813
1917,1878,1851
1913,1893,1857
1883,1840,1852
1875,1862,1840
1910,1875,1856
1915,1872,1845
1920,1751,1823
1901,1821,1869
1908,1875,1851
1903,1842,1852
1881,1842,1869
1906,1872,1827
1894,1841,1835
1893,1852,1837
1904,1861,1869
1907,1888,1851
1904,1904,1831
1886,1808,1834
1888,1788,1855
1914,1872,1856
1955,1923,1866
1902,1857,1850
1867,1790,1835
1872,1811,1829
1906,1872,1815
1931,1808,1834
1872,1791,1906
1905,1817,1875
1886,1894,1872
1872,1859,1834
1891,1825,1833
1904,1855,1847
1889,1851,1847
1894,1857,1863
1904,1853,1890
1906,1872,1877
1947,1915,1859
1903,1881,1860
1900,1839,1844
1902,1821,1826
1926,1866,1885
1893,1889,1858
1872,1849,1841
1887,1825,1853
1887,1881,1867
1901,1901,1839
1885,1818,1839
1895,1842,1865
1855,1791,1850
1840,1789,1840
1879,1824,1838
1889,1830,1840
1893,1840,1861
1888,1865,1878
1876,1814,1838
1882,1813,1837
1886,1855,1850
1904,1851,1871
1904,1837,1869
1890,1881,1854
1878,1834,1841
1881,1807,1809
1905,1872,1826
1884,1844,1828
1857,1841,1870
1869,1873,1887
1899,1867,1855
1883,1840,1837
1869,1804,1835
1836,1793,1839
1856,1862,1855
1877,1858,1837
1891,1854,1850
1873,1870,1853
1869,1866,1858
1859,1789,1818
1895,1793,1835
1917,1867,1861
1885,1808,1853
1891,1813,1858
1927,1853,1847
1863,1854,1839
1851,1838,1849
1861,1853,1849
1894,1830,1843
1903,1829,1871
1858,1826,1872
1855,1828,1856
1883,1837,1855
1875,1837,1831
1866,1792,1819
1869,1798,1823
1885,1823,1843
1919,1842,1863
1891,1895,1893
1859,1855,1857
1866,1898,1857
1907,1909,1890
1889,1866,1872
1851,1837,1830
1862,1803,1808
1855,1773,1850
1883,1892,1857
1847,1776,1800
1819,1776,1840
1847,1786,1904
1868,1795,1870
1887,1846,1855
1894,1831,1846
1875,1850,1846
1845,1871,1855
1851,1856,1840
1874,1849,1837
1867,1790,1808
1856,1858,1872
1871,1855,1850
1906,1900,1878
1895,1858,1864
1851,1857,1856
1872,1873,1843
1878,1824,1857
1855,1815,1842
1847,1744,1849
1849,1808,1822
1835,1793,1840
1842,1774,1843
1863,1810,1871
1892,1849,1853
1859,1808,1831
1840,1806,1856
1872,1872,1875
1901,1894,1874
1886,1867,1871
1857,1835,1851
1839,1823,1836
1833,1805,1818
1858,1829,1839
1870,1813,1846
1894,1807,1845
1887,1872,1875
1847,1938,1859
1822,1840,1843
1849,1845,1859
1879,1835,1872
1873,1725,1789
1861,1757,1814
1881,1872,1887
1817,1846,1867
1808,1840,1853
1846,1792,1854
1893,1844,1876
1881,1867,1865
1853,1851,1846
1843,1824,1872
1826,1828,1856
1856,1846,1830
1883,1841,1856
1844,1844,1863
1841,1827,1885
1858,1868,1857
1831,1840,1817
1833,1860,1831
1868,1841,1863
1870,1776,1818
1840,1776,1841
1831,1783,1851
1814,1818,1840
1850,1859,1836
1895,1904,1840
1843,1811,1859
1826,1781,1865
1810,1808,1825
1838,1838,1842
1848,1840,1856
1836,1819,1856
1839,1841,1829
1870,1840,1827
1882,1821,1859
1856,1799,1811
1808,1855,1874
1811,1855,1866
1831,1808,1843
1835,1823,1823
1824,1807,1821
1824,1840,1835
1840,1813,1850
1839,1873,1843
1813,1769,1811
1844,1790,1843
1862,1834,1870
1824,1867,1900
1820,1888,1814
1841,1803,1807
1859,1761,1823
1829,1808,1855
1804,1858,1849
1802,1857,1865
1819,1840,1831
1830,1840,1842
1819,1872,1845
1838,1870,1853
1835,1775,1833
1817,1827,1856
1814,1869,1856
1821,1877,1851
1870,1867,1857
1847,1850,1853
1804,1789,1823
1831,1811,1827
1828,1798,1843
1872,1738,1802
1792,1814,1849
1767,1868,1857
1802,1884,1845
1830,1846,1872
1835,1812,1854
1855,1866,1869
1824,1844,1853
1798,1844,1834
1794,1799,1817
1801,1859,1846
1839,1791,1851
1829,1814,1850
1803,1872,1858
1833,1870,1842
1840,1914,1863
1810,1833,1840
1783,1792,1830
1834,1824,1850
1822,1851,1854
1799,1847,1838
1829,1847,1843
1829,1833,1847
1822,1808,1838
1810,1850,1840
1828,1862,1863
1833,1831,1843
1820,1871,1834
1829,1870,1849
1824,1713,1786
1821,1759,1798
1798,1798,1854
1774,1854,1891
1830,1890,1872
1811,1879,1856
1820,1826,1858
1777,1797,1841
1791,1853,1859
1838,1856,1846
1798,1818,1834
1812,1831,1853
1824,1813,1835
1808,1871,1835
1791,1829,1850
1840,1861,1881
1854,1922,1869
1808,1826,1836
1804,1771,1838
1821,1815,1847
1799,1872,1842
1826,1859,1815
1815,1794,1843
1770,1759,1843
1808,1755,1840
1822,1872,1842
1798,1876,1856
1789,1850,1865
1803,1849,1858
1825,1872,1869
1795,1821,1837
1792,1831,1846
1815,1871,1869
1813,1841,1854
1797,1814,1840
1808,1854,1856
1831,1808,1815
1831,1817,1821
1812,1900,1886
1789,1890,1872
1801,1841,1853
1821,1813,1854
1841,1827,1855
1789,1827,1855
1789,1853,1831
1786,1835,1824
1811,1860,1873
1868,1919,1919
1824,1791,1869
1801,1758,1840
1790,1798,1815
1807,1810,1815
1799,1873,1859
1792,1862,1875
1789,1856,1856
1799,1836,1847
1824,1878,1860
1808,1900,1867
1817,1877,1873
1808,1818,1849
1779,1813,1851
1801,1840,1847
1799,1863,1861
1825,1793,1865
1819,1840,1849
1794,1841,1852
1808,1833,1869
1788,1815,1866
1805,1901,1821
1806,1791,1817
1815,1827,1910
1826,1836,1889
1790,1840,1842
1776,1833,1841
1795,1854,1860
1779,1826,1834
1829,1862,1857
1842,1846,1863
1841,1858,1872
1803,1861,1869
1801,1875,1874
1798,1809,1811
1808,1823,1838
1823,1803,1873
1811,1851,1877
1797,1847,1858
1797,1861,1857
1815,1827,1849
1840,1874,1845
1843,1822,1845
1812,1796,1872
1809,1834,1887
1833,1923,1880
1827,1842,1853
1807,1807,1837
1808,1855,1827
1785,1797,1840
1779,1827,1872
1791,1819,1892
1793,1861,1863
1791,1801,1808
1796,1858,1838
1808,1875,1895
1808,1837,1863
1813,1831,1821
1822,1831,1845
1830,1875,1859
1830,1875,1861
1838,1855,1861
1822,1872,1838
1837,1834,1859
1806,1823,1853
1854,1856,1853
1829,1901,1869
1785,1811,1849
1754,1774,1837
1775,1809,1830
1856,1853,1878
1835,1887,1904
1822,1854,1847
1810,1842,1820
1791,1846,1850
1825,1840,1854
1805,1831,1871
1799,1823,1847
1849,1881,1866
1809,1837,1857
1808,1853,1845
1831,1849,1871
1813,1823,1834
1792,1802,1823
1811,1823,1872
1803,1831,1856
1824,1870,1850
1840,1872,1857
1829,1813,1809
1813,1904,1852
1789,1834,1876
1778,1793,1865
1835,1834,1879
1813,1868,1873
1808,1873,1860
1826,1894,1850
1777,1829,1839
1792,1821,1841
1845,1818,1836
1839,1808,1862
1835,1844,1874
1817,1856,1853
1818,1829,1847
1813,1779,1841
1840,1813,1856
1844,1863,1856
1814,1855,1863
1773,1827,1856
1807,1872,1873
1822,1861,1840
1828,1862,1846
1839,1867,1866
1819,1815,1872
1815,1829,1873
1810,1862,1843
1847,1817,1845
1838,1751,1808
1838,1881,1868
1815,1891,1866
1779,1803,1861
1811,1831,1869
1815,1852,1871
1821,1825,1874
1823,1856,1843
1803,1850,1852
1825,1899,1853
1845,1869,1839
1853,1815,1826
1808,1769,1863
1783,1801,1883
1781,1855,1840
1807,1830,1834
1822,1841,1851
1835,1919,1862
