1786,1719,1803
1795,1757,1839
1824,1807,1840
1851,1849,1831
1867,1808,1820
1850,1763,1795
1836,1830,1818
1854,1819,1830
1841,1825,1834
1823,1808,1831
1847,1770,1810
1839,1840,1808
1837,1816,1809
1839,1773,1805
1858,1776,1797
1850,1855,1840
1855,1845,1856
1851,1836,1850
1854,1808,1834
1850,1744,1789
1837,1880,1830
1841,1857,1790
1840,1819,1813
1824,1758,1815
1824,1799,1840
1812,1808,1841
1828,1808,1838
1831,1840,1825
1843,1780,1824
1872,1827,1826
1866,1827,1836
1852,1822,1831
1840,1815,1833
1847,1871,1846
1842,1823,1835
1841,1821,1840
1864,1797,1840
1866,1732,1797
1829,1837,1824
1811,1897,1841
1817,1867,1841
1856,1874,1851
1883,1823,1794
1872,1789,1813
1815,1811,1852
1807,1830,1858
1829,1838,1843
1840,1849,1840
1851,1830,1840
1858,1810,1840
1856,1819,1837
1855,1820,1830
1859,1847,1825
1859,1845,1836
1810,1797,1840
1823,1794,1846
1845,1809,1840
1852,1842,1833
1867,1819,1808
1876,1838,1857
1851,1817,1866
1828,1769,1833
1825,1834,1833
1814,1863,1832
1835,1834,1834
1859,1838,1839
1860,1818,1827
1867,1859,1828
1857,1759,1810
1805,1773,1845
1808,1838,1856
1853,1856,1849
1847,1819,1830
1858,1818,1850
1852,1856,1865
1847,1846,1844
1851,1844,1840
1853,1804,1831
1869,1841,1855
1847,1879,1851
1807,1826,1841
1831,1830,1845
1838,1820,1831
1841,1821,1840
1858,1823,1829
1841,1779,1840
1858,1856,1853
1844,1822,1873
1837,1797,1875
1818,1818,1853
1840,1837,1836
1859,1854,1855
1842,1814,1850
1843,1777,1842
1830,1809,1837
1835,1837,1831
1854,1791,1810
1830,1857,1887
1828,1869,1857
1835,1799,1828
1859,1781,1828
1861,1802,1851
1854,1840,1841
1843,1911,1818
1823,1808,1858
1808,1795,1864
1813,1822,1869
1829,1819,1847
1833,1803,1843
1819,1793,1849
1882,1826,1834
1883,1781,1801
1795,1824,1835
1787,1869,1878
1808,1875,1883
1840,1845,1831
1844,1791,1840
1825,1796,1840
1845,1806,1840
1850,1855,1844
1829,1802,1835
1825,1821,1845
1840,1817,1821
1803,1937,1853
1794,1827,1857
1822,1742,1845
1843,1863,1855
1838,1861,1860
1857,1861,1863
1834,1808,1840
1815,1846,1856
1826,1871,1846
1840,1815,1841
1845,1841,1847
1830,1811,1853
1825,1808,1842
1842,1797,1815
1872,1877,1850
1818,1834,1856
1806,1895,1867
1830,1826,1815
1827,1829,1810
1809,1821,1840
1815,1840,1878
1829,1840,1872
1825,1829,1859
1843,1890,1856
1856,1851,1822
1815,1774,1833
1799,1831,1866
1837,1798,1831
1854,1840,1831
1813,1846,1842
1819,1854,1854
1851,1846,1855
1841,1841,1840
1822,1737,1811
1807,1870,1859
1827,1936,1875
1813,1872,1865
1814,1839,1855
1819,1850,1847
1821,1812,1831
1840,1831,1842
1840,1867,1854
1826,1838,1858
1845,1778,1812
1854,1863,1846
1840,1862,1873
1840,1833,1856
1815,1850,1852
1829,1859,1836
1830,1803,1829
1839,1783,1829
1846,1862,1854
1853,1968,1841
1860,1875,1857
1840,1752,1817
1801,1839,1869
1789,1914,1871
1810,1863,1855
1815,1808,1861
1831,1856,1857
1826,1861,1856
1808,1826,1850
1808,1829,1852
1838,1830,1840
1870,1806,1843
1811,1834,1840
1799,1853,1840
1818,1810,1824
1837,1841,1845
1829,1847,1859
1810,1827,1856
1856,1850,1860
1856,1856,1843
1849,1735,1767
1795,1841,1869
1808,1907,1898
1844,1861,1858
1808,1856,1864
1802,1835,1853
1824,1792,1838
1834,1840,1866
1791,1852,1871
1789,1901,1850
1827,1805,1808
1835,1799,1838
1822,1809,1873
1795,1793,1873
1790,1814,1870
1809,1831,1860
1822,1833,1849
1838,1856,1856
1838,1858,1854
1850,1810,1846
1831,1792,1843
1811,1850,1855
1829,1875,1853
1875,1831,1823
1838,1831,1857
1808,1873,1878
1823,1884,1861
1835,1861,1846
1812,1815,1861
1798,1819,1857
1821,1860,1847
1839,1856,1846
1806,1866,1861
1808,1737,1808
1808,1790,1823
1805,1872,1885
1814,1876,1884
1854,1863,1854
1871,1869,1845
1811,1819,1849
1798,1753,1829
1808,1719,1823
1791,1859,1883
1791,1886,1879
1786,1851,1867
1808,1838,1866
1829,1857,1857
1835,1843,1858
1815,1838,1856
1815,1839,1857
1825,1865,1853
1855,1866,1863
1854,1823,1856
1822,1803,1861
1808,1822,1845
1813,1810,1871
1815,1794,1868
1801,1829,1859
1819,1840,1852
1840,1840,1846
1840,1765,1819
1808,1827,1857
1808,1891,1879
1811,1872,1872
1823,1851,1870
1840,1839,1861
1839,1856,1857
1846,1865,1861
1835,1853,1859
1824,1842,1861
1837,1887,1862
1839,1862,1857
1834,1805,1856
1836,1845,1845
1817,1769,1823
1837,1799,1840
1806,1853,1867
1786,1856,1876
1803,1856,1851
1814,1814,1867
1834,1766,1834
1791,1863,1875
1794,1873,1875
1806,1871,1870
1815,1841,1857
1819,1830,1856
1808,1860,1842
1824,1851,1850
1813,1840,1857
1809,1838,1862
1810,1846,1853
1826,1857,1846
1837,1855,1855
1821,1849,1856
1840,1870,1858
1856,1870,1855
1827,1851,1855
1803,1839,1878
1795,1793,1836
1857,1856,1797
1815,1855,1834
1807,1776,1855
1799,1783,1873
1775,1855,1901
1774,1861,1872
1799,1838,1858
1828,1799,1840
1845,1785,1799
1798,1875,1840
1783,1840,1867
1795,1860,1869
1825,1920,1862
1835,1842,1856
1819,1809,1854
1808,1840,1847
1825,1847,1847
1837,1846,1861
1822,1843,1862
1831,1853,1856
1840,1840,1847
1839,1851,1855
1798,1808,1847
1809,1835,1840
1827,1865,1840
1850,1775,1817
1819,1863,1863
1805,1891,1879
1781,1866,1891
1804,1815,1854
1843,1811,1861
1813,1779,1820
1806,1830,1839
1826,1818,1845
1823,1830,1855
1823,1856,1849
1831,1859,1851
1833,1805,1850
1808,1799,1849
1813,1834,1847
1837,1846,1851
1825,1830,1844
1838,1845,1858
1817,1823,1846
1835,1770,1815
1814,1815,1840
1821,1878,1851
1870,1866,1807
1839,1806,1837
1817,1856,1878
1793,1860,1866
1831,1812,1840
1857,1863,1859
1821,1831,1856
1803,1823,1859
1808,1840,1840
1824,1835,1841
1817,1817,1845
1843,1841,1857
1856,1873,1855
1837,1835,1840
1819,1867,1824
1784,1803,1845
1811,1830,1861
1822,1852,1853
1827,1856,1855
1839,1807,1845
1843,1796,1832
1842,1808,1814
1837,1859,1856
1822,1902,1872
1850,1840,1841
1827,1814,1851
1809,1818,1855
1825,1817,1853
1827,1830,1839
1832,1831,1825
1811,1808,1841
1840,1808,1863
1823,1849,1872
1837,1878,1850
1819,1852,1829
1817,1830,1835
1804,1836,1841
1809,1840,1841
1819,1841,1843
1837,1843,1831
1831,1810,1840
1834,1849,1847
1824,1840,1846
1819,1828,1847
1858,1837,1806
1830,1837,1815
1797,1759,1849
1792,1815,1873
1840,1850,1857
1867,1867,1854
1820,1824,1855
1762,1805,1839
1772,1841,1829
1807,1828,1813
1806,1771,1823
1822,1782,1858
1835,1861,1858
1829,1857,1859
1819,1845,1847
1815,1839,1840
1808,1866,1843
1835,1895,1845
1854,1833,1844
1853,1776,1808
1833,1841,1855
1829,1873,1881
1808,1830,1855
1798,1786,1829
1811,1872,1841
1827,1888,1840
1819,1820,1841
1855,1813,1846
1852,1772,1841
1797,1824,1846
1819,1853,1843
1802,1794,1817
1807,1791,1846
1812,1842,1865
1819,1847,1856
1825,1834,1851
1839,1819,1841
1844,1845,1833
1864,1814,1813
1823,1825,1859
1817,1878,1872
1850,1891,1861
1824,1854,1843
1806,1840,1848
1825,1842,1866
1827,1820,1845
1861,1782,1819
1855,1855,1829
1806,1817,1843
1826,1793,1846
1824,1805,1843
1815,1821,1853
1840,1836,1849
1837,1822,1850
1830,1782,1855
1815,1767,1831
1815,1850,1826
1827,1831,1808
1822,1840,1870
1823,1817,1858
1826,1809,1846
1830,1875,1875
1837,1872,1874
1829,1845,1867
1821,1851,1846
1810,1840,1833
1820,1803,1841
1834,1807,1861
1826,1854,1871
1827,1915,1845
1807,1838,1841
1808,1776,1854
1842,1797,1855
1847,1808,1856
1837,1825,1846
1824,1753,1841
1827,1813,1858
1835,1821,1852
1830,1833,1850
1805,1871,1872
1802,1860,1866
1834,1867,1870
1865,1813,1816
1869,1833,1831
1812,1872,1862
1808,1843,1866
1801,1825,1866
1814,1840,1862
1839,1813,1820
1814,1834,1840
1802,1821,1855
1826,1841,1872
1846,1843,1857
1839,1859,1836
1835,1835,1843
1840,1812,1852
1838,1842,1847
1817,1833,1847
1824,1837,1851
1840,1799,1843
1831,1819,1842
1847,1884,1856
1856,1798,1840
1840,1795,1830
1841,1905,1874
1823,1892,1884
1807,1840,1865
1824,1819,1841
1837,1839,1837
1833,1815,1831
1809,1799,1847
1821,1849,1858
1835,1836,1850
1837,1840,1851
1842,1834,1840
1856,1829,1849
1840,1847,1845
1831,1846,1846
1833,1856,1842
1830,1859,1840
1847,1856,1815
1838,1799,1840
1806,1793,1852
1804,1821,1847
1840,1777,1824
1872,1841,1838
1824,1867,1859
1830,1821,1854
1831,1796,1813
1811,1831,1855
1809,1840,1872
1840,1820,1862
1822,1856,1870
1840,1883,1852
1850,1856,1841
1835,1831,1846
1814,1857,1841
1822,1835,1840
1830,1830,1850
1831,1869,1871
1835,1867,1856
1846,1872,1831
1837,1822,1833
1824,1831,1855
1845,1857,1857
1855,1841,1844
1846,1811,1842
1829,1827,1832
1814,1822,1837
1827,1907,1861
1813,1880,1871
1803,1849,1862
1820,1804,1833
1834,1781,1830
1808,1811,1846
1803,1771,1818
1808,1870,1851
1824,1879,1867
1822,1855,1872
1824,1831,1858
1834,1843,1856
1851,1842,1851
1840,1839,1870
1808,1818,1858
1827,1839,1856
1840,1847,1853
1846,1835,1850
1839,1749,1823
1863,1829,1845
1827,1917,1885
1793,1875,1873
1805,1877,1872
1809,1843,1843
1810,1741,1834
1799,1795,1855
1819,1822,1867
1840,1847,1861
1821,1858,1855
1821,1824,1856
1829,1805,1859
1857,1837,1870
1863,1854,1859
1824,1840,1833
1811,1806,1846
1829,1839,1863
1846,1858,1860
1825,1802,1828
1811,1811,1854
1822,1827,1840
1833,1888,1871
1825,1874,1904
1819,1846,1889
1817,1799,1843
1805,1790,1835
1808,1787,1840
1814,1803,1856
1852,1849,1857
1856,1794,1858
1813,1852,1854
1823,1858,1851
1845,1872,1855
1826,1825,1855
1812,1795,1856
1813,1810,1863
1839,1843,1861
1837,1856,1855
1811,1808,1830
1821,1839,1857
1823,1830,1833
1834,1856,1846
1824,1899,1872
1818,1877,1849
1824,1822,1853
1834,1814,1866
1823,1797,1834
1821,1776,1836
1824,1836,1872
1847,1869,1866
1840,1808,1872
1840,1799,1851
1827,1862,1854
1834,1877,1869
1835,1856,1862
1857,1865,1863
1840,1872,1850
1814,1729,1809
1801,1808,1842
1811,1845,1870
1830,1865,1862
1825,1859,1842
1824,1765,1807
1815,1852,1871
1834,1867,1882
1831,1839,1856
1823,1870,1847
1811,1856,1847
1809,1825,1861
1825,1840,1867
1835,1844,1845
1827,1760,1838
1837,1819,1855
1863,1878,1871
1831,1855,1872
1811,1829,1854
1817,1839,1855
1857,1859,1872
1867,1840,1851
1825,1830,1845
1808,1837,1850
1811,1835,1849
1835,1827,1856
1843,1821,1856
1828,1802,1829
1835,1895,1858
1820,1853,1854
1823,1825,1851
1827,1777,1808
1838,1841,1838
1826,1796,1878
1827,1813,1878
1819,1835,1860
1827,1843,1853
1815,1821,1858
1825,1812,1867
1830,1857,1863
1824,1847,1847
1833,1814,1841
1834,1808,1840
1866,1755,1791
1841,1824,1840
1794,1894,1886
1779,1856,1875
1829,1841,1852
1853,1866,1863
1815,1842,1859
1817,1813,1854
1840,1847,1867
1857,1823,1827
1856,1799,1847
1837,1856,1877
1830,1880,1872
1842,1872,1858
1834,1867,1870
1826,1821,1862
1831,1800,1850
1824,1786,1854
1823,1813,1863
1825,1817,1867
1825,1815,1854
1839,1843,1856
1853,1846,1855
1843,1803,1827
1823,1845,1862
1809,1840,1877
1788,1813,1866
1810,1813,1862
1852,1842,1851
1898,1792,1829
1814,1822,1881
1795,1858,1873
1813,1879,1861
1839,1865,1854
1838,1844,1856
1830,1776,1858
1839,1791,1853
1858,1843,1852
1834,1836,1859
1827,1840,1856
1839,1844,1849
1855,1875,1856
1856,1839,1846
1828,1808,1841
1827,1819,1845
1808,1826,1838
1817,1808,1839
1823,1815,1851
1839,1865,1851
1835,1803,1826
1847,1782,1843
1855,1776,1837
1815,1901,1871
1793,1872,1870
1815,1879,1857
1815,1785,1854
1823,1791,1855
1831,1775,1826
1830,1790,1869
1833,1835,1865
1830,1914,1853
1811,1835,1827
1827,1801,1841
1857,1806,1847
1819,1808,1841
1779,1819,1839
1805,1824,1850
1823,1853,1854
1822,1843,1845
1834,1776,1829
1830,1830,1847
1828,1844,1859
1826,1856,1858
1837,1823,1835
1839,1750,1807
1813,1899,1872
1815,1882,1882
1839,1887,1861
1836,1827,1862
1819,1785,1856
1817,1808,1848
1817,1841,1849
1833,1827,1846
1837,1811,1847
1828,1844,1841
1846,1840,1834
1862,1861,1857
1813,1830,1855
1826,1842,1852
1818,1783,1846
1822,1731,1827
1856,1785,1840
1829,1805,1815
1837,1887,1872
1843,1874,1847
1810,1835,1841
1808,1831,1855
1809,1851,1855
1814,1849,1851
1808,1799,1858
1825,1826,1854
1826,1874,1843
1837,1867,1854
1840,1814,1852
1839,1836,1851
1837,1829,1827
1831,1840,1831
1831,1797,1808
1838,1856,1888
1845,1874,1883
1817,1872,1872
1818,1884,1857
1843,1870,1837
1837,1836,1834
1818,1821,1838
1859,1770,1815
1834,1808,1850
1790,1831,1857
1808,1828,1847
1817,1835,1856
1822,1860,1851
1833,1767,1796
1839,1805,1829
1808,1904,1887
1825,1915,1872
1836,1830,1850
1826,1859,1863
1809,1808,1845
1808,1811,1837
1832,1857,1845
1829,1841,1854
1811,1808,1858
1839,1843,1863
1857,1883,1856
1827,1807,1826
1806,1779,1852
1826,1856,1856
1831,1819,1851
1822,1775,1821
1831,1781,1829
1843,1889,1877
1839,1894,1873
1825,1760,1843
1856,1794,1851
1856,1889,1857
1811,1866,1846
1815,1746,1806
1819,1858,1871
1817,1909,1881
1800,1854,1872
1807,1862,1843
1799,1821,1836
1803,1841,1861
1863,1833,1865
1861,1779,1831
1833,1808,1830
1805,1855,1861
1819,1851,1905
1830,1861,1910
1828,1894,1869
1849,1888,1798
1867,1871,1827
1808,1808,1843
1843,1823,1858
1891,1906,1849
1850,1785,1802
1803,1765,1807
1747,1814,1833
1790,1829,1793
1827,1837,1852
1869,1838,1881
1840,1843,1847
1802,1923,1863
1802,1886,1840
1841,1846,1850
1853,1840,1847
1841,1889,1823
1876,1846,1834
1872,1903,1842
1822,1835,1833
1826,1789,1828
1840,1829,1798
1844,1791,1772
1830,1840,1813
1841,1937,1869
1820,1802,1803
1847,1739,1776
1853,1811,1787
1899,1918,1869
1835,1887,1847
1777,1865,1792
1765,1803,1807
1859,1838,1831
1829,1857,1818
1858,1876,1820
1811,1807,1819
1810,1766,1776
1825,1852,1781
1878,1875,1794
1884,1794,1799
1806,1850,1796
1815,1861,1815
1842,1878,1792
1811,1806,1777
1871,1865,1803
1854,1882,1830
1808,1826,1807
1737,1705,1778
1808,1869,1814
1825,1847,1806
1753,1807,1820
1747,1801,1794
1796,1786,1790
1866,1852,1789
1843,1774,1735
1827,1903,1830
1808,1840,1824
1854,1879,1798
1835,1822,1791
1808,1865,1775
1853,1793,1796
1810,1797,1807
1759,1797,1798
1794,1819,1794
1871,1840,1778
1777,1786,1794
1770,1796,1794
1838,1871,1831
1919,1827,1835
1840,1802,1773
1754,1856,1786
1749,1796,1824
1793,1714,1787
1845,1847,1842
1817,1951,1837
1874,1858,1802
1893,1808,1781
1775,1851,1819
1755,1786,1813
1839,1851,1845
1810,1747,1794
1795,1775,1807
1782,1803,1859
1831,1867,1819
1810,1818,1782
1758,1776,1806
1749,1795,1835
1803,1805,1821
1856,1761,1771
1872,1903,1867
1831,1904,1892
1808,1776,1825
1798,1763,1785
1779,1810,1855
1776,1850,1887
1871,1890,1855
1873,1822,1809
1793,1790,1854
1808,1788,1872
1819,1758,1808
1808,1811,1843
1835,1815,1854
1782,1822,1844
1773,1818,1847
1835,1849,1830
1803,1844,1841
1790,1809,1876
1838,1833,1878
1811,1862,1814
1776,1819,1793
1798,1786,1844
1870,1805,1875
1799,1776,1855
1801,1776,1810
1831,1829,1831
1823,1872,1854
1830,1943,1829
1825,1826,1799
1799,1705,1777
1787,1757,1870
1777,1863,1901
1796,1871,1888
1851,1886,1901
1835,1858,1865
1839,1837,1806
1791,1805,1809
1791,1855,1808
1840,1793,1840
1857,1807,1882
1826,1834,1840
1807,1810,1818
1815,1862,1843
1872,1887,1871
1838,1735,1837
1777,1756,1829
1755,1845,1872
1813,1918,1852
1840,1872,1843
1869,1814,1863
1856,1788,1887
1780,1843,1870
1761,1855,1851
1871,1831,1842
1890,1808,1887
1806,1841,1874
1778,1883,1839
1793,1847,1841
1847,1797,1853
1878,1809,1858
1840,1859,1865
1774,1862,1847
1809,1814,1844
1890,1856,1858
1903,1801,1831
1872,1813,1851
1779,1894,1891
1782,1873,1888
1766,1798,1879
1747,1754,1868
1863,1862,1890
1904,1907,1866
1806,1821,1834
1790,1817,1890
1814,1841,1904
1792,1822,1865
1847,1882,1854
1831,1883,1863
1817,1815,1885
1957,1872,1903
1949,1825,1874
1773,1796,1885
1727,1829,1870
1813,1870,1872
1839,1829,1824
1895,1811,1862
1843,1846,1891
1795,1866,1869
1828,1870,1872
1862,1885,1909
1889,1862,1904
1839,1770,1887
1796,1757,1841
1872,1872,1893
1793,1864,1883
1771,1911,1875
1804,1781,1863
1829,1797,1879
1826,1835,1898
1830,1876,1872
1861,1884,1867
1850,1840,1878
1799,1798,1888
1834,1841,1875
1910,1897,1893
1865,1888,1881
1789,1773,1850
1765,1835,1898
1801,1840,1867
1898,1861,1881
1924,1790,1884
1835,1901,1893
1790,1913,1888
1790,1870,1878
1809,1743,1918
1891,1866,1854
1856,1891,1871
1805,1851,1863
1823,1786,1877
1878,1811,1904
1837,1842,1878
1776,1831,1863
1821,1759,1861
1840,1873,1894
1840,1887,1902
1865,1866,1902
1833,1847,1891
1809,1844,1878
1840,1891,1873
1870,1839,1872
1859,1715,1843
1839,1888,1872
1821,1968,1901
1795,1913,1907
1841,1902,1902
1862,1813,1875
1844,1771,1857
1854,1841,1926
1809,1904,1891
1804,1823,1838
1878,1745,1849
1862,1742,1804
1788,1847,1921
1755,1883,1936
1808,1917,1909
1918,1824,1872
1881,1827,1877
1789,1839,1890
1808,1884,1874
1873,1876,1869
1852,1793,1846
1871,1821,1868
1919,1872,1904
1872,1861,1870
1774,1813,1858
1790,1849,1879
1823,1905,1875
1886,1897,1892
1843,1862,1911
1847,1825,1869
1872,1739,1839
1811,1801,1861
1845,1918,1875
1851,1849,1896
1872,1845,1890
1796,1797,1843
1733,1851,1870
1803,1847,1859
1871,1808,1826
1859,1850,1879
1857,1850,1921
1881,1899,1911
1867,1878,1868
1872,1819,1843
1849,1809,1849
1854,1869,1889
1853,1878,1890
1802,1776,1856
1801,1853,1923
1834,1911,1890
1856,1839,1834
1909,1814,1856
1845,1837,1907
1785,1833,1893
1901,1866,1858
1901,1794,1855
1825,1825,1886
1841,1857,1871
1810,1853,1856
1836,1788,1857
1845,1819,1865
1835,1811,1840
1835,1829,1872
1867,1823,1891
1887,1847,1872
1867,1858,1808
1821,1898,1898
1840,1866,1935
1871,1875,1904
1831,1823,1863
1830,1872,1858
1873,1871,1871
1817,1813,1861
1860,1827,1871
1853,1827,1859
1859,1793,1859
1837,1782,1872
1863,1882,1872
1846,1852,1866
1809,1838,1847
1855,1810,1827
1875,1806,1863
1838,1825,1871
1859,1902,1860
1828,1907,1868
1778,1808,1849
1851,1833,1911
1937,1859,1915
1833,1834,1901
1808,1827,1813
1769,1808,1815
1873,1831,1879
1949,1903,1936
1846,1888,1825
1808,1740,1776
1774,1840,1854
1824,1851,1899
1878,1873,1876
1882,1904,1869
1882,1806,1870
1867,1776,1875
1839,1903,1871
1853,1917,1843
1846,1826,1875
1843,1814,1874
1825,1915,1904
1857,1851,1873
1867,1783,1840
1856,1751,1840
1846,1814,1872
1835,1853,1834
1870,1870,1863
1923,1810,1845
1872,1854,1855
1776,1840,1859
1845,1842,1879
1863,1917,1889
1873,1856,1863
1837,1872,1870
1795,1808,1866
1797,1805,1869
1851,1856,1859
1854,1863,1846
1827,1830,1850
1895,1849,1894
1903,1898,1909
1876,1833,1842
1849,1777,1824
1841,1703,1802
1830,1858,1865
1856,1929,1841
1850,1898,1872
1846,1865,1882
1837,1771,1840
1834,1762,1865
1854,1920,1876
1835,1877,1850
1872,1846,1856
1914,1840,1859
1822,1776,1872
1799,1834,1882
1862,1914,1862
1847,1856,1872
1814,1798,1856
1867,1863,1871
1877,1789,1862
1857,1779,1811
1866,1812,1820
1821,1837,1835
1831,1899,1873
1821,1881,1867
1859,1814,1856
1846,1837,1870
1867,1814,1854
1874,1919,1858
1877,1904,1861
1849,1730,1819
1870,1733,1822
1877,1858,1874
1867,1894,1881
1862,1921,1882
1852,1907,1881
1861,1743,1843
1821,1744,1834
1840,1807,1879
1867,1846,1867
1846,1950,1859
1853,1920,1855
1855,1809,1855
1854,1791,1859
1821,1850,1854
1867,1865,1853
1945,1843,1881
1902,1834,1830
1799,1775,1819
1806,1813,1863
1852,1794,1875
1829,1856,1868
1841,1901,1840
1870,1744,1823
1851,1760,1872
1879,1829,1851
1819,1885,1851
1804,1872,1840
1842,1879,1877
1888,1902,1873
1879,1872,1814
1821,1835,1805
1805,1767,1845
1793,1808,1862
1867,1968,1867
1889,1831,1850
1830,1775,1839
1867,1811,1851
1921,1808,1857
1909,1954,1878
1797,1819,1823
1765,1712,1791
1822,1770,1834
1872,1749,1834
1821,1846,1880
1844,1930,1901
1895,1981,1866
1821,1821,1829
1829,1829,1851
1844,1831,1843
1845,1828,1865
1859,1815,1855
1904,1894,1866
1861,1821,1846
1875,1808,1823
1889,1808,1840
1830,1808,1857
1830,1795,1840
1858,1858,1858
1904,1936,1855
1856,1827,1863
1808,1792,1872
1845,1827,1861
1845,1819,1840
1788,1828,1875
1774,1749,1797
1866,1819,1810
1895,1890,1840
1855,1851,1870
1821,1855,1872
1843,1920,1840
1895,1842,1856
1827,1701,1836
1791,1807,1826
1872,1892,1841
1867,1858,1869
1813,1747,1822
1837,1757,1786
1893,1917,1840
1872,1840,1851
1824,1865,1879
1840,1812,1877
1856,1861,1829
1854,1859,1846
1791,1808,1830
1809,1776,1791
1869,1744,1794
1840,1774,1822
1873,1877,1855
1863,1882,1883
1840,1856,1872
1795,1779,1834
1829,1847,1828
1830,1895,1813
1885,1867,1843
1819,1770,1856
1766,1782,1844
1840,1823,1840
1908,1935,1850
1877,1847,1851
1821,1834,1854
1824,1747,1808
1857,1807,1779
1832,1872,1815
1762,1850,1871
1865,1863,1889
1853,1811,1851
1815,1790,1810
1783,1838,1836
1855,1879,1886
1887,1874,1840
1863,1847,1799
1830,1822,1850
1843,1808,1846
1835,1833,1849
1834,1888,1850
1792,1791,1825
1853,1781,1840
1959,1802,1824
1921,1925,1891
1792,1839,1828
1761,1773,1826
1839,1840,1847
1860,1870,1852
1829,1825,1855
1808,1869,1810
1847,1855,1793
1841,1796,1833
1843,1802,1872
1850,1817,1824
1861,1793,1840
1830,1874,1852
1877,1895,1859
1831,1919,1872
1806,1826,1831
1808,1807,1792
1825,1803,1851
1847,1810,1865
1841,1840,1806
1825,1783,1807
1824,1808,1845
1812,1820,1840
1853,1801,1835
1826,1843,1838
1809,1853,1863
1840,1846,1862
1936,1910,1867
1925,1874,1840
1799,1822,1839
1872,1842,1858
1846,1885,1843
1855,1808,1799
1895,1722,1859
1776,1845,1903
1789,1901,1859
1879,1899,1865
1863,1829,1842
1869,1840,1845
1840,1798,1831
1789,1770,1829
1810,1781,1824
1845,1919,1874
1927,1909,1879
1810,1759,1810
1790,1734,1782
1827,1842,1840
1867,1946,1860
1792,1854,1840
1844,1814,1863
1873,1911,1865
1904,1915,1867
1810,1771,1824
1856,1778,1788
1838,1897,1840
1782,1838,1847
1864,1830,1861
1856,1854,1859
1834,1883,1827
1862,1872,1837
1827,1758,1822
1825,1761,1811
1819,1839,1865
1872,1962,1920
1862,1840,1853
1815,1851,1842
1845,1865,1830
1863,1873,1830
1815,1822,1843
1802,1747,1834
1815,1823,1813
1827,1872,1824
1877,1857,1877
1863,1923,1874
1823,1815,1827
1939,1842,1793
1837,1754,1815
1741,1772,1862
1842,1853,1872
1846,1858,1856
1859,1840,1819
1835,1831,1866
1822,1860,1879
1823,1946,1875
1804,1878,1834
1825,1900,1779
1901,1837,1827
1873,1706,1831
1797,1764,1851
1803,1823,1838
1856,1782,1822
1809,1846,1857
1833,1881,1861
1797,1827,1845
1834,1888,1858
1881,1847,1841
1899,1840,1872
1868,1847,1863
1919,1942,1856
1787,1857,1833
1731,1803,1822
1774,1776,1835
1835,1821,1855
1859,1872,1856
1867,1822,1808
1849,1808,1799
1847,1869,1847
1888,1838,1854
1808,1811,1870
1823,1840,1867
1874,1879,1881
1861,1926,1868
1817,1855,1866
1819,1780,1822
1873,1799,1821
1797,1828,1821
1823,1886,1872
1901,1901,1892
1913,1927,1873
1872,1851,1840
1810,1819,1810
1805,1851,1834
1845,1790,1808
1807,1813,1838
1800,1719,1768
1787,1808,1863
1840,1875,1887
1937,1921,1899
1881,1910,1877
1821,1840,1840
1808,1810,1837
1834,1833,1863
1886,1871,1857
1877,1798,1823
1843,1849,1816
1817,1845,1866
1817,1873,1875
1846,1870,1878
1831,1758,1807
1811,1888,1870
1786,1873,1846
1811,1798,1839
1853,1879,1847
1859,1836,1853
1859,1826,1866
1805,1791,1842
1867,1835,1851
1865,1834,1857
1835,1840,1856
1872,1885,1882
1887,1859,1872
1807,1827,1793
1821,1822,1819
1840,1878,1878
1871,1717,1810
1782,1837,1859
1792,1884,1871
1859,1899,1870
1821,1856,1854
1844,1876,1847
1931,1898,1853
1900,1856,1861
1760,1785,1838
1729,1792,1831
1798,1749,1852
1904,1818,1879
1826,1813,1852
1819,1825,1795
1926,1966,1880
1874,1929,1870
1776,1812,1825
1828,1737,1834
1858,1723,1843
1831,1874,1867
1841,1791,1841
1853,1882,1876
1783,1872,1859
1787,1866,1845
1842,1838,1834
1855,1808,1813
1888,1857,1867
1855,1887,1872
1886,1919,1875
1889,1850,1879
1888,1822,1856
1793,1792,1874
1781,1834,1849
1793,1847,1807
1870,1791,1749
1841,1767,1803
1845,1876,1891
1895,1977,1920
1808,1938,1872
1779,1743,1846
1843,1763,1835
1907,1872,1847
1830,1797,1824
1786,1778,1867
1803,1885,1865
1872,1890,1874
1845,1802,1861
1840,1767,1862
1847,1854,1852
1854,1877,1856
1802,1879,1837
1893,1889,1811
1926,1929,1915
1806,1856,1870
1743,1733,1794
1791,1794,1840
1855,1840,1851
1849,1927,1872
1786,1841,1869
1808,1814,1863
1968,1890,1878
1875,1911,1843
1829,1819,1841
1806,1783,1850
1855,1738,1792
1808,1783,1835
1751,1841,1875
1871,1881,1904
1913,1779,1853
1885,1840,1825
1805,1907,1821
1775,1902,1821
1827,1808,1879
1945,1907,1899
1887,1903,1869
1750,1795,1836
1710,1780,1796
1873,1843,1868
1902,1851,1873
1852,1778,1871
1881,1781,1854
1799,1917,1871
1811,1843,1855
1781,1807,1799
1811,1844,1840
1882,1979,1869
1824,1823,1849
1826,1761,1839
1915,1890,1889
1938,1846,1867
1893,1840,1843
1683,1793,1831
1712,1805,1847
1792,1815,1830
1819,1821,1821
1891,1808,1855
1878,1873,1851
1850,1840,1843
1818,1760,1820
1813,1895,1879
1893,1936,1905
1918,1942,1904
1840,1857,1874
1810,1833,1872
1780,1804,1815
1806,1826,1811
1899,1847,1845
1892,1683,1783
1791,1815,1888
1806,1851,1904
1915,1886,1851
1875,1818,1882
2054,1984,1856
1877,1893,1866
1572,1739,1839
1685,1747,1824
1827,1808,1835
1839,1863,1869
1823,1887,1906
1859,1870,1887
1849,1843,1855
1863,1847,1841
1974,1890,1898
1829,1808,1851
1776,1846,1814
1776,1862,1843
1936,1819,1840
1863,1745,1840
1775,1810,1872
1744,1853,1855
1746,1858,1840
1871,1789,1851
1854,1818,1850
1797,1808,1845
1866,1811,1859
1906,1890,1885
1835,1861,1846
1739,1823,1843
